Timestamp,Device Timestamp (ns),ECG Value (uV)
2025-12-25 16:02:44.092380,599616686505878878,-142.00
2025-12-25 16:02:44.092380,599616686505878878,-142.00
2025-12-25 16:02:44.092380,599616686505878878,-137.00
2025-12-25 16:02:44.092380,599616686505878878,-135.00
2025-12-25 16:02:44.092380,599616686505878878,-137.00
2025-12-25 16:02:44.092380,599616686505878878,-142.00
2025-12-25 16:02:44.092380,599616686505878878,-144.00
2025-12-25 16:02:44.092380,599616686505878878,-142.00
2025-12-25 16:02:44.092380,599616686505878878,-133.00
2025-12-25 16:02:44.092380,599616686505878878,-119.00
2025-12-25 16:02:44.092380,599616686505878878,-101.00
2025-12-25 16:02:44.092380,599616686505878878,-94.00
2025-12-25 16:02:44.092380,599616686505878878,-103.00
2025-12-25 16:02:44.092380,599616686505878878,-119.00
2025-12-25 16:02:44.092380,599616686505878878,-114.00
2025-12-25 16:02:44.092380,599616686505878878,-98.00
2025-12-25 16:02:44.092380,599616686505878878,-105.00
2025-12-25 16:02:44.092380,599616686505878878,-110.00
2025-12-25 16:02:44.092380,599616686505878878,-101.00
2025-12-25 16:02:44.092380,599616686505878878,-103.00
2025-12-25 16:02:44.092380,599616686505878878,-108.00
2025-12-25 16:02:44.092380,599616686505878878,-108.00
2025-12-25 16:02:44.092380,599616686505878878,-110.00
2025-12-25 16:02:44.092380,599616686505878878,-110.00
2025-12-25 16:02:44.092380,599616686505878878,-105.00
2025-12-25 16:02:44.092380,599616686505878878,-108.00
2025-12-25 16:02:44.092380,599616686505878878,-110.00
2025-12-25 16:02:44.092380,599616686505878878,-55.00
2025-12-25 16:02:44.092380,599616686505878878,103.00
2025-12-25 16:02:44.092380,599616686505878878,213.00
2025-12-25 16:02:44.092380,599616686505878878,-6.00
2025-12-25 16:02:44.092380,599616686505878878,-363.00
2025-12-25 16:02:44.092380,599616686505878878,-402.00
2025-12-25 16:02:44.092380,599616686505878878,-262.00
2025-12-25 16:02:44.092380,599616686505878878,-216.00
2025-12-25 16:02:44.092380,599616686505878878,-165.00
2025-12-25 16:02:44.092380,599616686505878878,-94.00
2025-12-25 16:02:44.092380,599616686505878878,-89.00
2025-12-25 16:02:44.092380,599616686505878878,-96.00
2025-12-25 16:02:44.092380,599616686505878878,-73.00
2025-12-25 16:02:44.092380,599616686505878878,-59.00
2025-12-25 16:02:44.092380,599616686505878878,-64.00
2025-12-25 16:02:44.092380,599616686505878878,-62.00
2025-12-25 16:02:44.092380,599616686505878878,-55.00
2025-12-25 16:02:44.092380,599616686505878878,-48.00
2025-12-25 16:02:44.092380,599616686505878878,-48.00
2025-12-25 16:02:44.092380,599616686505878878,-48.00
2025-12-25 16:02:44.092380,599616686505878878,-43.00
2025-12-25 16:02:44.092380,599616686505878878,-43.00
2025-12-25 16:02:44.092380,599616686505878878,-43.00
2025-12-25 16:02:44.092380,599616686505878878,-41.00
2025-12-25 16:02:44.092380,599616686505878878,-36.00
2025-12-25 16:02:44.092380,599616686505878878,-34.00
2025-12-25 16:02:44.092380,599616686505878878,-29.00
2025-12-25 16:02:44.092380,599616686505878878,-25.00
2025-12-25 16:02:44.092380,599616686505878878,-20.00
2025-12-25 16:02:44.092380,599616686505878878,-13.00
2025-12-25 16:02:44.092380,599616686505878878,-18.00
2025-12-25 16:02:44.092380,599616686505878878,-27.00
2025-12-25 16:02:44.092380,599616686505878878,-32.00
2025-12-25 16:02:44.092380,599616686505878878,-36.00
2025-12-25 16:02:44.092380,599616686505878878,-45.00
2025-12-25 16:02:44.092380,599616686505878878,-55.00
2025-12-25 16:02:44.092380,599616686505878878,-68.00
2025-12-25 16:02:44.092380,599616686505878878,-87.00
2025-12-25 16:02:44.092380,599616686505878878,-96.00
2025-12-25 16:02:44.092380,599616686505878878,-103.00
2025-12-25 16:02:44.092380,599616686505878878,-110.00
2025-12-25 16:02:44.092380,599616686505878878,-114.00
2025-12-25 16:02:44.092380,599616686505878878,-114.00
2025-12-25 16:02:44.092380,599616686505878878,-112.00
2025-12-25 16:02:44.092380,599616686505878878,-112.00
2025-12-25 16:02:44.092380,599616686505878878,-114.00
2025-12-25 16:02:44.494573,599616687066759027,-108.00
2025-12-25 16:02:44.494573,599616687066759027,-101.00
2025-12-25 16:02:44.494573,599616687066759027,-103.00
2025-12-25 16:02:44.494573,599616687066759027,-98.00
2025-12-25 16:02:44.494573,599616687066759027,-94.00
2025-12-25 16:02:44.494573,599616687066759027,-94.00
2025-12-25 16:02:44.494573,599616687066759027,-80.00
2025-12-25 16:02:44.494573,599616687066759027,-71.00
2025-12-25 16:02:44.494573,599616687066759027,-78.00
2025-12-25 16:02:44.494573,599616687066759027,-82.00
2025-12-25 16:02:44.494573,599616687066759027,-85.00
2025-12-25 16:02:44.494573,599616687066759027,-87.00
2025-12-25 16:02:44.494573,599616687066759027,-75.00
2025-12-25 16:02:44.494573,599616687066759027,-68.00
2025-12-25 16:02:44.494573,599616687066759027,-78.00
2025-12-25 16:02:44.494573,599616687066759027,-82.00
2025-12-25 16:02:44.494573,599616687066759027,-80.00
2025-12-25 16:02:44.494573,599616687066759027,-80.00
2025-12-25 16:02:44.494573,599616687066759027,-80.00
2025-12-25 16:02:44.494573,599616687066759027,-78.00
2025-12-25 16:02:44.494573,599616687066759027,-78.00
2025-12-25 16:02:44.494573,599616687066759027,-71.00
2025-12-25 16:02:44.494573,599616687066759027,-64.00
2025-12-25 16:02:44.494573,599616687066759027,-64.00
2025-12-25 16:02:44.494573,599616687066759027,-75.00
2025-12-25 16:02:44.494573,599616687066759027,-87.00
2025-12-25 16:02:44.494573,599616687066759027,-91.00
2025-12-25 16:02:44.494573,599616687066759027,-96.00
2025-12-25 16:02:44.494573,599616687066759027,-96.00
2025-12-25 16:02:44.494573,599616687066759027,-89.00
2025-12-25 16:02:44.494573,599616687066759027,-91.00
2025-12-25 16:02:44.494573,599616687066759027,-96.00
2025-12-25 16:02:44.494573,599616687066759027,-94.00
2025-12-25 16:02:44.494573,599616687066759027,-89.00
2025-12-25 16:02:44.494573,599616687066759027,-85.00
2025-12-25 16:02:44.494573,599616687066759027,-75.00
2025-12-25 16:02:44.494573,599616687066759027,-75.00
2025-12-25 16:02:44.494573,599616687066759027,-85.00
2025-12-25 16:02:44.494573,599616687066759027,-52.00
2025-12-25 16:02:44.494573,599616687066759027,80.00
2025-12-25 16:02:44.494573,599616687066759027,232.00
2025-12-25 16:02:44.494573,599616687066759027,108.00
2025-12-25 16:02:44.494573,599616687066759027,-259.00
2025-12-25 16:02:44.494573,599616687066759027,-404.00
2025-12-25 16:02:44.494573,599616687066759027,-278.00
2025-12-25 16:02:44.494573,599616687066759027,-197.00
2025-12-25 16:02:44.494573,599616687066759027,-156.00
2025-12-25 16:02:44.494573,599616687066759027,-80.00
2025-12-25 16:02:44.494573,599616687066759027,-59.00
2025-12-25 16:02:44.494573,599616687066759027,-71.00
2025-12-25 16:02:44.494573,599616687066759027,-64.00
2025-12-25 16:02:44.494573,599616687066759027,-59.00
2025-12-25 16:02:44.494573,599616687066759027,-59.00
2025-12-25 16:02:44.494573,599616687066759027,-48.00
2025-12-25 16:02:44.494573,599616687066759027,-41.00
2025-12-25 16:02:44.494573,599616687066759027,-45.00
2025-12-25 16:02:44.494573,599616687066759027,-48.00
2025-12-25 16:02:44.494573,599616687066759027,-43.00
2025-12-25 16:02:44.494573,599616687066759027,-39.00
2025-12-25 16:02:44.494573,599616687066759027,-34.00
2025-12-25 16:02:44.494573,599616687066759027,-29.00
2025-12-25 16:02:44.494573,599616687066759027,-25.00
2025-12-25 16:02:44.494573,599616687066759027,-29.00
2025-12-25 16:02:44.494573,599616687066759027,-34.00
2025-12-25 16:02:44.494573,599616687066759027,-27.00
2025-12-25 16:02:44.494573,599616687066759027,-20.00
2025-12-25 16:02:44.494573,599616687066759027,-16.00
2025-12-25 16:02:44.494573,599616687066759027,-11.00
2025-12-25 16:02:44.494573,599616687066759027,-4.00
2025-12-25 16:02:44.494573,599616687066759027,-4.00
2025-12-25 16:02:44.494573,599616687066759027,-11.00
2025-12-25 16:02:44.494573,599616687066759027,-16.00
2025-12-25 16:02:44.494573,599616687066759027,-25.00
2025-12-25 16:02:45.046753,599616687627639176,-41.00
2025-12-25 16:02:45.046753,599616687627639176,-57.00
2025-12-25 16:02:45.046753,599616687627639176,-71.00
2025-12-25 16:02:45.046753,599616687627639176,-82.00
2025-12-25 16:02:45.046753,599616687627639176,-89.00
2025-12-25 16:02:45.046753,599616687627639176,-94.00
2025-12-25 16:02:45.046753,599616687627639176,-103.00
2025-12-25 16:02:45.046753,599616687627639176,-103.00
2025-12-25 16:02:45.046753,599616687627639176,-105.00
2025-12-25 16:02:45.046753,599616687627639176,-96.00
2025-12-25 16:02:45.046753,599616687627639176,-78.00
2025-12-25 16:02:45.046753,599616687627639176,-71.00
2025-12-25 16:02:45.046753,599616687627639176,-80.00
2025-12-25 16:02:45.046753,599616687627639176,-80.00
2025-12-25 16:02:45.046753,599616687627639176,-75.00
2025-12-25 16:02:45.046753,599616687627639176,-75.00
2025-12-25 16:02:45.046753,599616687627639176,-80.00
2025-12-25 16:02:45.046753,599616687627639176,-82.00
2025-12-25 16:02:45.046753,599616687627639176,-82.00
2025-12-25 16:02:45.046753,599616687627639176,-85.00
2025-12-25 16:02:45.046753,599616687627639176,-89.00
2025-12-25 16:02:45.046753,599616687627639176,-85.00
2025-12-25 16:02:45.046753,599616687627639176,-82.00
2025-12-25 16:02:45.046753,599616687627639176,-85.00
2025-12-25 16:02:45.046753,599616687627639176,-91.00
2025-12-25 16:02:45.046753,599616687627639176,-89.00
2025-12-25 16:02:45.046753,599616687627639176,-80.00
2025-12-25 16:02:45.046753,599616687627639176,-75.00
2025-12-25 16:02:45.046753,599616687627639176,-80.00
2025-12-25 16:02:45.046753,599616687627639176,-82.00
2025-12-25 16:02:45.046753,599616687627639176,-82.00
2025-12-25 16:02:45.046753,599616687627639176,-89.00
2025-12-25 16:02:45.046753,599616687627639176,-89.00
2025-12-25 16:02:45.046753,599616687627639176,-78.00
2025-12-25 16:02:45.046753,599616687627639176,-64.00
2025-12-25 16:02:45.046753,599616687627639176,-62.00
2025-12-25 16:02:45.046753,599616687627639176,-75.00
2025-12-25 16:02:45.046753,599616687627639176,-89.00
2025-12-25 16:02:45.046753,599616687627639176,-94.00
2025-12-25 16:02:45.046753,599616687627639176,-94.00
2025-12-25 16:02:45.046753,599616687627639176,-94.00
2025-12-25 16:02:45.046753,599616687627639176,-96.00
2025-12-25 16:02:45.046753,599616687627639176,-98.00
2025-12-25 16:02:45.046753,599616687627639176,-96.00
2025-12-25 16:02:45.046753,599616687627639176,-94.00
2025-12-25 16:02:45.046753,599616687627639176,-96.00
2025-12-25 16:02:45.046753,599616687627639176,-94.00
2025-12-25 16:02:45.046753,599616687627639176,-89.00
2025-12-25 16:02:45.046753,599616687627639176,-94.00
2025-12-25 16:02:45.046753,599616687627639176,-103.00
2025-12-25 16:02:45.046753,599616687627639176,-91.00
2025-12-25 16:02:45.046753,599616687627639176,-6.00
2025-12-25 16:02:45.046753,599616687627639176,167.00
2025-12-25 16:02:45.046753,599616687627639176,213.00
2025-12-25 16:02:45.046753,599616687627639176,-91.00
2025-12-25 16:02:45.046753,599616687627639176,-406.00
2025-12-25 16:02:45.046753,599616687627639176,-365.00
2025-12-25 16:02:45.046753,599616687627639176,-243.00
2025-12-25 16:02:45.046753,599616687627639176,-211.00
2025-12-25 16:02:45.046753,599616687627639176,-128.00
2025-12-25 16:02:45.046753,599616687627639176,-62.00
2025-12-25 16:02:45.046753,599616687627639176,-73.00
2025-12-25 16:02:45.046753,599616687627639176,-71.00
2025-12-25 16:02:45.046753,599616687627639176,-43.00
2025-12-25 16:02:45.046753,599616687627639176,-43.00
2025-12-25 16:02:45.046753,599616687627639176,-48.00
2025-12-25 16:02:45.046753,599616687627639176,-41.00
2025-12-25 16:02:45.046753,599616687627639176,-36.00
2025-12-25 16:02:45.046753,599616687627639176,-36.00
2025-12-25 16:02:45.046753,599616687627639176,-34.00
2025-12-25 16:02:45.046753,599616687627639176,-34.00
2025-12-25 16:02:45.046753,599616687627639176,-34.00
2025-12-25 16:02:45.046753,599616687627639176,-27.00
2025-12-25 16:02:45.648729,599616688188519327,-20.00
2025-12-25 16:02:45.648729,599616688188519327,-20.00
2025-12-25 16:02:45.648729,599616688188519327,-27.00
2025-12-25 16:02:45.648729,599616688188519327,-22.00
2025-12-25 16:02:45.648729,599616688188519327,-13.00
2025-12-25 16:02:45.648729,599616688188519327,-11.00
2025-12-25 16:02:45.648729,599616688188519327,-4.00
2025-12-25 16:02:45.648729,599616688188519327,4.00
2025-12-25 16:02:45.648729,599616688188519327,4.00
2025-12-25 16:02:45.648729,599616688188519327,-2.00
2025-12-25 16:02:45.648729,599616688188519327,-4.00
2025-12-25 16:02:45.648729,599616688188519327,0.00
2025-12-25 16:02:45.648729,599616688188519327,-6.00
2025-12-25 16:02:45.648729,599616688188519327,-32.00
2025-12-25 16:02:45.648729,599616688188519327,-57.00
2025-12-25 16:02:45.648729,599616688188519327,-71.00
2025-12-25 16:02:45.648729,599616688188519327,-75.00
2025-12-25 16:02:45.648729,599616688188519327,-82.00
2025-12-25 16:02:45.648729,599616688188519327,-91.00
2025-12-25 16:02:45.648729,599616688188519327,-91.00
2025-12-25 16:02:45.648729,599616688188519327,-80.00
2025-12-25 16:02:45.648729,599616688188519327,-75.00
2025-12-25 16:02:45.648729,599616688188519327,-78.00
2025-12-25 16:02:45.648729,599616688188519327,-75.00
2025-12-25 16:02:45.648729,599616688188519327,-73.00
2025-12-25 16:02:45.648729,599616688188519327,-75.00
2025-12-25 16:02:45.648729,599616688188519327,-82.00
2025-12-25 16:02:45.648729,599616688188519327,-85.00
2025-12-25 16:02:45.648729,599616688188519327,-82.00
2025-12-25 16:02:45.648729,599616688188519327,-80.00
2025-12-25 16:02:45.648729,599616688188519327,-80.00
2025-12-25 16:02:45.648729,599616688188519327,-82.00
2025-12-25 16:02:45.648729,599616688188519327,-85.00
2025-12-25 16:02:45.648729,599616688188519327,-87.00
2025-12-25 16:02:45.648729,599616688188519327,-91.00
2025-12-25 16:02:45.648729,599616688188519327,-91.00
2025-12-25 16:02:45.648729,599616688188519327,-89.00
2025-12-25 16:02:45.648729,599616688188519327,-89.00
2025-12-25 16:02:45.648729,599616688188519327,-98.00
2025-12-25 16:02:45.648729,599616688188519327,-108.00
2025-12-25 16:02:45.648729,599616688188519327,-108.00
2025-12-25 16:02:45.648729,599616688188519327,-103.00
2025-12-25 16:02:45.648729,599616688188519327,-98.00
2025-12-25 16:02:45.648729,599616688188519327,-94.00
2025-12-25 16:02:45.648729,599616688188519327,-91.00
2025-12-25 16:02:45.648729,599616688188519327,-89.00
2025-12-25 16:02:45.648729,599616688188519327,-96.00
2025-12-25 16:02:45.648729,599616688188519327,-105.00
2025-12-25 16:02:45.648729,599616688188519327,-108.00
2025-12-25 16:02:45.648729,599616688188519327,-105.00
2025-12-25 16:02:45.648729,599616688188519327,-101.00
2025-12-25 16:02:45.648729,599616688188519327,-103.00
2025-12-25 16:02:45.648729,599616688188519327,-108.00
2025-12-25 16:02:45.648729,599616688188519327,-108.00
2025-12-25 16:02:45.648729,599616688188519327,-105.00
2025-12-25 16:02:45.648729,599616688188519327,-98.00
2025-12-25 16:02:45.648729,599616688188519327,-98.00
2025-12-25 16:02:45.648729,599616688188519327,-101.00
2025-12-25 16:02:45.648729,599616688188519327,-103.00
2025-12-25 16:02:45.648729,599616688188519327,-108.00
2025-12-25 16:02:45.648729,599616688188519327,-78.00
2025-12-25 16:02:45.648729,599616688188519327,50.00
2025-12-25 16:02:45.648729,599616688188519327,218.00
2025-12-25 16:02:45.648729,599616688188519327,108.00
2025-12-25 16:02:45.648729,599616688188519327,-275.00
2025-12-25 16:02:45.648729,599616688188519327,-436.00
2025-12-25 16:02:45.648729,599616688188519327,-308.00
2025-12-25 16:02:45.648729,599616688188519327,-234.00
2025-12-25 16:02:45.648729,599616688188519327,-197.00
2025-12-25 16:02:45.648729,599616688188519327,-108.00
2025-12-25 16:02:45.648729,599616688188519327,-80.00
2025-12-25 16:02:45.648729,599616688188519327,-103.00
2025-12-25 16:02:45.648729,599616688188519327,-91.00
2025-12-25 16:02:46.200808,599616688749399476,-73.00
2025-12-25 16:02:46.200808,599616688749399476,-82.00
2025-12-25 16:02:46.200808,599616688749399476,-82.00
2025-12-25 16:02:46.200808,599616688749399476,-68.00
2025-12-25 16:02:46.200808,599616688749399476,-64.00
2025-12-25 16:02:46.200808,599616688749399476,-64.00
2025-12-25 16:02:46.200808,599616688749399476,-59.00
2025-12-25 16:02:46.200808,599616688749399476,-57.00
2025-12-25 16:02:46.200808,599616688749399476,-52.00
2025-12-25 16:02:46.200808,599616688749399476,-36.00
2025-12-25 16:02:46.200808,599616688749399476,-20.00
2025-12-25 16:02:46.200808,599616688749399476,-18.00
2025-12-25 16:02:46.200808,599616688749399476,-18.00
2025-12-25 16:02:46.200808,599616688749399476,-11.00
2025-12-25 16:02:46.200808,599616688749399476,-4.00
2025-12-25 16:02:46.200808,599616688749399476,2.00
2025-12-25 16:02:46.200808,599616688749399476,11.00
2025-12-25 16:02:46.200808,599616688749399476,6.00
2025-12-25 16:02:46.200808,599616688749399476,-4.00
2025-12-25 16:02:46.200808,599616688749399476,-6.00
2025-12-25 16:02:46.200808,599616688749399476,-13.00
2025-12-25 16:02:46.200808,599616688749399476,-22.00
2025-12-25 16:02:46.200808,599616688749399476,-27.00
2025-12-25 16:02:46.200808,599616688749399476,-39.00
2025-12-25 16:02:46.200808,599616688749399476,-59.00
2025-12-25 16:02:46.200808,599616688749399476,-78.00
2025-12-25 16:02:46.200808,599616688749399476,-85.00
2025-12-25 16:02:46.200808,599616688749399476,-87.00
2025-12-25 16:02:46.200808,599616688749399476,-91.00
2025-12-25 16:02:46.200808,599616688749399476,-98.00
2025-12-25 16:02:46.200808,599616688749399476,-98.00
2025-12-25 16:02:46.200808,599616688749399476,-96.00
2025-12-25 16:02:46.200808,599616688749399476,-98.00
2025-12-25 16:02:46.200808,599616688749399476,-94.00
2025-12-25 16:02:46.200808,599616688749399476,-82.00
2025-12-25 16:02:46.200808,599616688749399476,-89.00
2025-12-25 16:02:46.200808,599616688749399476,-98.00
2025-12-25 16:02:46.200808,599616688749399476,-94.00
2025-12-25 16:02:46.200808,599616688749399476,-91.00
2025-12-25 16:02:46.200808,599616688749399476,-91.00
2025-12-25 16:02:46.200808,599616688749399476,-87.00
2025-12-25 16:02:46.200808,599616688749399476,-94.00
2025-12-25 16:02:46.200808,599616688749399476,-98.00
2025-12-25 16:02:46.200808,599616688749399476,-94.00
2025-12-25 16:02:46.200808,599616688749399476,-91.00
2025-12-25 16:02:46.200808,599616688749399476,-94.00
2025-12-25 16:02:46.200808,599616688749399476,-98.00
2025-12-25 16:02:46.200808,599616688749399476,-105.00
2025-12-25 16:02:46.200808,599616688749399476,-108.00
2025-12-25 16:02:46.200808,599616688749399476,-105.00
2025-12-25 16:02:46.200808,599616688749399476,-103.00
2025-12-25 16:02:46.200808,599616688749399476,-94.00
2025-12-25 16:02:46.200808,599616688749399476,-85.00
2025-12-25 16:02:46.200808,599616688749399476,-85.00
2025-12-25 16:02:46.200808,599616688749399476,-96.00
2025-12-25 16:02:46.200808,599616688749399476,-108.00
2025-12-25 16:02:46.200808,599616688749399476,-108.00
2025-12-25 16:02:46.200808,599616688749399476,-108.00
2025-12-25 16:02:46.200808,599616688749399476,-110.00
2025-12-25 16:02:46.200808,599616688749399476,-108.00
2025-12-25 16:02:46.200808,599616688749399476,-110.00
2025-12-25 16:02:46.200808,599616688749399476,-110.00
2025-12-25 16:02:46.200808,599616688749399476,-101.00
2025-12-25 16:02:46.200808,599616688749399476,-101.00
2025-12-25 16:02:46.200808,599616688749399476,-110.00
2025-12-25 16:02:46.200808,599616688749399476,-112.00
2025-12-25 16:02:46.200808,599616688749399476,-110.00
2025-12-25 16:02:46.200808,599616688749399476,-110.00
2025-12-25 16:02:46.200808,599616688749399476,-94.00
2025-12-25 16:02:46.200808,599616688749399476,0.00
2025-12-25 16:02:46.200808,599616688749399476,172.00
2025-12-25 16:02:46.200808,599616688749399476,190.00
2025-12-25 16:02:46.200808,599616688749399476,-128.00
2025-12-25 16:02:46.903295,599616689310279625,-413.00
2025-12-25 16:02:46.903295,599616689310279625,-351.00
2025-12-25 16:02:46.903295,599616689310279625,-229.00
2025-12-25 16:02:46.903295,599616689310279625,-197.00
2025-12-25 16:02:46.903295,599616689310279625,-128.00
2025-12-25 16:02:46.903295,599616689310279625,-73.00
2025-12-25 16:02:46.903295,599616689310279625,-71.00
2025-12-25 16:02:46.903295,599616689310279625,-57.00
2025-12-25 16:02:46.903295,599616689310279625,-39.00
2025-12-25 16:02:46.903295,599616689310279625,-45.00
2025-12-25 16:02:46.903295,599616689310279625,-48.00
2025-12-25 16:02:46.903295,599616689310279625,-41.00
2025-12-25 16:02:46.903295,599616689310279625,-36.00
2025-12-25 16:02:46.903295,599616689310279625,-22.00
2025-12-25 16:02:46.903295,599616689310279625,-11.00
2025-12-25 16:02:46.903295,599616689310279625,-18.00
2025-12-25 16:02:46.903295,599616689310279625,-22.00
2025-12-25 16:02:46.903295,599616689310279625,-20.00
2025-12-25 16:02:46.903295,599616689310279625,-16.00
2025-12-25 16:02:46.903295,599616689310279625,-11.00
2025-12-25 16:02:46.903295,599616689310279625,-16.00
2025-12-25 16:02:46.903295,599616689310279625,-16.00
2025-12-25 16:02:46.903295,599616689310279625,-9.00
2025-12-25 16:02:46.903295,599616689310279625,-9.00
2025-12-25 16:02:46.903295,599616689310279625,-6.00
2025-12-25 16:02:46.903295,599616689310279625,-4.00
2025-12-25 16:02:46.903295,599616689310279625,-22.00
2025-12-25 16:02:46.903295,599616689310279625,-41.00
2025-12-25 16:02:46.903295,599616689310279625,-39.00
2025-12-25 16:02:46.903295,599616689310279625,-41.00
2025-12-25 16:02:46.903295,599616689310279625,-57.00
2025-12-25 16:02:46.903295,599616689310279625,-66.00
2025-12-25 16:02:46.903295,599616689310279625,-75.00
2025-12-25 16:02:46.903295,599616689310279625,-85.00
2025-12-25 16:02:46.903295,599616689310279625,-89.00
2025-12-25 16:02:46.903295,599616689310279625,-96.00
2025-12-25 16:02:46.903295,599616689310279625,-105.00
2025-12-25 16:02:46.903295,599616689310279625,-108.00
2025-12-25 16:02:46.903295,599616689310279625,-108.00
2025-12-25 16:02:46.903295,599616689310279625,-103.00
2025-12-25 16:02:46.903295,599616689310279625,-103.00
2025-12-25 16:02:46.903295,599616689310279625,-105.00
2025-12-25 16:02:46.903295,599616689310279625,-103.00
2025-12-25 16:02:46.903295,599616689310279625,-94.00
2025-12-25 16:02:46.903295,599616689310279625,-91.00
2025-12-25 16:02:46.903295,599616689310279625,-94.00
2025-12-25 16:02:46.903295,599616689310279625,-98.00
2025-12-25 16:02:46.903295,599616689310279625,-98.00
2025-12-25 16:02:46.903295,599616689310279625,-89.00
2025-12-25 16:02:46.903295,599616689310279625,-85.00
2025-12-25 16:02:46.903295,599616689310279625,-91.00
2025-12-25 16:02:46.903295,599616689310279625,-98.00
2025-12-25 16:02:46.903295,599616689310279625,-105.00
2025-12-25 16:02:46.903295,599616689310279625,-114.00
2025-12-25 16:02:46.903295,599616689310279625,-110.00
2025-12-25 16:02:46.903295,599616689310279625,-96.00
2025-12-25 16:02:46.903295,599616689310279625,-91.00
2025-12-25 16:02:46.903295,599616689310279625,-94.00
2025-12-25 16:02:46.903295,599616689310279625,-85.00
2025-12-25 16:02:46.903295,599616689310279625,-73.00
2025-12-25 16:02:46.903295,599616689310279625,-78.00
2025-12-25 16:02:46.903295,599616689310279625,-96.00
2025-12-25 16:02:46.903295,599616689310279625,-105.00
2025-12-25 16:02:46.903295,599616689310279625,-98.00
2025-12-25 16:02:46.903295,599616689310279625,-94.00
2025-12-25 16:02:46.903295,599616689310279625,-101.00
2025-12-25 16:02:46.903295,599616689310279625,-98.00
2025-12-25 16:02:46.903295,599616689310279625,-89.00
2025-12-25 16:02:46.903295,599616689310279625,-96.00
2025-12-25 16:02:46.903295,599616689310279625,-108.00
2025-12-25 16:02:46.903295,599616689310279625,-103.00
2025-12-25 16:02:46.903295,599616689310279625,-96.00
2025-12-25 16:02:46.903295,599616689310279625,-96.00
2025-12-25 16:02:47.304587,599616689871159774,-85.00
2025-12-25 16:02:47.304587,599616689871159774,-45.00
2025-12-25 16:02:47.304587,599616689871159774,85.00
2025-12-25 16:02:47.304587,599616689871159774,241.00
2025-12-25 16:02:47.304587,599616689871159774,108.00
2025-12-25 16:02:47.304587,599616689871159774,-275.00
2025-12-25 16:02:47.304587,599616689871159774,-409.00
2025-12-25 16:02:47.304587,599616689871159774,-273.00
2025-12-25 16:02:47.304587,599616689871159774,-211.00
2025-12-25 16:02:47.304587,599616689871159774,-177.00
2025-12-25 16:02:47.304587,599616689871159774,-96.00
2025-12-25 16:02:47.304587,599616689871159774,-73.00
2025-12-25 16:02:47.304587,599616689871159774,-87.00
2025-12-25 16:02:47.304587,599616689871159774,-75.00
2025-12-25 16:02:47.304587,599616689871159774,-66.00
2025-12-25 16:02:47.304587,599616689871159774,-71.00
2025-12-25 16:02:47.304587,599616689871159774,-55.00
2025-12-25 16:02:47.304587,599616689871159774,-34.00
2025-12-25 16:02:47.304587,599616689871159774,-34.00
2025-12-25 16:02:47.304587,599616689871159774,-43.00
2025-12-25 16:02:47.304587,599616689871159774,-45.00
2025-12-25 16:02:47.304587,599616689871159774,-45.00
2025-12-25 16:02:47.304587,599616689871159774,-36.00
2025-12-25 16:02:47.304587,599616689871159774,-22.00
2025-12-25 16:02:47.304587,599616689871159774,-25.00
2025-12-25 16:02:47.304587,599616689871159774,-25.00
2025-12-25 16:02:47.304587,599616689871159774,-18.00
2025-12-25 16:02:47.304587,599616689871159774,-6.00
2025-12-25 16:02:47.304587,599616689871159774,2.00
2025-12-25 16:02:47.304587,599616689871159774,6.00
2025-12-25 16:02:47.304587,599616689871159774,0.00
2025-12-25 16:02:47.304587,599616689871159774,-16.00
2025-12-25 16:02:47.304587,599616689871159774,-20.00
2025-12-25 16:02:47.304587,599616689871159774,-11.00
2025-12-25 16:02:47.304587,599616689871159774,-4.00
2025-12-25 16:02:47.304587,599616689871159774,-20.00
2025-12-25 16:02:47.304587,599616689871159774,-39.00
2025-12-25 16:02:47.304587,599616689871159774,-55.00
2025-12-25 16:02:47.304587,599616689871159774,-71.00
2025-12-25 16:02:47.304587,599616689871159774,-85.00
2025-12-25 16:02:47.304587,599616689871159774,-94.00
2025-12-25 16:02:47.304587,599616689871159774,-96.00
2025-12-25 16:02:47.304587,599616689871159774,-98.00
2025-12-25 16:02:47.304587,599616689871159774,-101.00
2025-12-25 16:02:47.304587,599616689871159774,-103.00
2025-12-25 16:02:47.304587,599616689871159774,-96.00
2025-12-25 16:02:47.304587,599616689871159774,-91.00
2025-12-25 16:02:47.304587,599616689871159774,-96.00
2025-12-25 16:02:47.304587,599616689871159774,-98.00
2025-12-25 16:02:47.304587,599616689871159774,-89.00
2025-12-25 16:02:47.304587,599616689871159774,-85.00
2025-12-25 16:02:47.304587,599616689871159774,-94.00
2025-12-25 16:02:47.304587,599616689871159774,-96.00
2025-12-25 16:02:47.304587,599616689871159774,-94.00
2025-12-25 16:02:47.304587,599616689871159774,-91.00
2025-12-25 16:02:47.304587,599616689871159774,-91.00
2025-12-25 16:02:47.304587,599616689871159774,-94.00
2025-12-25 16:02:47.304587,599616689871159774,-94.00
2025-12-25 16:02:47.304587,599616689871159774,-98.00
2025-12-25 16:02:47.304587,599616689871159774,-96.00
2025-12-25 16:02:47.304587,599616689871159774,-85.00
2025-12-25 16:02:47.304587,599616689871159774,-75.00
2025-12-25 16:02:47.304587,599616689871159774,-78.00
2025-12-25 16:02:47.304587,599616689871159774,-89.00
2025-12-25 16:02:47.304587,599616689871159774,-98.00
2025-12-25 16:02:47.304587,599616689871159774,-98.00
2025-12-25 16:02:47.304587,599616689871159774,-89.00
2025-12-25 16:02:47.304587,599616689871159774,-87.00
2025-12-25 16:02:47.304587,599616689871159774,-91.00
2025-12-25 16:02:47.304587,599616689871159774,-98.00
2025-12-25 16:02:47.304587,599616689871159774,-98.00
2025-12-25 16:02:47.304587,599616689871159774,-96.00
2025-12-25 16:02:47.304587,599616689871159774,-87.00
2025-12-25 16:02:47.907242,599616690432039923,-85.00
2025-12-25 16:02:47.907242,599616690432039923,-94.00
2025-12-25 16:02:47.907242,599616690432039923,-98.00
2025-12-25 16:02:47.907242,599616690432039923,-91.00
2025-12-25 16:02:47.907242,599616690432039923,-39.00
2025-12-25 16:02:47.907242,599616690432039923,114.00
2025-12-25 16:02:47.907242,599616690432039923,229.00
2025-12-25 16:02:47.907242,599616690432039923,18.00
2025-12-25 16:02:47.907242,599616690432039923,-335.00
2025-12-25 16:02:47.907242,599616690432039923,-383.00
2025-12-25 16:02:47.907242,599616690432039923,-252.00
2025-12-25 16:02:47.907242,599616690432039923,-204.00
2025-12-25 16:02:47.907242,599616690432039923,-142.00
2025-12-25 16:02:47.907242,599616690432039923,-68.00
2025-12-25 16:02:47.907242,599616690432039923,-71.00
2025-12-25 16:02:47.907242,599616690432039923,-80.00
2025-12-25 16:02:47.907242,599616690432039923,-62.00
2025-12-25 16:02:47.907242,599616690432039923,-64.00
2025-12-25 16:02:47.907242,599616690432039923,-73.00
2025-12-25 16:02:47.907242,599616690432039923,-62.00
2025-12-25 16:02:47.907242,599616690432039923,-57.00
2025-12-25 16:02:47.907242,599616690432039923,-59.00
2025-12-25 16:02:47.907242,599616690432039923,-57.00
2025-12-25 16:02:47.907242,599616690432039923,-48.00
2025-12-25 16:02:47.907242,599616690432039923,-50.00
2025-12-25 16:02:47.907242,599616690432039923,-50.00
2025-12-25 16:02:47.907242,599616690432039923,-39.00
2025-12-25 16:02:47.907242,599616690432039923,-36.00
2025-12-25 16:02:47.907242,599616690432039923,-39.00
2025-12-25 16:02:47.907242,599616690432039923,-27.00
2025-12-25 16:02:47.907242,599616690432039923,-20.00
2025-12-25 16:02:47.907242,599616690432039923,-22.00
2025-12-25 16:02:47.907242,599616690432039923,-22.00
2025-12-25 16:02:47.907242,599616690432039923,-22.00
2025-12-25 16:02:47.907242,599616690432039923,-25.00
2025-12-25 16:02:47.907242,599616690432039923,-25.00
2025-12-25 16:02:47.907242,599616690432039923,-22.00
2025-12-25 16:02:47.907242,599616690432039923,-27.00
2025-12-25 16:02:47.907242,599616690432039923,-48.00
2025-12-25 16:02:47.907242,599616690432039923,-64.00
2025-12-25 16:02:47.907242,599616690432039923,-75.00
2025-12-25 16:02:47.907242,599616690432039923,-87.00
2025-12-25 16:02:47.907242,599616690432039923,-103.00
2025-12-25 16:02:47.907242,599616690432039923,-112.00
2025-12-25 16:02:47.907242,599616690432039923,-114.00
2025-12-25 16:02:47.907242,599616690432039923,-119.00
2025-12-25 16:02:47.907242,599616690432039923,-112.00
2025-12-25 16:02:47.907242,599616690432039923,-101.00
2025-12-25 16:02:47.907242,599616690432039923,-101.00
2025-12-25 16:02:47.907242,599616690432039923,-101.00
2025-12-25 16:02:47.907242,599616690432039923,-96.00
2025-12-25 16:02:47.907242,599616690432039923,-96.00
2025-12-25 16:02:47.907242,599616690432039923,-91.00
2025-12-25 16:02:47.907242,599616690432039923,-80.00
2025-12-25 16:02:47.907242,599616690432039923,-78.00
2025-12-25 16:02:47.907242,599616690432039923,-80.00
2025-12-25 16:02:47.907242,599616690432039923,-85.00
2025-12-25 16:02:47.907242,599616690432039923,-85.00
2025-12-25 16:02:47.907242,599616690432039923,-73.00
2025-12-25 16:02:47.907242,599616690432039923,-73.00
2025-12-25 16:02:47.907242,599616690432039923,-78.00
2025-12-25 16:02:47.907242,599616690432039923,-68.00
2025-12-25 16:02:47.907242,599616690432039923,-59.00
2025-12-25 16:02:47.907242,599616690432039923,-64.00
2025-12-25 16:02:47.907242,599616690432039923,-64.00
2025-12-25 16:02:47.907242,599616690432039923,-66.00
2025-12-25 16:02:47.907242,599616690432039923,-80.00
2025-12-25 16:02:47.907242,599616690432039923,-89.00
2025-12-25 16:02:47.907242,599616690432039923,-87.00
2025-12-25 16:02:47.907242,599616690432039923,-85.00
2025-12-25 16:02:47.907242,599616690432039923,-87.00
2025-12-25 16:02:47.907242,599616690432039923,-89.00
2025-12-25 16:02:47.907242,599616690432039923,-87.00
2025-12-25 16:02:48.460326,599616690992920072,-87.00
2025-12-25 16:02:48.460326,599616690992920072,-89.00
2025-12-25 16:02:48.460326,599616690992920072,-85.00
2025-12-25 16:02:48.460326,599616690992920072,-80.00
2025-12-25 16:02:48.460326,599616690992920072,-85.00
2025-12-25 16:02:48.460326,599616690992920072,-68.00
2025-12-25 16:02:48.460326,599616690992920072,45.00
2025-12-25 16:02:48.460326,599616690992920072,239.00
2025-12-25 16:02:48.460326,599616690992920072,232.00
2025-12-25 16:02:48.460326,599616690992920072,-135.00
2025-12-25 16:02:48.460326,599616690992920072,-395.00
2025-12-25 16:02:48.460326,599616690992920072,-291.00
2025-12-25 16:02:48.460326,599616690992920072,-197.00
2025-12-25 16:02:48.460326,599616690992920072,-188.00
2025-12-25 16:02:48.460326,599616690992920072,-96.00
2025-12-25 16:02:48.460326,599616690992920072,-39.00
2025-12-25 16:02:48.460326,599616690992920072,-50.00
2025-12-25 16:02:48.460326,599616690992920072,-39.00
2025-12-25 16:02:48.460326,599616690992920072,-16.00
2025-12-25 16:02:48.460326,599616690992920072,-20.00
2025-12-25 16:02:48.460326,599616690992920072,-27.00
2025-12-25 16:02:48.460326,599616690992920072,-25.00
2025-12-25 16:02:48.460326,599616690992920072,-16.00
2025-12-25 16:02:48.460326,599616690992920072,-13.00
2025-12-25 16:02:48.460326,599616690992920072,-18.00
2025-12-25 16:02:48.460326,599616690992920072,-20.00
2025-12-25 16:02:48.460326,599616690992920072,-18.00
2025-12-25 16:02:48.460326,599616690992920072,-13.00
2025-12-25 16:02:48.460326,599616690992920072,-6.00
2025-12-25 16:02:48.460326,599616690992920072,-2.00
2025-12-25 16:02:48.460326,599616690992920072,-2.00
2025-12-25 16:02:48.460326,599616690992920072,-2.00
2025-12-25 16:02:48.460326,599616690992920072,2.00
2025-12-25 16:02:48.460326,599616690992920072,6.00
2025-12-25 16:02:48.460326,599616690992920072,6.00
2025-12-25 16:02:48.460326,599616690992920072,2.00
2025-12-25 16:02:48.460326,599616690992920072,2.00
2025-12-25 16:02:48.460326,599616690992920072,4.00
2025-12-25 16:02:48.460326,599616690992920072,-4.00
2025-12-25 16:02:48.460326,599616690992920072,-22.00
2025-12-25 16:02:48.460326,599616690992920072,-36.00
2025-12-25 16:02:48.460326,599616690992920072,-50.00
2025-12-25 16:02:48.460326,599616690992920072,-68.00
2025-12-25 16:02:48.460326,599616690992920072,-87.00
2025-12-25 16:02:48.460326,599616690992920072,-101.00
2025-12-25 16:02:48.460326,599616690992920072,-110.00
2025-12-25 16:02:48.460326,599616690992920072,-108.00
2025-12-25 16:02:48.460326,599616690992920072,-101.00
2025-12-25 16:02:48.460326,599616690992920072,-98.00
2025-12-25 16:02:48.460326,599616690992920072,-98.00
2025-12-25 16:02:48.460326,599616690992920072,-91.00
2025-12-25 16:02:48.460326,599616690992920072,-80.00
2025-12-25 16:02:48.460326,599616690992920072,-75.00
2025-12-25 16:02:48.460326,599616690992920072,-73.00
2025-12-25 16:02:48.460326,599616690992920072,-71.00
2025-12-25 16:02:48.460326,599616690992920072,-75.00
2025-12-25 16:02:48.460326,599616690992920072,-75.00
2025-12-25 16:02:48.460326,599616690992920072,-73.00
2025-12-25 16:02:48.460326,599616690992920072,-78.00
2025-12-25 16:02:48.460326,599616690992920072,-82.00
2025-12-25 16:02:48.460326,599616690992920072,-87.00
2025-12-25 16:02:48.460326,599616690992920072,-89.00
2025-12-25 16:02:48.460326,599616690992920072,-89.00
2025-12-25 16:02:48.460326,599616690992920072,-78.00
2025-12-25 16:02:48.460326,599616690992920072,-59.00
2025-12-25 16:02:48.460326,599616690992920072,-64.00
2025-12-25 16:02:48.460326,599616690992920072,-75.00
2025-12-25 16:02:48.460326,599616690992920072,-75.00
2025-12-25 16:02:48.460326,599616690992920072,-75.00
2025-12-25 16:02:48.460326,599616690992920072,-78.00
2025-12-25 16:02:48.460326,599616690992920072,-75.00
2025-12-25 16:02:48.460326,599616690992920072,-73.00
2025-12-25 16:02:48.460326,599616690992920072,-78.00
2025-12-25 16:02:49.012679,599616691553805309,-73.00
2025-12-25 16:02:49.012679,599616691553805309,-73.00
2025-12-25 16:02:49.012679,599616691553805309,-71.00
2025-12-25 16:02:49.012679,599616691553805309,-66.00
2025-12-25 16:02:49.012679,599616691553805309,-66.00
2025-12-25 16:02:49.012679,599616691553805309,-75.00
2025-12-25 16:02:49.012679,599616691553805309,-80.00
2025-12-25 16:02:49.012679,599616691553805309,-20.00
2025-12-25 16:02:49.012679,599616691553805309,156.00
2025-12-25 16:02:49.012679,599616691553805309,314.00
2025-12-25 16:02:49.012679,599616691553805309,131.00
2025-12-25 16:02:49.012679,599616691553805309,-282.00
2025-12-25 16:02:49.012679,599616691553805309,-395.00
2025-12-25 16:02:49.012679,599616691553805309,-236.00
2025-12-25 16:02:49.012679,599616691553805309,-149.00
2025-12-25 16:02:49.012679,599616691553805309,-108.00
2025-12-25 16:02:49.012679,599616691553805309,-45.00
2025-12-25 16:02:49.012679,599616691553805309,-39.00
2025-12-25 16:02:49.012679,599616691553805309,-55.00
2025-12-25 16:02:49.012679,599616691553805309,-39.00
2025-12-25 16:02:49.012679,599616691553805309,-27.00
2025-12-25 16:02:49.012679,599616691553805309,-34.00
2025-12-25 16:02:49.012679,599616691553805309,-34.00
2025-12-25 16:02:49.012679,599616691553805309,-32.00
2025-12-25 16:02:49.012679,599616691553805309,-36.00
2025-12-25 16:02:49.012679,599616691553805309,-36.00
2025-12-25 16:02:49.012679,599616691553805309,-36.00
2025-12-25 16:02:49.012679,599616691553805309,-36.00
2025-12-25 16:02:49.012679,599616691553805309,-29.00
2025-12-25 16:02:49.012679,599616691553805309,-25.00
2025-12-25 16:02:49.012679,599616691553805309,-25.00
2025-12-25 16:02:49.012679,599616691553805309,-18.00
2025-12-25 16:02:49.012679,599616691553805309,-11.00
2025-12-25 16:02:49.012679,599616691553805309,-16.00
2025-12-25 16:02:49.012679,599616691553805309,-13.00
2025-12-25 16:02:49.012679,599616691553805309,-13.00
2025-12-25 16:02:49.012679,599616691553805309,-20.00
2025-12-25 16:02:49.012679,599616691553805309,-20.00
2025-12-25 16:02:49.012679,599616691553805309,-27.00
2025-12-25 16:02:49.012679,599616691553805309,-36.00
2025-12-25 16:02:49.012679,599616691553805309,-43.00
2025-12-25 16:02:49.012679,599616691553805309,-57.00
2025-12-25 16:02:49.012679,599616691553805309,-80.00
2025-12-25 16:02:49.012679,599616691553805309,-94.00
2025-12-25 16:02:49.012679,599616691553805309,-98.00
2025-12-25 16:02:49.012679,599616691553805309,-110.00
2025-12-25 16:02:49.012679,599616691553805309,-119.00
2025-12-25 16:02:49.012679,599616691553805309,-121.00
2025-12-25 16:02:49.012679,599616691553805309,-124.00
2025-12-25 16:02:49.012679,599616691553805309,-124.00
2025-12-25 16:02:49.012679,599616691553805309,-124.00
2025-12-25 16:02:49.012679,599616691553805309,-124.00
2025-12-25 16:02:49.012679,599616691553805309,-119.00
2025-12-25 16:02:49.012679,599616691553805309,-119.00
2025-12-25 16:02:49.012679,599616691553805309,-124.00
2025-12-25 16:02:49.012679,599616691553805309,-124.00
2025-12-25 16:02:49.012679,599616691553805309,-119.00
2025-12-25 16:02:49.012679,599616691553805309,-117.00
2025-12-25 16:02:49.012679,599616691553805309,-121.00
2025-12-25 16:02:49.012679,599616691553805309,-119.00
2025-12-25 16:02:49.012679,599616691553805309,-112.00
2025-12-25 16:02:49.012679,599616691553805309,-117.00
2025-12-25 16:02:49.012679,599616691553805309,-128.00
2025-12-25 16:02:49.012679,599616691553805309,-124.00
2025-12-25 16:02:49.012679,599616691553805309,-110.00
2025-12-25 16:02:49.012679,599616691553805309,-101.00
2025-12-25 16:02:49.012679,599616691553805309,-98.00
2025-12-25 16:02:49.012679,599616691553805309,-108.00
2025-12-25 16:02:49.012679,599616691553805309,-126.00
2025-12-25 16:02:49.012679,599616691553805309,-131.00
2025-12-25 16:02:49.012679,599616691553805309,-128.00
2025-12-25 16:02:49.012679,599616691553805309,-128.00
2025-12-25 16:02:49.012679,599616691553805309,-128.00
2025-12-25 16:02:49.519143,599616692114690544,-121.00
2025-12-25 16:02:49.519143,599616692114690544,-117.00
2025-12-25 16:02:49.519143,599616692114690544,-114.00
2025-12-25 16:02:49.519143,599616692114690544,-114.00
2025-12-25 16:02:49.519143,599616692114690544,-110.00
2025-12-25 16:02:49.519143,599616692114690544,-108.00
2025-12-25 16:02:49.519143,599616692114690544,-112.00
2025-12-25 16:02:49.519143,599616692114690544,-112.00
2025-12-25 16:02:49.519143,599616692114690544,-78.00
2025-12-25 16:02:49.519143,599616692114690544,48.00
2025-12-25 16:02:49.519143,599616692114690544,250.00
2025-12-25 16:02:49.519143,599616692114690544,241.00
2025-12-25 16:02:49.519143,599616692114690544,-149.00
2025-12-25 16:02:49.519143,599616692114690544,-446.00
2025-12-25 16:02:49.519143,599616692114690544,-340.00
2025-12-25 16:02:49.519143,599616692114690544,-202.00
2025-12-25 16:02:49.519143,599616692114690544,-177.00
2025-12-25 16:02:49.519143,599616692114690544,-114.00
2025-12-25 16:02:49.519143,599616692114690544,-73.00
2025-12-25 16:02:49.519143,599616692114690544,-89.00
2025-12-25 16:02:49.519143,599616692114690544,-75.00
2025-12-25 16:02:49.519143,599616692114690544,-48.00
2025-12-25 16:02:49.519143,599616692114690544,-57.00
2025-12-25 16:02:49.519143,599616692114690544,-66.00
2025-12-25 16:02:49.519143,599616692114690544,-57.00
2025-12-25 16:02:49.519143,599616692114690544,-55.00
2025-12-25 16:02:49.519143,599616692114690544,-50.00
2025-12-25 16:02:49.519143,599616692114690544,-52.00
2025-12-25 16:02:49.519143,599616692114690544,-57.00
2025-12-25 16:02:49.519143,599616692114690544,-50.00
2025-12-25 16:02:49.519143,599616692114690544,-39.00
2025-12-25 16:02:49.519143,599616692114690544,-43.00
2025-12-25 16:02:49.519143,599616692114690544,-48.00
2025-12-25 16:02:49.519143,599616692114690544,-43.00
2025-12-25 16:02:49.519143,599616692114690544,-36.00
2025-12-25 16:02:49.519143,599616692114690544,-32.00
2025-12-25 16:02:49.519143,599616692114690544,-22.00
2025-12-25 16:02:49.519143,599616692114690544,-18.00
2025-12-25 16:02:49.519143,599616692114690544,-32.00
2025-12-25 16:02:49.519143,599616692114690544,-34.00
2025-12-25 16:02:49.519143,599616692114690544,-34.00
2025-12-25 16:02:49.519143,599616692114690544,-48.00
2025-12-25 16:02:49.519143,599616692114690544,-71.00
2025-12-25 16:02:49.519143,599616692114690544,-87.00
2025-12-25 16:02:49.519143,599616692114690544,-101.00
2025-12-25 16:02:49.519143,599616692114690544,-112.00
2025-12-25 16:02:49.519143,599616692114690544,-121.00
2025-12-25 16:02:49.519143,599616692114690544,-137.00
2025-12-25 16:02:49.519143,599616692114690544,-154.00
2025-12-25 16:02:49.519143,599616692114690544,-156.00
2025-12-25 16:02:49.519143,599616692114690544,-147.00
2025-12-25 16:02:49.519143,599616692114690544,-142.00
2025-12-25 16:02:49.519143,599616692114690544,-140.00
2025-12-25 16:02:49.519143,599616692114690544,-140.00
2025-12-25 16:02:49.519143,599616692114690544,-144.00
2025-12-25 16:02:49.519143,599616692114690544,-133.00
2025-12-25 16:02:49.519143,599616692114690544,-124.00
2025-12-25 16:02:49.519143,599616692114690544,-133.00
2025-12-25 16:02:49.519143,599616692114690544,-135.00
2025-12-25 16:02:49.519143,599616692114690544,-128.00
2025-12-25 16:02:49.519143,599616692114690544,-131.00
2025-12-25 16:02:49.519143,599616692114690544,-135.00
2025-12-25 16:02:49.519143,599616692114690544,-135.00
2025-12-25 16:02:49.519143,599616692114690544,-133.00
2025-12-25 16:02:49.519143,599616692114690544,-135.00
2025-12-25 16:02:49.519143,599616692114690544,-135.00
2025-12-25 16:02:49.519143,599616692114690544,-128.00
2025-12-25 16:02:49.519143,599616692114690544,-117.00
2025-12-25 16:02:49.519143,599616692114690544,-108.00
2025-12-25 16:02:49.519143,599616692114690544,-103.00
2025-12-25 16:02:49.519143,599616692114690544,-114.00
2025-12-25 16:02:49.519143,599616692114690544,-126.00
2025-12-25 16:02:49.519143,599616692114690544,-128.00
2025-12-25 16:02:50.160569,599616692675560521,-124.00
2025-12-25 16:02:50.160569,599616692675560521,-124.00
2025-12-25 16:02:50.160569,599616692675560521,-124.00
2025-12-25 16:02:50.160569,599616692675560521,-124.00
2025-12-25 16:02:50.160569,599616692675560521,-124.00
2025-12-25 16:02:50.160569,599616692675560521,-121.00
2025-12-25 16:02:50.160569,599616692675560521,-119.00
2025-12-25 16:02:50.160569,599616692675560521,-112.00
2025-12-25 16:02:50.160569,599616692675560521,-98.00
2025-12-25 16:02:50.160569,599616692675560521,-91.00
2025-12-25 16:02:50.160569,599616692675560521,-73.00
2025-12-25 16:02:50.160569,599616692675560521,45.00
2025-12-25 16:02:50.160569,599616692675560521,255.00
2025-12-25 16:02:50.160569,599616692675560521,250.00
2025-12-25 16:02:50.160569,599616692675560521,-121.00
2025-12-25 16:02:50.160569,599616692675560521,-418.00
2025-12-25 16:02:50.160569,599616692675560521,-340.00
2025-12-25 16:02:50.160569,599616692675560521,-202.00
2025-12-25 16:02:50.160569,599616692675560521,-167.00
2025-12-25 16:02:50.160569,599616692675560521,-105.00
2025-12-25 16:02:50.160569,599616692675560521,-59.00
2025-12-25 16:02:50.160569,599616692675560521,-73.00
2025-12-25 16:02:50.160569,599616692675560521,-78.00
2025-12-25 16:02:50.160569,599616692675560521,-59.00
2025-12-25 16:02:50.160569,599616692675560521,-62.00
2025-12-25 16:02:50.160569,599616692675560521,-66.00
2025-12-25 16:02:50.160569,599616692675560521,-55.00
2025-12-25 16:02:50.160569,599616692675560521,-50.00
2025-12-25 16:02:50.160569,599616692675560521,-55.00
2025-12-25 16:02:50.160569,599616692675560521,-48.00
2025-12-25 16:02:50.160569,599616692675560521,-36.00
2025-12-25 16:02:50.160569,599616692675560521,-29.00
2025-12-25 16:02:50.160569,599616692675560521,-25.00
2025-12-25 16:02:50.160569,599616692675560521,-25.00
2025-12-25 16:02:50.160569,599616692675560521,-29.00
2025-12-25 16:02:50.160569,599616692675560521,-25.00
2025-12-25 16:02:50.160569,599616692675560521,-20.00
2025-12-25 16:02:50.160569,599616692675560521,-20.00
2025-12-25 16:02:50.160569,599616692675560521,-13.00
2025-12-25 16:02:50.160569,599616692675560521,-11.00
2025-12-25 16:02:50.160569,599616692675560521,-25.00
2025-12-25 16:02:50.160569,599616692675560521,-39.00
2025-12-25 16:02:50.160569,599616692675560521,-32.00
2025-12-25 16:02:50.160569,599616692675560521,-27.00
2025-12-25 16:02:50.160569,599616692675560521,-45.00
2025-12-25 16:02:50.160569,599616692675560521,-71.00
2025-12-25 16:02:50.160569,599616692675560521,-87.00
2025-12-25 16:02:50.160569,599616692675560521,-105.00
2025-12-25 16:02:50.160569,599616692675560521,-121.00
2025-12-25 16:02:50.160569,599616692675560521,-126.00
2025-12-25 16:02:50.160569,599616692675560521,-128.00
2025-12-25 16:02:50.160569,599616692675560521,-133.00
2025-12-25 16:02:50.160569,599616692675560521,-140.00
2025-12-25 16:02:50.160569,599616692675560521,-137.00
2025-12-25 16:02:50.160569,599616692675560521,-131.00
2025-12-25 16:02:50.160569,599616692675560521,-135.00
2025-12-25 16:02:50.160569,599616692675560521,-142.00
2025-12-25 16:02:50.160569,599616692675560521,-140.00
2025-12-25 16:02:50.160569,599616692675560521,-131.00
2025-12-25 16:02:50.160569,599616692675560521,-126.00
2025-12-25 16:02:50.160569,599616692675560521,-126.00
2025-12-25 16:02:50.160569,599616692675560521,-124.00
2025-12-25 16:02:50.160569,599616692675560521,-126.00
2025-12-25 16:02:50.160569,599616692675560521,-131.00
2025-12-25 16:02:50.160569,599616692675560521,-133.00
2025-12-25 16:02:50.160569,599616692675560521,-133.00
2025-12-25 16:02:50.160569,599616692675560521,-135.00
2025-12-25 16:02:50.160569,599616692675560521,-137.00
2025-12-25 16:02:50.160569,599616692675560521,-135.00
2025-12-25 16:02:50.160569,599616692675560521,-131.00
2025-12-25 16:02:50.160569,599616692675560521,-121.00
2025-12-25 16:02:50.160569,599616692675560521,-108.00
2025-12-25 16:02:50.160569,599616692675560521,-103.00
2025-12-25 16:02:50.881699,599616693236440670,-117.00
2025-12-25 16:02:50.881699,599616693236440670,-126.00
2025-12-25 16:02:50.881699,599616693236440670,-121.00
2025-12-25 16:02:50.881699,599616693236440670,-121.00
2025-12-25 16:02:50.881699,599616693236440670,-124.00
2025-12-25 16:02:50.881699,599616693236440670,-119.00
2025-12-25 16:02:50.881699,599616693236440670,-114.00
2025-12-25 16:02:50.881699,599616693236440670,-117.00
2025-12-25 16:02:50.881699,599616693236440670,-119.00
2025-12-25 16:02:50.881699,599616693236440670,-117.00
2025-12-25 16:02:50.881699,599616693236440670,-114.00
2025-12-25 16:02:50.881699,599616693236440670,-105.00
2025-12-25 16:02:50.881699,599616693236440670,-94.00
2025-12-25 16:02:50.881699,599616693236440670,-91.00
2025-12-25 16:02:50.881699,599616693236440670,-25.00
2025-12-25 16:02:50.881699,599616693236440670,165.00
2025-12-25 16:02:50.881699,599616693236440670,285.00
2025-12-25 16:02:50.881699,599616693236440670,36.00
2025-12-25 16:02:50.881699,599616693236440670,-342.00
2025-12-25 16:02:50.881699,599616693236440670,-388.00
2025-12-25 16:02:50.881699,599616693236440670,-239.00
2025-12-25 16:02:50.881699,599616693236440670,-165.00
2025-12-25 16:02:50.881699,599616693236440670,-101.00
2025-12-25 16:02:50.881699,599616693236440670,-48.00
2025-12-25 16:02:50.881699,599616693236440670,-50.00
2025-12-25 16:02:50.881699,599616693236440670,-59.00
2025-12-25 16:02:50.881699,599616693236440670,-48.00
2025-12-25 16:02:50.881699,599616693236440670,-43.00
2025-12-25 16:02:50.881699,599616693236440670,-48.00
2025-12-25 16:02:50.881699,599616693236440670,-50.00
2025-12-25 16:02:50.881699,599616693236440670,-43.00
2025-12-25 16:02:50.881699,599616693236440670,-41.00
2025-12-25 16:02:50.881699,599616693236440670,-39.00
2025-12-25 16:02:50.881699,599616693236440670,-32.00
2025-12-25 16:02:50.881699,599616693236440670,-29.00
2025-12-25 16:02:50.881699,599616693236440670,-25.00
2025-12-25 16:02:50.881699,599616693236440670,-25.00
2025-12-25 16:02:50.881699,599616693236440670,-29.00
2025-12-25 16:02:50.881699,599616693236440670,-25.00
2025-12-25 16:02:50.881699,599616693236440670,-20.00
2025-12-25 16:02:50.881699,599616693236440670,-22.00
2025-12-25 16:02:50.881699,599616693236440670,-18.00
2025-12-25 16:02:50.881699,599616693236440670,-11.00
2025-12-25 16:02:50.881699,599616693236440670,-22.00
2025-12-25 16:02:50.881699,599616693236440670,-34.00
2025-12-25 16:02:50.881699,599616693236440670,-39.00
2025-12-25 16:02:50.881699,599616693236440670,-39.00
2025-12-25 16:02:50.881699,599616693236440670,-45.00
2025-12-25 16:02:50.881699,599616693236440670,-64.00
2025-12-25 16:02:50.881699,599616693236440670,-85.00
2025-12-25 16:02:50.881699,599616693236440670,-101.00
2025-12-25 16:02:50.881699,599616693236440670,-117.00
2025-12-25 16:02:50.881699,599616693236440670,-131.00
2025-12-25 16:02:50.881699,599616693236440670,-137.00
2025-12-25 16:02:50.881699,599616693236440670,-144.00
2025-12-25 16:02:50.881699,599616693236440670,-149.00
2025-12-25 16:02:50.881699,599616693236440670,-151.00
2025-12-25 16:02:50.881699,599616693236440670,-147.00
2025-12-25 16:02:50.881699,599616693236440670,-137.00
2025-12-25 16:02:50.881699,599616693236440670,-135.00
2025-12-25 16:02:50.881699,599616693236440670,-140.00
2025-12-25 16:02:50.881699,599616693236440670,-142.00
2025-12-25 16:02:50.881699,599616693236440670,-142.00
2025-12-25 16:02:50.881699,599616693236440670,-142.00
2025-12-25 16:02:50.881699,599616693236440670,-144.00
2025-12-25 16:02:50.881699,599616693236440670,-142.00
2025-12-25 16:02:50.881699,599616693236440670,-137.00
2025-12-25 16:02:50.881699,599616693236440670,-135.00
2025-12-25 16:02:50.881699,599616693236440670,-137.00
2025-12-25 16:02:50.881699,599616693236440670,-137.00
2025-12-25 16:02:50.881699,599616693236440670,-140.00
2025-12-25 16:02:50.881699,599616693236440670,-149.00
2025-12-25 16:02:50.881699,599616693236440670,-147.00
2025-12-25 16:02:51.342563,599616693797320819,-140.00
2025-12-25 16:02:51.342563,599616693797320819,-133.00
2025-12-25 16:02:51.342563,599616693797320819,-126.00
2025-12-25 16:02:51.342563,599616693797320819,-112.00
2025-12-25 16:02:51.342563,599616693797320819,-112.00
2025-12-25 16:02:51.342563,599616693797320819,-135.00
2025-12-25 16:02:51.342563,599616693797320819,-147.00
2025-12-25 16:02:51.342563,599616693797320819,-137.00
2025-12-25 16:02:51.342563,599616693797320819,-131.00
2025-12-25 16:02:51.342563,599616693797320819,-124.00
2025-12-25 16:02:51.342563,599616693797320819,-119.00
2025-12-25 16:02:51.342563,599616693797320819,-119.00
2025-12-25 16:02:51.342563,599616693797320819,-117.00
2025-12-25 16:02:51.342563,599616693797320819,-121.00
2025-12-25 16:02:51.342563,599616693797320819,-121.00
2025-12-25 16:02:51.342563,599616693797320819,-112.00
2025-12-25 16:02:51.342563,599616693797320819,-110.00
2025-12-25 16:02:51.342563,599616693797320819,-117.00
2025-12-25 16:02:51.342563,599616693797320819,-87.00
2025-12-25 16:02:51.342563,599616693797320819,52.00
2025-12-25 16:02:51.342563,599616693797320819,245.00
2025-12-25 16:02:51.342563,599616693797320819,179.00
2025-12-25 16:02:51.342563,599616693797320819,-216.00
2025-12-25 16:02:51.342563,599616693797320819,-436.00
2025-12-25 16:02:51.342563,599616693797320819,-314.00
2025-12-25 16:02:51.342563,599616693797320819,-200.00
2025-12-25 16:02:51.342563,599616693797320819,-147.00
2025-12-25 16:02:51.342563,599616693797320819,-73.00
2025-12-25 16:02:51.342563,599616693797320819,-50.00
2025-12-25 16:02:51.342563,599616693797320819,-64.00
2025-12-25 16:02:51.342563,599616693797320819,-45.00
2025-12-25 16:02:51.342563,599616693797320819,-29.00
2025-12-25 16:02:51.342563,599616693797320819,-34.00
2025-12-25 16:02:51.342563,599616693797320819,-27.00
2025-12-25 16:02:51.342563,599616693797320819,-18.00
2025-12-25 16:02:51.342563,599616693797320819,-25.00
2025-12-25 16:02:51.342563,599616693797320819,-32.00
2025-12-25 16:02:51.342563,599616693797320819,-22.00
2025-12-25 16:02:51.342563,599616693797320819,-6.00
2025-12-25 16:02:51.342563,599616693797320819,-4.00
2025-12-25 16:02:51.342563,599616693797320819,-9.00
2025-12-25 16:02:51.342563,599616693797320819,-4.00
2025-12-25 16:02:51.342563,599616693797320819,-2.00
2025-12-25 16:02:51.342563,599616693797320819,-4.00
2025-12-25 16:02:51.342563,599616693797320819,0.00
2025-12-25 16:02:51.342563,599616693797320819,4.00
2025-12-25 16:02:51.342563,599616693797320819,-2.00
2025-12-25 16:02:51.342563,599616693797320819,-11.00
2025-12-25 16:02:51.342563,599616693797320819,-11.00
2025-12-25 16:02:51.342563,599616693797320819,-9.00
2025-12-25 16:02:51.342563,599616693797320819,-16.00
2025-12-25 16:02:51.342563,599616693797320819,-32.00
2025-12-25 16:02:51.342563,599616693797320819,-41.00
2025-12-25 16:02:51.342563,599616693797320819,-50.00
2025-12-25 16:02:51.342563,599616693797320819,-73.00
2025-12-25 16:02:51.342563,599616693797320819,-96.00
2025-12-25 16:02:51.342563,599616693797320819,-105.00
2025-12-25 16:02:51.342563,599616693797320819,-117.00
2025-12-25 16:02:51.342563,599616693797320819,-126.00
2025-12-25 16:02:51.342563,599616693797320819,-126.00
2025-12-25 16:02:51.342563,599616693797320819,-126.00
2025-12-25 16:02:51.342563,599616693797320819,-128.00
2025-12-25 16:02:51.342563,599616693797320819,-126.00
2025-12-25 16:02:51.342563,599616693797320819,-121.00
2025-12-25 16:02:51.342563,599616693797320819,-128.00
2025-12-25 16:02:51.342563,599616693797320819,-137.00
2025-12-25 16:02:51.342563,599616693797320819,-133.00
2025-12-25 16:02:51.342563,599616693797320819,-121.00
2025-12-25 16:02:51.342563,599616693797320819,-124.00
2025-12-25 16:02:51.342563,599616693797320819,-126.00
2025-12-25 16:02:51.342563,599616693797320819,-131.00
2025-12-25 16:02:51.342563,599616693797320819,-137.00
2025-12-25 16:02:51.342563,599616693797320819,-137.00
2025-12-25 16:02:51.829413,599616694358231484,-133.00
2025-12-25 16:02:51.829413,599616694358231484,-133.00
2025-12-25 16:02:51.829413,599616694358231484,-133.00
2025-12-25 16:02:51.829413,599616694358231484,-137.00
2025-12-25 16:02:51.829413,599616694358231484,-142.00
2025-12-25 16:02:51.829413,599616694358231484,-137.00
2025-12-25 16:02:51.829413,599616694358231484,-126.00
2025-12-25 16:02:51.829413,599616694358231484,-117.00
2025-12-25 16:02:51.829413,599616694358231484,-105.00
2025-12-25 16:02:51.829413,599616694358231484,-98.00
2025-12-25 16:02:51.829413,599616694358231484,-114.00
2025-12-25 16:02:51.829413,599616694358231484,-128.00
2025-12-25 16:02:51.829413,599616694358231484,-119.00
2025-12-25 16:02:51.829413,599616694358231484,-117.00
2025-12-25 16:02:51.829413,599616694358231484,-126.00
2025-12-25 16:02:51.829413,599616694358231484,-121.00
2025-12-25 16:02:51.829413,599616694358231484,-112.00
2025-12-25 16:02:51.829413,599616694358231484,-103.00
2025-12-25 16:02:51.829413,599616694358231484,-96.00
2025-12-25 16:02:51.829413,599616694358231484,-103.00
2025-12-25 16:02:51.829413,599616694358231484,-101.00
2025-12-25 16:02:51.829413,599616694358231484,-85.00
2025-12-25 16:02:51.829413,599616694358231484,-87.00
2025-12-25 16:02:51.829413,599616694358231484,-87.00
2025-12-25 16:02:51.829413,599616694358231484,-27.00
2025-12-25 16:02:51.829413,599616694358231484,128.00
2025-12-25 16:02:51.829413,599616694358231484,262.00
2025-12-25 16:02:51.829413,599616694358231484,87.00
2025-12-25 16:02:51.829413,599616694358231484,-308.00
2025-12-25 16:02:51.829413,599616694358231484,-427.00
2025-12-25 16:02:51.829413,599616694358231484,-285.00
2025-12-25 16:02:51.829413,599616694358231484,-204.00
2025-12-25 16:02:51.829413,599616694358231484,-154.00
2025-12-25 16:02:51.829413,599616694358231484,-75.00
2025-12-25 16:02:51.829413,599616694358231484,-57.00
2025-12-25 16:02:51.829413,599616694358231484,-73.00
2025-12-25 16:02:51.829413,599616694358231484,-66.00
2025-12-25 16:02:51.829413,599616694358231484,-62.00
2025-12-25 16:02:51.829413,599616694358231484,-71.00
2025-12-25 16:02:51.829413,599616694358231484,-73.00
2025-12-25 16:02:51.829413,599616694358231484,-68.00
2025-12-25 16:02:51.829413,599616694358231484,-64.00
2025-12-25 16:02:51.829413,599616694358231484,-62.00
2025-12-25 16:02:51.829413,599616694358231484,-62.00
2025-12-25 16:02:51.829413,599616694358231484,-57.00
2025-12-25 16:02:51.829413,599616694358231484,-57.00
2025-12-25 16:02:51.829413,599616694358231484,-64.00
2025-12-25 16:02:51.829413,599616694358231484,-62.00
2025-12-25 16:02:51.829413,599616694358231484,-52.00
2025-12-25 16:02:51.829413,599616694358231484,-52.00
2025-12-25 16:02:51.829413,599616694358231484,-55.00
2025-12-25 16:02:51.829413,599616694358231484,-57.00
2025-12-25 16:02:51.829413,599616694358231484,-57.00
2025-12-25 16:02:51.829413,599616694358231484,-55.00
2025-12-25 16:02:51.829413,599616694358231484,-59.00
2025-12-25 16:02:51.829413,599616694358231484,-68.00
2025-12-25 16:02:51.829413,599616694358231484,-75.00
2025-12-25 16:02:51.829413,599616694358231484,-82.00
2025-12-25 16:02:51.829413,599616694358231484,-89.00
2025-12-25 16:02:51.829413,599616694358231484,-101.00
2025-12-25 16:02:51.829413,599616694358231484,-119.00
2025-12-25 16:02:51.829413,599616694358231484,-133.00
2025-12-25 16:02:51.829413,599616694358231484,-151.00
2025-12-25 16:02:51.829413,599616694358231484,-170.00
2025-12-25 16:02:51.829413,599616694358231484,-170.00
2025-12-25 16:02:51.829413,599616694358231484,-158.00
2025-12-25 16:02:51.829413,599616694358231484,-158.00
2025-12-25 16:02:51.829413,599616694358231484,-165.00
2025-12-25 16:02:51.829413,599616694358231484,-167.00
2025-12-25 16:02:51.829413,599616694358231484,-163.00
2025-12-25 16:02:51.829413,599616694358231484,-156.00
2025-12-25 16:02:51.829413,599616694358231484,-147.00
2025-12-25 16:02:51.829413,599616694358231484,-142.00
2025-12-25 16:02:52.414107,599616694919111637,-140.00
2025-12-25 16:02:52.414107,599616694919111637,-140.00
2025-12-25 16:02:52.414107,599616694919111637,-137.00
2025-12-25 16:02:52.414107,599616694919111637,-128.00
2025-12-25 16:02:52.414107,599616694919111637,-119.00
2025-12-25 16:02:52.414107,599616694919111637,-124.00
2025-12-25 16:02:52.414107,599616694919111637,-119.00
2025-12-25 16:02:52.414107,599616694919111637,-105.00
2025-12-25 16:02:52.414107,599616694919111637,-114.00
2025-12-25 16:02:52.414107,599616694919111637,-117.00
2025-12-25 16:02:52.414107,599616694919111637,-103.00
2025-12-25 16:02:52.414107,599616694919111637,-98.00
2025-12-25 16:02:52.414107,599616694919111637,-105.00
2025-12-25 16:02:52.414107,599616694919111637,-98.00
2025-12-25 16:02:52.414107,599616694919111637,-80.00
2025-12-25 16:02:52.414107,599616694919111637,-78.00
2025-12-25 16:02:52.414107,599616694919111637,-94.00
2025-12-25 16:02:52.414107,599616694919111637,-110.00
2025-12-25 16:02:52.414107,599616694919111637,-112.00
2025-12-25 16:02:52.414107,599616694919111637,-114.00
2025-12-25 16:02:52.414107,599616694919111637,-119.00
2025-12-25 16:02:52.414107,599616694919111637,-110.00
2025-12-25 16:02:52.414107,599616694919111637,-105.00
2025-12-25 16:02:52.414107,599616694919111637,-105.00
2025-12-25 16:02:52.414107,599616694919111637,-98.00
2025-12-25 16:02:52.414107,599616694919111637,-96.00
2025-12-25 16:02:52.414107,599616694919111637,-98.00
2025-12-25 16:02:52.414107,599616694919111637,-101.00
2025-12-25 16:02:52.414107,599616694919111637,-101.00
2025-12-25 16:02:52.414107,599616694919111637,-96.00
2025-12-25 16:02:52.414107,599616694919111637,-27.00
2025-12-25 16:02:52.414107,599616694919111637,144.00
2025-12-25 16:02:52.414107,599616694919111637,223.00
2025-12-25 16:02:52.414107,599616694919111637,-57.00
2025-12-25 16:02:52.414107,599616694919111637,-393.00
2025-12-25 16:02:52.414107,599616694919111637,-379.00
2025-12-25 16:02:52.414107,599616694919111637,-248.00
2025-12-25 16:02:52.414107,599616694919111637,-206.00
2025-12-25 16:02:52.414107,599616694919111637,-131.00
2025-12-25 16:02:52.414107,599616694919111637,-57.00
2025-12-25 16:02:52.414107,599616694919111637,-64.00
2025-12-25 16:02:52.414107,599616694919111637,-75.00
2025-12-25 16:02:52.414107,599616694919111637,-62.00
2025-12-25 16:02:52.414107,599616694919111637,-59.00
2025-12-25 16:02:52.414107,599616694919111637,-52.00
2025-12-25 16:02:52.414107,599616694919111637,-43.00
2025-12-25 16:02:52.414107,599616694919111637,-50.00
2025-12-25 16:02:52.414107,599616694919111637,-57.00
2025-12-25 16:02:52.414107,599616694919111637,-50.00
2025-12-25 16:02:52.414107,599616694919111637,-45.00
2025-12-25 16:02:52.414107,599616694919111637,-43.00
2025-12-25 16:02:52.414107,599616694919111637,-39.00
2025-12-25 16:02:52.414107,599616694919111637,-34.00
2025-12-25 16:02:52.414107,599616694919111637,-34.00
2025-12-25 16:02:52.414107,599616694919111637,-39.00
2025-12-25 16:02:52.414107,599616694919111637,-34.00
2025-12-25 16:02:52.414107,599616694919111637,-20.00
2025-12-25 16:02:52.414107,599616694919111637,-20.00
2025-12-25 16:02:52.414107,599616694919111637,-29.00
2025-12-25 16:02:52.414107,599616694919111637,-32.00
2025-12-25 16:02:52.414107,599616694919111637,-29.00
2025-12-25 16:02:52.414107,599616694919111637,-32.00
2025-12-25 16:02:52.414107,599616694919111637,-41.00
2025-12-25 16:02:52.414107,599616694919111637,-48.00
2025-12-25 16:02:52.414107,599616694919111637,-55.00
2025-12-25 16:02:52.414107,599616694919111637,-62.00
2025-12-25 16:02:52.414107,599616694919111637,-75.00
2025-12-25 16:02:52.414107,599616694919111637,-94.00
2025-12-25 16:02:52.414107,599616694919111637,-105.00
2025-12-25 16:02:52.414107,599616694919111637,-110.00
2025-12-25 16:02:52.414107,599616694919111637,-117.00
2025-12-25 16:02:52.414107,599616694919111637,-114.00
2025-12-25 16:02:52.414107,599616694919111637,-105.00
2025-12-25 16:02:52.971846,599616695479991786,-110.00
2025-12-25 16:02:52.971846,599616695479991786,-114.00
2025-12-25 16:02:52.971846,599616695479991786,-110.00
2025-12-25 16:02:52.971846,599616695479991786,-103.00
2025-12-25 16:02:52.971846,599616695479991786,-103.00
2025-12-25 16:02:52.971846,599616695479991786,-103.00
2025-12-25 16:02:52.971846,599616695479991786,-101.00
2025-12-25 16:02:52.971846,599616695479991786,-96.00
2025-12-25 16:02:52.971846,599616695479991786,-96.00
2025-12-25 16:02:52.971846,599616695479991786,-98.00
2025-12-25 16:02:52.971846,599616695479991786,-103.00
2025-12-25 16:02:52.971846,599616695479991786,-103.00
2025-12-25 16:02:52.971846,599616695479991786,-94.00
2025-12-25 16:02:52.971846,599616695479991786,-80.00
2025-12-25 16:02:52.971846,599616695479991786,-85.00
2025-12-25 16:02:52.971846,599616695479991786,-98.00
2025-12-25 16:02:52.971846,599616695479991786,-96.00
2025-12-25 16:02:52.971846,599616695479991786,-87.00
2025-12-25 16:02:52.971846,599616695479991786,-73.00
2025-12-25 16:02:52.971846,599616695479991786,-57.00
2025-12-25 16:02:52.971846,599616695479991786,-50.00
2025-12-25 16:02:52.971846,599616695479991786,-50.00
2025-12-25 16:02:52.971846,599616695479991786,-59.00
2025-12-25 16:02:52.971846,599616695479991786,-71.00
2025-12-25 16:02:52.971846,599616695479991786,-71.00
2025-12-25 16:02:52.971846,599616695479991786,-68.00
2025-12-25 16:02:52.971846,599616695479991786,-73.00
2025-12-25 16:02:52.971846,599616695479991786,-73.00
2025-12-25 16:02:52.971846,599616695479991786,-66.00
2025-12-25 16:02:52.971846,599616695479991786,-62.00
2025-12-25 16:02:52.971846,599616695479991786,-66.00
2025-12-25 16:02:52.971846,599616695479991786,-71.00
2025-12-25 16:02:52.971846,599616695479991786,-62.00
2025-12-25 16:02:52.971846,599616695479991786,-59.00
2025-12-25 16:02:52.971846,599616695479991786,-71.00
2025-12-25 16:02:52.971846,599616695479991786,-43.00
2025-12-25 16:02:52.971846,599616695479991786,87.00
2025-12-25 16:02:52.971846,599616695479991786,243.00
2025-12-25 16:02:52.971846,599616695479991786,128.00
2025-12-25 16:02:52.971846,599616695479991786,-243.00
2025-12-25 16:02:52.971846,599616695479991786,-395.00
2025-12-25 16:02:52.971846,599616695479991786,-268.00
2025-12-25 16:02:52.971846,599616695479991786,-188.00
2025-12-25 16:02:52.971846,599616695479991786,-147.00
2025-12-25 16:02:52.971846,599616695479991786,-71.00
2025-12-25 16:02:52.971846,599616695479991786,-50.00
2025-12-25 16:02:52.971846,599616695479991786,-71.00
2025-12-25 16:02:52.971846,599616695479991786,-59.00
2025-12-25 16:02:52.971846,599616695479991786,-43.00
2025-12-25 16:02:52.971846,599616695479991786,-45.00
2025-12-25 16:02:52.971846,599616695479991786,-43.00
2025-12-25 16:02:52.971846,599616695479991786,-39.00
2025-12-25 16:02:52.971846,599616695479991786,-43.00
2025-12-25 16:02:52.971846,599616695479991786,-41.00
2025-12-25 16:02:52.971846,599616695479991786,-32.00
2025-12-25 16:02:52.971846,599616695479991786,-32.00
2025-12-25 16:02:52.971846,599616695479991786,-29.00
2025-12-25 16:02:52.971846,599616695479991786,-22.00
2025-12-25 16:02:52.971846,599616695479991786,-18.00
2025-12-25 16:02:52.971846,599616695479991786,-16.00
2025-12-25 16:02:52.971846,599616695479991786,-13.00
2025-12-25 16:02:52.971846,599616695479991786,-16.00
2025-12-25 16:02:52.971846,599616695479991786,-13.00
2025-12-25 16:02:52.971846,599616695479991786,-6.00
2025-12-25 16:02:52.971846,599616695479991786,-6.00
2025-12-25 16:02:52.971846,599616695479991786,-13.00
2025-12-25 16:02:52.971846,599616695479991786,-18.00
2025-12-25 16:02:52.971846,599616695479991786,-27.00
2025-12-25 16:02:52.971846,599616695479991786,-34.00
2025-12-25 16:02:52.971846,599616695479991786,-39.00
2025-12-25 16:02:52.971846,599616695479991786,-50.00
2025-12-25 16:02:52.971846,599616695479991786,-71.00
2025-12-25 16:02:52.971846,599616695479991786,-89.00
2025-12-25 16:02:53.607896,599616696040871935,-103.00
2025-12-25 16:02:53.607896,599616696040871935,-112.00
2025-12-25 16:02:53.607896,599616696040871935,-124.00
2025-12-25 16:02:53.607896,599616696040871935,-131.00
2025-12-25 16:02:53.607896,599616696040871935,-128.00
2025-12-25 16:02:53.607896,599616696040871935,-128.00
2025-12-25 16:02:53.607896,599616696040871935,-128.00
2025-12-25 16:02:53.607896,599616696040871935,-117.00
2025-12-25 16:02:53.607896,599616696040871935,-112.00
2025-12-25 16:02:53.607896,599616696040871935,-112.00
2025-12-25 16:02:53.607896,599616696040871935,-103.00
2025-12-25 16:02:53.607896,599616696040871935,-103.00
2025-12-25 16:02:53.607896,599616696040871935,-110.00
2025-12-25 16:02:53.607896,599616696040871935,-110.00
2025-12-25 16:02:53.607896,599616696040871935,-105.00
2025-12-25 16:02:53.607896,599616696040871935,-98.00
2025-12-25 16:02:53.607896,599616696040871935,-94.00
2025-12-25 16:02:53.607896,599616696040871935,-96.00
2025-12-25 16:02:53.607896,599616696040871935,-101.00
2025-12-25 16:02:53.607896,599616696040871935,-101.00
2025-12-25 16:02:53.607896,599616696040871935,-103.00
2025-12-25 16:02:53.607896,599616696040871935,-98.00
2025-12-25 16:02:53.607896,599616696040871935,-98.00
2025-12-25 16:02:53.607896,599616696040871935,-105.00
2025-12-25 16:02:53.607896,599616696040871935,-101.00
2025-12-25 16:02:53.607896,599616696040871935,-85.00
2025-12-25 16:02:53.607896,599616696040871935,-73.00
2025-12-25 16:02:53.607896,599616696040871935,-75.00
2025-12-25 16:02:53.607896,599616696040871935,-91.00
2025-12-25 16:02:53.607896,599616696040871935,-105.00
2025-12-25 16:02:53.607896,599616696040871935,-103.00
2025-12-25 16:02:53.607896,599616696040871935,-98.00
2025-12-25 16:02:53.607896,599616696040871935,-103.00
2025-12-25 16:02:53.607896,599616696040871935,-98.00
2025-12-25 16:02:53.607896,599616696040871935,-91.00
2025-12-25 16:02:53.607896,599616696040871935,-96.00
2025-12-25 16:02:53.607896,599616696040871935,-103.00
2025-12-25 16:02:53.607896,599616696040871935,-96.00
2025-12-25 16:02:53.607896,599616696040871935,-96.00
2025-12-25 16:02:53.607896,599616696040871935,-103.00
2025-12-25 16:02:53.607896,599616696040871935,-96.00
2025-12-25 16:02:53.607896,599616696040871935,-39.00
2025-12-25 16:02:53.607896,599616696040871935,114.00
2025-12-25 16:02:53.607896,599616696040871935,232.00
2025-12-25 16:02:53.607896,599616696040871935,6.00
2025-12-25 16:02:53.607896,599616696040871935,-367.00
2025-12-25 16:02:53.607896,599616696040871935,-413.00
2025-12-25 16:02:53.607896,599616696040871935,-271.00
2025-12-25 16:02:53.607896,599616696040871935,-225.00
2025-12-25 16:02:53.607896,599616696040871935,-163.00
2025-12-25 16:02:53.607896,599616696040871935,-75.00
2025-12-25 16:02:53.607896,599616696040871935,-66.00
2025-12-25 16:02:53.607896,599616696040871935,-85.00
2025-12-25 16:02:53.607896,599616696040871935,-68.00
2025-12-25 16:02:53.607896,599616696040871935,-57.00
2025-12-25 16:02:53.607896,599616696040871935,-59.00
2025-12-25 16:02:53.607896,599616696040871935,-52.00
2025-12-25 16:02:53.607896,599616696040871935,-48.00
2025-12-25 16:02:53.607896,599616696040871935,-52.00
2025-12-25 16:02:53.607896,599616696040871935,-57.00
2025-12-25 16:02:53.607896,599616696040871935,-55.00
2025-12-25 16:02:53.607896,599616696040871935,-45.00
2025-12-25 16:02:53.607896,599616696040871935,-43.00
2025-12-25 16:02:53.607896,599616696040871935,-43.00
2025-12-25 16:02:53.607896,599616696040871935,-41.00
2025-12-25 16:02:53.607896,599616696040871935,-43.00
2025-12-25 16:02:53.607896,599616696040871935,-45.00
2025-12-25 16:02:53.607896,599616696040871935,-39.00
2025-12-25 16:02:53.607896,599616696040871935,-32.00
2025-12-25 16:02:53.607896,599616696040871935,-39.00
2025-12-25 16:02:53.607896,599616696040871935,-48.00
2025-12-25 16:02:53.607896,599616696040871935,-50.00
2025-12-25 16:02:53.607896,599616696040871935,-52.00
2025-12-25 16:02:54.042850,599616696601752084,-59.00
2025-12-25 16:02:54.042850,599616696601752084,-66.00
2025-12-25 16:02:54.042850,599616696601752084,-78.00
2025-12-25 16:02:54.042850,599616696601752084,-89.00
2025-12-25 16:02:54.042850,599616696601752084,-108.00
2025-12-25 16:02:54.042850,599616696601752084,-124.00
2025-12-25 16:02:54.042850,599616696601752084,-128.00
2025-12-25 16:02:54.042850,599616696601752084,-124.00
2025-12-25 16:02:54.042850,599616696601752084,-131.00
2025-12-25 16:02:54.042850,599616696601752084,-142.00
2025-12-25 16:02:54.042850,599616696601752084,-137.00
2025-12-25 16:02:54.042850,599616696601752084,-124.00
2025-12-25 16:02:54.042850,599616696601752084,-126.00
2025-12-25 16:02:54.042850,599616696601752084,-126.00
2025-12-25 16:02:54.042850,599616696601752084,-119.00
2025-12-25 16:02:54.042850,599616696601752084,-119.00
2025-12-25 16:02:54.042850,599616696601752084,-124.00
2025-12-25 16:02:54.042850,599616696601752084,-121.00
2025-12-25 16:02:54.042850,599616696601752084,-114.00
2025-12-25 16:02:54.042850,599616696601752084,-103.00
2025-12-25 16:02:54.042850,599616696601752084,-103.00
2025-12-25 16:02:54.042850,599616696601752084,-114.00
2025-12-25 16:02:54.042850,599616696601752084,-117.00
2025-12-25 16:02:54.042850,599616696601752084,-112.00
2025-12-25 16:02:54.042850,599616696601752084,-103.00
2025-12-25 16:02:54.042850,599616696601752084,-101.00
2025-12-25 16:02:54.042850,599616696601752084,-108.00
2025-12-25 16:02:54.042850,599616696601752084,-105.00
2025-12-25 16:02:54.042850,599616696601752084,-103.00
2025-12-25 16:02:54.042850,599616696601752084,-96.00
2025-12-25 16:02:54.042850,599616696601752084,-78.00
2025-12-25 16:02:54.042850,599616696601752084,-75.00
2025-12-25 16:02:54.042850,599616696601752084,-89.00
2025-12-25 16:02:54.042850,599616696601752084,-105.00
2025-12-25 16:02:54.042850,599616696601752084,-112.00
2025-12-25 16:02:54.042850,599616696601752084,-110.00
2025-12-25 16:02:54.042850,599616696601752084,-105.00
2025-12-25 16:02:54.042850,599616696601752084,-108.00
2025-12-25 16:02:54.042850,599616696601752084,-108.00
2025-12-25 16:02:54.042850,599616696601752084,-101.00
2025-12-25 16:02:54.042850,599616696601752084,-108.00
2025-12-25 16:02:54.042850,599616696601752084,-112.00
2025-12-25 16:02:54.042850,599616696601752084,-98.00
2025-12-25 16:02:54.042850,599616696601752084,-94.00
2025-12-25 16:02:54.042850,599616696601752084,-96.00
2025-12-25 16:02:54.042850,599616696601752084,-57.00
2025-12-25 16:02:54.042850,599616696601752084,87.00
2025-12-25 16:02:54.042850,599616696601752084,252.00
2025-12-25 16:02:54.042850,599616696601752084,105.00
2025-12-25 16:02:54.042850,599616696601752084,-301.00
2025-12-25 16:02:54.042850,599616696601752084,-439.00
2025-12-25 16:02:54.042850,599616696601752084,-296.00
2025-12-25 16:02:54.042850,599616696601752084,-239.00
2025-12-25 16:02:54.042850,599616696601752084,-206.00
2025-12-25 16:02:54.042850,599616696601752084,-101.00
2025-12-25 16:02:54.042850,599616696601752084,-62.00
2025-12-25 16:02:54.042850,599616696601752084,-87.00
2025-12-25 16:02:54.042850,599616696601752084,-80.00
2025-12-25 16:02:54.042850,599616696601752084,-64.00
2025-12-25 16:02:54.042850,599616696601752084,-71.00
2025-12-25 16:02:54.042850,599616696601752084,-71.00
2025-12-25 16:02:54.042850,599616696601752084,-62.00
2025-12-25 16:02:54.042850,599616696601752084,-64.00
2025-12-25 16:02:54.042850,599616696601752084,-66.00
2025-12-25 16:02:54.042850,599616696601752084,-57.00
2025-12-25 16:02:54.042850,599616696601752084,-55.00
2025-12-25 16:02:54.042850,599616696601752084,-55.00
2025-12-25 16:02:54.042850,599616696601752084,-52.00
2025-12-25 16:02:54.042850,599616696601752084,-50.00
2025-12-25 16:02:54.042850,599616696601752084,-48.00
2025-12-25 16:02:54.042850,599616696601752084,-48.00
2025-12-25 16:02:54.042850,599616696601752084,-41.00
2025-12-25 16:02:54.042850,599616696601752084,-34.00
2025-12-25 16:02:54.610088,599616697162632233,-39.00
2025-12-25 16:02:54.610088,599616697162632233,-41.00
2025-12-25 16:02:54.610088,599616697162632233,-36.00
2025-12-25 16:02:54.610088,599616697162632233,-41.00
2025-12-25 16:02:54.610088,599616697162632233,-50.00
2025-12-25 16:02:54.610088,599616697162632233,-50.00
2025-12-25 16:02:54.610088,599616697162632233,-55.00
2025-12-25 16:02:54.610088,599616697162632233,-71.00
2025-12-25 16:02:54.610088,599616697162632233,-89.00
2025-12-25 16:02:54.610088,599616697162632233,-101.00
2025-12-25 16:02:54.610088,599616697162632233,-105.00
2025-12-25 16:02:54.610088,599616697162632233,-108.00
2025-12-25 16:02:54.610088,599616697162632233,-117.00
2025-12-25 16:02:54.610088,599616697162632233,-131.00
2025-12-25 16:02:54.610088,599616697162632233,-128.00
2025-12-25 16:02:54.610088,599616697162632233,-117.00
2025-12-25 16:02:54.610088,599616697162632233,-110.00
2025-12-25 16:02:54.610088,599616697162632233,-108.00
2025-12-25 16:02:54.610088,599616697162632233,-110.00
2025-12-25 16:02:54.610088,599616697162632233,-112.00
2025-12-25 16:02:54.610088,599616697162632233,-112.00
2025-12-25 16:02:54.610088,599616697162632233,-105.00
2025-12-25 16:02:54.610088,599616697162632233,-98.00
2025-12-25 16:02:54.610088,599616697162632233,-96.00
2025-12-25 16:02:54.610088,599616697162632233,-105.00
2025-12-25 16:02:54.610088,599616697162632233,-110.00
2025-12-25 16:02:54.610088,599616697162632233,-108.00
2025-12-25 16:02:54.610088,599616697162632233,-103.00
2025-12-25 16:02:54.610088,599616697162632233,-103.00
2025-12-25 16:02:54.610088,599616697162632233,-108.00
2025-12-25 16:02:54.610088,599616697162632233,-112.00
2025-12-25 16:02:54.610088,599616697162632233,-110.00
2025-12-25 16:02:54.610088,599616697162632233,-98.00
2025-12-25 16:02:54.610088,599616697162632233,-87.00
2025-12-25 16:02:54.610088,599616697162632233,-78.00
2025-12-25 16:02:54.610088,599616697162632233,-68.00
2025-12-25 16:02:54.610088,599616697162632233,-71.00
2025-12-25 16:02:54.610088,599616697162632233,-78.00
2025-12-25 16:02:54.610088,599616697162632233,-82.00
2025-12-25 16:02:54.610088,599616697162632233,-85.00
2025-12-25 16:02:54.610088,599616697162632233,-82.00
2025-12-25 16:02:54.610088,599616697162632233,-75.00
2025-12-25 16:02:54.610088,599616697162632233,-80.00
2025-12-25 16:02:54.610088,599616697162632233,-82.00
2025-12-25 16:02:54.610088,599616697162632233,-78.00
2025-12-25 16:02:54.610088,599616697162632233,-75.00
2025-12-25 16:02:54.610088,599616697162632233,-73.00
2025-12-25 16:02:54.610088,599616697162632233,-68.00
2025-12-25 16:02:54.610088,599616697162632233,-75.00
2025-12-25 16:02:54.610088,599616697162632233,-64.00
2025-12-25 16:02:54.610088,599616697162632233,50.00
2025-12-25 16:02:54.610088,599616697162632233,236.00
2025-12-25 16:02:54.610088,599616697162632233,195.00
2025-12-25 16:02:54.610088,599616697162632233,-186.00
2025-12-25 16:02:54.610088,599616697162632233,-425.00
2025-12-25 16:02:54.610088,599616697162632233,-314.00
2025-12-25 16:02:54.610088,599616697162632233,-220.00
2025-12-25 16:02:54.610088,599616697162632233,-195.00
2025-12-25 16:02:54.610088,599616697162632233,-101.00
2025-12-25 16:02:54.610088,599616697162632233,-48.00
2025-12-25 16:02:54.610088,599616697162632233,-68.00
2025-12-25 16:02:54.610088,599616697162632233,-66.00
2025-12-25 16:02:54.610088,599616697162632233,-45.00
2025-12-25 16:02:54.610088,599616697162632233,-48.00
2025-12-25 16:02:54.610088,599616697162632233,-50.00
2025-12-25 16:02:54.610088,599616697162632233,-43.00
2025-12-25 16:02:54.610088,599616697162632233,-41.00
2025-12-25 16:02:54.610088,599616697162632233,-39.00
2025-12-25 16:02:54.610088,599616697162632233,-27.00
2025-12-25 16:02:54.610088,599616697162632233,-22.00
2025-12-25 16:02:54.610088,599616697162632233,-25.00
2025-12-25 16:02:54.610088,599616697162632233,-27.00
2025-12-25 16:02:54.610088,599616697162632233,-25.00
2025-12-25 16:02:55.111258,599616697723512382,-20.00
2025-12-25 16:02:55.111258,599616697723512382,-16.00
2025-12-25 16:02:55.111258,599616697723512382,-13.00
2025-12-25 16:02:55.111258,599616697723512382,-11.00
2025-12-25 16:02:55.111258,599616697723512382,-11.00
2025-12-25 16:02:55.111258,599616697723512382,-11.00
2025-12-25 16:02:55.111258,599616697723512382,-11.00
2025-12-25 16:02:55.111258,599616697723512382,-6.00
2025-12-25 16:02:55.111258,599616697723512382,-4.00
2025-12-25 16:02:55.111258,599616697723512382,-13.00
2025-12-25 16:02:55.111258,599616697723512382,-25.00
2025-12-25 16:02:55.111258,599616697723512382,-39.00
2025-12-25 16:02:55.111258,599616697723512382,-52.00
2025-12-25 16:02:55.111258,599616697723512382,-68.00
2025-12-25 16:02:55.111258,599616697723512382,-87.00
2025-12-25 16:02:55.111258,599616697723512382,-96.00
2025-12-25 16:02:55.111258,599616697723512382,-101.00
2025-12-25 16:02:55.111258,599616697723512382,-110.00
2025-12-25 16:02:55.111258,599616697723512382,-117.00
2025-12-25 16:02:55.111258,599616697723512382,-114.00
2025-12-25 16:02:55.111258,599616697723512382,-108.00
2025-12-25 16:02:55.111258,599616697723512382,-101.00
2025-12-25 16:02:55.111258,599616697723512382,-94.00
2025-12-25 16:02:55.111258,599616697723512382,-96.00
2025-12-25 16:02:55.111258,599616697723512382,-98.00
2025-12-25 16:02:55.111258,599616697723512382,-94.00
2025-12-25 16:02:55.111258,599616697723512382,-91.00
2025-12-25 16:02:55.111258,599616697723512382,-85.00
2025-12-25 16:02:55.111258,599616697723512382,-71.00
2025-12-25 16:02:55.111258,599616697723512382,-68.00
2025-12-25 16:02:55.111258,599616697723512382,-80.00
2025-12-25 16:02:55.111258,599616697723512382,-87.00
2025-12-25 16:02:55.111258,599616697723512382,-82.00
2025-12-25 16:02:55.111258,599616697723512382,-82.00
2025-12-25 16:02:55.111258,599616697723512382,-82.00
2025-12-25 16:02:55.111258,599616697723512382,-82.00
2025-12-25 16:02:55.111258,599616697723512382,-87.00
2025-12-25 16:02:55.111258,599616697723512382,-82.00
2025-12-25 16:02:55.111258,599616697723512382,-66.00
2025-12-25 16:02:55.111258,599616697723512382,-55.00
2025-12-25 16:02:55.111258,599616697723512382,-55.00
2025-12-25 16:02:55.111258,599616697723512382,-68.00
2025-12-25 16:02:55.111258,599616697723512382,-82.00
2025-12-25 16:02:55.111258,599616697723512382,-80.00
2025-12-25 16:02:55.111258,599616697723512382,-78.00
2025-12-25 16:02:55.111258,599616697723512382,-75.00
2025-12-25 16:02:55.111258,599616697723512382,-73.00
2025-12-25 16:02:55.111258,599616697723512382,-75.00
2025-12-25 16:02:55.111258,599616697723512382,-80.00
2025-12-25 16:02:55.111258,599616697723512382,-75.00
2025-12-25 16:02:55.111258,599616697723512382,-71.00
2025-12-25 16:02:55.111258,599616697723512382,-73.00
2025-12-25 16:02:55.111258,599616697723512382,-80.00
2025-12-25 16:02:55.111258,599616697723512382,-75.00
2025-12-25 16:02:55.111258,599616697723512382,-22.00
2025-12-25 16:02:55.111258,599616697723512382,128.00
2025-12-25 16:02:55.111258,599616697723512382,264.00
2025-12-25 16:02:55.111258,599616697723512382,85.00
2025-12-25 16:02:55.111258,599616697723512382,-305.00
2025-12-25 16:02:55.111258,599616697723512382,-404.00
2025-12-25 16:02:55.111258,599616697723512382,-264.00
2025-12-25 16:02:55.111258,599616697723512382,-209.00
2025-12-25 16:02:55.111258,599616697723512382,-154.00
2025-12-25 16:02:55.111258,599616697723512382,-59.00
2025-12-25 16:02:55.111258,599616697723512382,-45.00
2025-12-25 16:02:55.111258,599616697723512382,-71.00
2025-12-25 16:02:55.111258,599616697723512382,-50.00
2025-12-25 16:02:55.111258,599616697723512382,-34.00
2025-12-25 16:02:55.111258,599616697723512382,-48.00
2025-12-25 16:02:55.111258,599616697723512382,-48.00
2025-12-25 16:02:55.111258,599616697723512382,-39.00
2025-12-25 16:02:55.111258,599616697723512382,-36.00
2025-12-25 16:02:55.111258,599616697723512382,-34.00
2025-12-25 16:02:55.835525,599616698284448483,-34.00
2025-12-25 16:02:55.835525,599616698284448483,-39.00
2025-12-25 16:02:55.835525,599616698284448483,-34.00
2025-12-25 16:02:55.835525,599616698284448483,-22.00
2025-12-25 16:02:55.835525,599616698284448483,-18.00
2025-12-25 16:02:55.835525,599616698284448483,-11.00
2025-12-25 16:02:55.835525,599616698284448483,-4.00
2025-12-25 16:02:55.835525,599616698284448483,-2.00
2025-12-25 16:02:55.835525,599616698284448483,-2.00
2025-12-25 16:02:55.835525,599616698284448483,0.00
2025-12-25 16:02:55.835525,599616698284448483,-2.00
2025-12-25 16:02:55.835525,599616698284448483,-4.00
2025-12-25 16:02:55.835525,599616698284448483,-11.00
2025-12-25 16:02:55.835525,599616698284448483,-18.00
2025-12-25 16:02:55.835525,599616698284448483,-25.00
2025-12-25 16:02:55.835525,599616698284448483,-36.00
2025-12-25 16:02:55.835525,599616698284448483,-50.00
2025-12-25 16:02:55.835525,599616698284448483,-66.00
2025-12-25 16:02:55.835525,599616698284448483,-80.00
2025-12-25 16:02:55.835525,599616698284448483,-91.00
2025-12-25 16:02:55.835525,599616698284448483,-101.00
2025-12-25 16:02:55.835525,599616698284448483,-103.00
2025-12-25 16:02:55.835525,599616698284448483,-108.00
2025-12-25 16:02:55.835525,599616698284448483,-108.00
2025-12-25 16:02:55.835525,599616698284448483,-101.00
2025-12-25 16:02:55.835525,599616698284448483,-98.00
2025-12-25 16:02:55.835525,599616698284448483,-101.00
2025-12-25 16:02:55.835525,599616698284448483,-96.00
2025-12-25 16:02:55.835525,599616698284448483,-94.00
2025-12-25 16:02:55.835525,599616698284448483,-94.00
2025-12-25 16:02:55.835525,599616698284448483,-91.00
2025-12-25 16:02:55.835525,599616698284448483,-94.00
2025-12-25 16:02:55.835525,599616698284448483,-101.00
2025-12-25 16:02:55.835525,599616698284448483,-98.00
2025-12-25 16:02:55.835525,599616698284448483,-94.00
2025-12-25 16:02:55.835525,599616698284448483,-96.00
2025-12-25 16:02:55.835525,599616698284448483,-98.00
2025-12-25 16:02:55.835525,599616698284448483,-103.00
2025-12-25 16:02:55.835525,599616698284448483,-105.00
2025-12-25 16:02:55.835525,599616698284448483,-101.00
2025-12-25 16:02:55.835525,599616698284448483,-103.00
2025-12-25 16:02:55.835525,599616698284448483,-112.00
2025-12-25 16:02:55.835525,599616698284448483,-110.00
2025-12-25 16:02:55.835525,599616698284448483,-96.00
2025-12-25 16:02:55.835525,599616698284448483,-87.00
2025-12-25 16:02:55.835525,599616698284448483,-80.00
2025-12-25 16:02:55.835525,599616698284448483,-68.00
2025-12-25 16:02:55.835525,599616698284448483,-73.00
2025-12-25 16:02:55.835525,599616698284448483,-96.00
2025-12-25 16:02:55.835525,599616698284448483,-105.00
2025-12-25 16:02:55.835525,599616698284448483,-91.00
2025-12-25 16:02:55.835525,599616698284448483,-80.00
2025-12-25 16:02:55.835525,599616698284448483,-82.00
2025-12-25 16:02:55.835525,599616698284448483,-85.00
2025-12-25 16:02:55.835525,599616698284448483,-82.00
2025-12-25 16:02:55.835525,599616698284448483,-82.00
2025-12-25 16:02:55.835525,599616698284448483,-85.00
2025-12-25 16:02:55.835525,599616698284448483,-80.00
2025-12-25 16:02:55.835525,599616698284448483,-80.00
2025-12-25 16:02:55.835525,599616698284448483,-87.00
2025-12-25 16:02:55.835525,599616698284448483,-50.00
2025-12-25 16:02:55.835525,599616698284448483,96.00
2025-12-25 16:02:55.835525,599616698284448483,248.00
2025-12-25 16:02:55.835525,599616698284448483,98.00
2025-12-25 16:02:55.835525,599616698284448483,-291.00
2025-12-25 16:02:55.835525,599616698284448483,-427.00
2025-12-25 16:02:55.835525,599616698284448483,-289.00
2025-12-25 16:02:55.835525,599616698284448483,-218.00
2025-12-25 16:02:55.835525,599616698284448483,-177.00
2025-12-25 16:02:55.835525,599616698284448483,-85.00
2025-12-25 16:02:55.835525,599616698284448483,-62.00
2025-12-25 16:02:55.835525,599616698284448483,-85.00
2025-12-25 16:02:55.835525,599616698284448483,-75.00
2025-12-25 16:02:56.277054,599616698845282854,-59.00
2025-12-25 16:02:56.277054,599616698845282854,-57.00
2025-12-25 16:02:56.277054,599616698845282854,-55.00
2025-12-25 16:02:56.277054,599616698845282854,-50.00
2025-12-25 16:02:56.277054,599616698845282854,-52.00
2025-12-25 16:02:56.277054,599616698845282854,-52.00
2025-12-25 16:02:56.277054,599616698845282854,-50.00
2025-12-25 16:02:56.277054,599616698845282854,-43.00
2025-12-25 16:02:56.277054,599616698845282854,-41.00
2025-12-25 16:02:56.277054,599616698845282854,-41.00
2025-12-25 16:02:56.277054,599616698845282854,-41.00
2025-12-25 16:02:56.277054,599616698845282854,-39.00
2025-12-25 16:02:56.277054,599616698845282854,-32.00
2025-12-25 16:02:56.277054,599616698845282854,-29.00
2025-12-25 16:02:56.277054,599616698845282854,-20.00
2025-12-25 16:02:56.277054,599616698845282854,-13.00
2025-12-25 16:02:56.277054,599616698845282854,-16.00
2025-12-25 16:02:56.277054,599616698845282854,-20.00
2025-12-25 16:02:56.277054,599616698845282854,-22.00
2025-12-25 16:02:56.277054,599616698845282854,-20.00
2025-12-25 16:02:56.277054,599616698845282854,-18.00
2025-12-25 16:02:56.277054,599616698845282854,-32.00
2025-12-25 16:02:56.277054,599616698845282854,-55.00
2025-12-25 16:02:56.277054,599616698845282854,-71.00
2025-12-25 16:02:56.277054,599616698845282854,-87.00
2025-12-25 16:02:56.277054,599616698845282854,-91.00
2025-12-25 16:02:56.277054,599616698845282854,-89.00
2025-12-25 16:02:56.277054,599616698845282854,-101.00
2025-12-25 16:02:56.277054,599616698845282854,-112.00
2025-12-25 16:02:56.277054,599616698845282854,-112.00
2025-12-25 16:02:56.277054,599616698845282854,-110.00
2025-12-25 16:02:56.277054,599616698845282854,-108.00
2025-12-25 16:02:56.277054,599616698845282854,-96.00
2025-12-25 16:02:56.277054,599616698845282854,-91.00
2025-12-25 16:02:56.277054,599616698845282854,-96.00
2025-12-25 16:02:56.277054,599616698845282854,-98.00
2025-12-25 16:02:56.277054,599616698845282854,-98.00
2025-12-25 16:02:56.277054,599616698845282854,-98.00
2025-12-25 16:02:56.277054,599616698845282854,-98.00
2025-12-25 16:02:56.277054,599616698845282854,-96.00
2025-12-25 16:02:56.277054,599616698845282854,-94.00
2025-12-25 16:02:56.277054,599616698845282854,-91.00
2025-12-25 16:02:56.277054,599616698845282854,-96.00
2025-12-25 16:02:56.277054,599616698845282854,-101.00
2025-12-25 16:02:56.277054,599616698845282854,-96.00
2025-12-25 16:02:56.277054,599616698845282854,-94.00
2025-12-25 16:02:56.277054,599616698845282854,-103.00
2025-12-25 16:02:56.277054,599616698845282854,-108.00
2025-12-25 16:02:56.277054,599616698845282854,-101.00
2025-12-25 16:02:56.277054,599616698845282854,-96.00
2025-12-25 16:02:56.277054,599616698845282854,-91.00
2025-12-25 16:02:56.277054,599616698845282854,-80.00
2025-12-25 16:02:56.277054,599616698845282854,-68.00
2025-12-25 16:02:56.277054,599616698845282854,-73.00
2025-12-25 16:02:56.277054,599616698845282854,-85.00
2025-12-25 16:02:56.277054,599616698845282854,-89.00
2025-12-25 16:02:56.277054,599616698845282854,-87.00
2025-12-25 16:02:56.277054,599616698845282854,-87.00
2025-12-25 16:02:56.277054,599616698845282854,-89.00
2025-12-25 16:02:56.277054,599616698845282854,-91.00
2025-12-25 16:02:56.277054,599616698845282854,-91.00
2025-12-25 16:02:56.277054,599616698845282854,-89.00
2025-12-25 16:02:56.277054,599616698845282854,-87.00
2025-12-25 16:02:56.277054,599616698845282854,-87.00
2025-12-25 16:02:56.277054,599616698845282854,-89.00
2025-12-25 16:02:56.277054,599616698845282854,-94.00
2025-12-25 16:02:56.277054,599616698845282854,-91.00
2025-12-25 16:02:56.277054,599616698845282854,-48.00
2025-12-25 16:02:56.277054,599616698845282854,87.00
2025-12-25 16:02:56.277054,599616698845282854,243.00
2025-12-25 16:02:56.277054,599616698845282854,112.00
2025-12-25 16:02:56.277054,599616698845282854,-278.00
2025-12-25 16:02:56.277054,599616698845282854,-429.00
2025-12-25 16:02:56.861597,599616699406168089,-289.00
2025-12-25 16:02:56.861597,599616699406168089,-209.00
2025-12-25 16:02:56.861597,599616699406168089,-172.00
2025-12-25 16:02:56.861597,599616699406168089,-87.00
2025-12-25 16:02:56.861597,599616699406168089,-64.00
2025-12-25 16:02:56.861597,599616699406168089,-82.00
2025-12-25 16:02:56.861597,599616699406168089,-62.00
2025-12-25 16:02:56.861597,599616699406168089,-39.00
2025-12-25 16:02:56.861597,599616699406168089,-43.00
2025-12-25 16:02:56.861597,599616699406168089,-50.00
2025-12-25 16:02:56.861597,599616699406168089,-41.00
2025-12-25 16:02:56.861597,599616699406168089,-27.00
2025-12-25 16:02:56.861597,599616699406168089,-20.00
2025-12-25 16:02:56.861597,599616699406168089,-25.00
2025-12-25 16:02:56.861597,599616699406168089,-29.00
2025-12-25 16:02:56.861597,599616699406168089,-29.00
2025-12-25 16:02:56.861597,599616699406168089,-25.00
2025-12-25 16:02:56.861597,599616699406168089,-20.00
2025-12-25 16:02:56.861597,599616699406168089,-20.00
2025-12-25 16:02:56.861597,599616699406168089,-18.00
2025-12-25 16:02:56.861597,599616699406168089,-13.00
2025-12-25 16:02:56.861597,599616699406168089,-16.00
2025-12-25 16:02:56.861597,599616699406168089,-16.00
2025-12-25 16:02:56.861597,599616699406168089,-11.00
2025-12-25 16:02:56.861597,599616699406168089,-11.00
2025-12-25 16:02:56.861597,599616699406168089,-20.00
2025-12-25 16:02:56.861597,599616699406168089,-27.00
2025-12-25 16:02:56.861597,599616699406168089,-32.00
2025-12-25 16:02:56.861597,599616699406168089,-43.00
2025-12-25 16:02:56.861597,599616699406168089,-64.00
2025-12-25 16:02:56.861597,599616699406168089,-80.00
2025-12-25 16:02:56.861597,599616699406168089,-91.00
2025-12-25 16:02:56.861597,599616699406168089,-101.00
2025-12-25 16:02:56.861597,599616699406168089,-114.00
2025-12-25 16:02:56.861597,599616699406168089,-121.00
2025-12-25 16:02:56.861597,599616699406168089,-124.00
2025-12-25 16:02:56.861597,599616699406168089,-121.00
2025-12-25 16:02:56.861597,599616699406168089,-121.00
2025-12-25 16:02:56.861597,599616699406168089,-121.00
2025-12-25 16:02:56.861597,599616699406168089,-124.00
2025-12-25 16:02:56.861597,599616699406168089,-119.00
2025-12-25 16:02:56.861597,599616699406168089,-105.00
2025-12-25 16:02:56.861597,599616699406168089,-108.00
2025-12-25 16:02:56.861597,599616699406168089,-119.00
2025-12-25 16:02:56.861597,599616699406168089,-117.00
2025-12-25 16:02:56.861597,599616699406168089,-110.00
2025-12-25 16:02:56.861597,599616699406168089,-110.00
2025-12-25 16:02:56.861597,599616699406168089,-112.00
2025-12-25 16:02:56.861597,599616699406168089,-112.00
2025-12-25 16:02:56.861597,599616699406168089,-114.00
2025-12-25 16:02:56.861597,599616699406168089,-117.00
2025-12-25 16:02:56.861597,599616699406168089,-112.00
2025-12-25 16:02:56.861597,599616699406168089,-112.00
2025-12-25 16:02:56.861597,599616699406168089,-117.00
2025-12-25 16:02:56.861597,599616699406168089,-117.00
2025-12-25 16:02:56.861597,599616699406168089,-114.00
2025-12-25 16:02:56.861597,599616699406168089,-112.00
2025-12-25 16:02:56.861597,599616699406168089,-108.00
2025-12-25 16:02:56.861597,599616699406168089,-98.00
2025-12-25 16:02:56.861597,599616699406168089,-82.00
2025-12-25 16:02:56.861597,599616699406168089,-75.00
2025-12-25 16:02:56.861597,599616699406168089,-82.00
2025-12-25 16:02:56.861597,599616699406168089,-98.00
2025-12-25 16:02:56.861597,599616699406168089,-103.00
2025-12-25 16:02:56.861597,599616699406168089,-98.00
2025-12-25 16:02:56.861597,599616699406168089,-91.00
2025-12-25 16:02:56.861597,599616699406168089,-94.00
2025-12-25 16:02:56.861597,599616699406168089,-101.00
2025-12-25 16:02:56.861597,599616699406168089,-98.00
2025-12-25 16:02:56.861597,599616699406168089,-91.00
2025-12-25 16:02:56.861597,599616699406168089,-91.00
2025-12-25 16:02:56.861597,599616699406168089,-91.00
2025-12-25 16:02:56.861597,599616699406168089,-82.00
2025-12-25 16:02:57.360202,599616699967053324,-78.00
2025-12-25 16:02:57.360202,599616699967053324,-78.00
2025-12-25 16:02:57.360202,599616699967053324,-48.00
2025-12-25 16:02:57.360202,599616699967053324,73.00
2025-12-25 16:02:57.360202,599616699967053324,232.00
2025-12-25 16:02:57.360202,599616699967053324,140.00
2025-12-25 16:02:57.360202,599616699967053324,-239.00
2025-12-25 16:02:57.360202,599616699967053324,-427.00
2025-12-25 16:02:57.360202,599616699967053324,-294.00
2025-12-25 16:02:57.360202,599616699967053324,-186.00
2025-12-25 16:02:57.360202,599616699967053324,-154.00
2025-12-25 16:02:57.360202,599616699967053324,-80.00
2025-12-25 16:02:57.360202,599616699967053324,-48.00
2025-12-25 16:02:57.360202,599616699967053324,-64.00
2025-12-25 16:02:57.360202,599616699967053324,-52.00
2025-12-25 16:02:57.360202,599616699967053324,-39.00
2025-12-25 16:02:57.360202,599616699967053324,-48.00
2025-12-25 16:02:57.360202,599616699967053324,-52.00
2025-12-25 16:02:57.360202,599616699967053324,-45.00
2025-12-25 16:02:57.360202,599616699967053324,-45.00
2025-12-25 16:02:57.360202,599616699967053324,-48.00
2025-12-25 16:02:57.360202,599616699967053324,-41.00
2025-12-25 16:02:57.360202,599616699967053324,-39.00
2025-12-25 16:02:57.360202,599616699967053324,-36.00
2025-12-25 16:02:57.360202,599616699967053324,-32.00
2025-12-25 16:02:57.360202,599616699967053324,-29.00
2025-12-25 16:02:57.360202,599616699967053324,-27.00
2025-12-25 16:02:57.360202,599616699967053324,-25.00
2025-12-25 16:02:57.360202,599616699967053324,-20.00
2025-12-25 16:02:57.360202,599616699967053324,-18.00
2025-12-25 16:02:57.360202,599616699967053324,-20.00
2025-12-25 16:02:57.360202,599616699967053324,-22.00
2025-12-25 16:02:57.360202,599616699967053324,-20.00
2025-12-25 16:02:57.360202,599616699967053324,-27.00
2025-12-25 16:02:57.360202,599616699967053324,-36.00
2025-12-25 16:02:57.360202,599616699967053324,-39.00
2025-12-25 16:02:57.360202,599616699967053324,-52.00
2025-12-25 16:02:57.360202,599616699967053324,-66.00
2025-12-25 16:02:57.360202,599616699967053324,-75.00
2025-12-25 16:02:57.360202,599616699967053324,-94.00
2025-12-25 16:02:57.360202,599616699967053324,-117.00
2025-12-25 16:02:57.360202,599616699967053324,-126.00
2025-12-25 16:02:57.360202,599616699967053324,-121.00
2025-12-25 16:02:57.360202,599616699967053324,-121.00
2025-12-25 16:02:57.360202,599616699967053324,-131.00
2025-12-25 16:02:57.360202,599616699967053324,-135.00
2025-12-25 16:02:57.360202,599616699967053324,-131.00
2025-12-25 16:02:57.360202,599616699967053324,-124.00
2025-12-25 16:02:57.360202,599616699967053324,-121.00
2025-12-25 16:02:57.360202,599616699967053324,-121.00
2025-12-25 16:02:57.360202,599616699967053324,-121.00
2025-12-25 16:02:57.360202,599616699967053324,-121.00
2025-12-25 16:02:57.360202,599616699967053324,-121.00
2025-12-25 16:02:57.360202,599616699967053324,-124.00
2025-12-25 16:02:57.360202,599616699967053324,-121.00
2025-12-25 16:02:57.360202,599616699967053324,-112.00
2025-12-25 16:02:57.360202,599616699967053324,-110.00
2025-12-25 16:02:57.360202,599616699967053324,-117.00
2025-12-25 16:02:57.360202,599616699967053324,-117.00
2025-12-25 16:02:57.360202,599616699967053324,-105.00
2025-12-25 16:02:57.360202,599616699967053324,-103.00
2025-12-25 16:02:57.360202,599616699967053324,-103.00
2025-12-25 16:02:57.360202,599616699967053324,-103.00
2025-12-25 16:02:57.360202,599616699967053324,-108.00
2025-12-25 16:02:57.360202,599616699967053324,-108.00
2025-12-25 16:02:57.360202,599616699967053324,-96.00
2025-12-25 16:02:57.360202,599616699967053324,-78.00
2025-12-25 16:02:57.360202,599616699967053324,-68.00
2025-12-25 16:02:57.360202,599616699967053324,-66.00
2025-12-25 16:02:57.360202,599616699967053324,-71.00
2025-12-25 16:02:57.360202,599616699967053324,-82.00
2025-12-25 16:02:57.360202,599616699967053324,-91.00
2025-12-25 16:02:57.360202,599616699967053324,-87.00
2025-12-25 16:02:57.976367,599616700527938559,-85.00
2025-12-25 16:02:57.976367,599616700527938559,-91.00
2025-12-25 16:02:57.976367,599616700527938559,-94.00
2025-12-25 16:02:57.976367,599616700527938559,-85.00
2025-12-25 16:02:57.976367,599616700527938559,-82.00
2025-12-25 16:02:57.976367,599616700527938559,-80.00
2025-12-25 16:02:57.976367,599616700527938559,-73.00
2025-12-25 16:02:57.976367,599616700527938559,-73.00
2025-12-25 16:02:57.976367,599616700527938559,-78.00
2025-12-25 16:02:57.976367,599616700527938559,-73.00
2025-12-25 16:02:57.976367,599616700527938559,-55.00
2025-12-25 16:02:57.976367,599616700527938559,45.00
2025-12-25 16:02:57.976367,599616700527938559,218.00
2025-12-25 16:02:57.976367,599616700527938559,200.00
2025-12-25 16:02:57.976367,599616700527938559,-142.00
2025-12-25 16:02:57.976367,599616700527938559,-406.00
2025-12-25 16:02:57.976367,599616700527938559,-326.00
2025-12-25 16:02:57.976367,599616700527938559,-202.00
2025-12-25 16:02:57.976367,599616700527938559,-160.00
2025-12-25 16:02:57.976367,599616700527938559,-94.00
2025-12-25 16:02:57.976367,599616700527938559,-57.00
2025-12-25 16:02:57.976367,599616700527938559,-66.00
2025-12-25 16:02:57.976367,599616700527938559,-59.00
2025-12-25 16:02:57.976367,599616700527938559,-45.00
2025-12-25 16:02:57.976367,599616700527938559,-48.00
2025-12-25 16:02:57.976367,599616700527938559,-48.00
2025-12-25 16:02:57.976367,599616700527938559,-50.00
2025-12-25 16:02:57.976367,599616700527938559,-55.00
2025-12-25 16:02:57.976367,599616700527938559,-45.00
2025-12-25 16:02:57.976367,599616700527938559,-32.00
2025-12-25 16:02:57.976367,599616700527938559,-39.00
2025-12-25 16:02:57.976367,599616700527938559,-45.00
2025-12-25 16:02:57.976367,599616700527938559,-39.00
2025-12-25 16:02:57.976367,599616700527938559,-36.00
2025-12-25 16:02:57.976367,599616700527938559,-34.00
2025-12-25 16:02:57.976367,599616700527938559,-25.00
2025-12-25 16:02:57.976367,599616700527938559,-25.00
2025-12-25 16:02:57.976367,599616700527938559,-29.00
2025-12-25 16:02:57.976367,599616700527938559,-27.00
2025-12-25 16:02:57.976367,599616700527938559,-25.00
2025-12-25 16:02:57.976367,599616700527938559,-20.00
2025-12-25 16:02:57.976367,599616700527938559,-20.00
2025-12-25 16:02:57.976367,599616700527938559,-36.00
2025-12-25 16:02:57.976367,599616700527938559,-48.00
2025-12-25 16:02:57.976367,599616700527938559,-48.00
2025-12-25 16:02:57.976367,599616700527938559,-55.00
2025-12-25 16:02:57.976367,599616700527938559,-68.00
2025-12-25 16:02:57.976367,599616700527938559,-85.00
2025-12-25 16:02:57.976367,599616700527938559,-98.00
2025-12-25 16:02:57.976367,599616700527938559,-110.00
2025-12-25 16:02:57.976367,599616700527938559,-119.00
2025-12-25 16:02:57.976367,599616700527938559,-121.00
2025-12-25 16:02:57.976367,599616700527938559,-124.00
2025-12-25 16:02:57.976367,599616700527938559,-126.00
2025-12-25 16:02:57.976367,599616700527938559,-126.00
2025-12-25 16:02:57.976367,599616700527938559,-119.00
2025-12-25 16:02:57.976367,599616700527938559,-124.00
2025-12-25 16:02:57.976367,599616700527938559,-131.00
2025-12-25 16:02:57.976367,599616700527938559,-112.00
2025-12-25 16:02:57.976367,599616700527938559,-98.00
2025-12-25 16:02:57.976367,599616700527938559,-103.00
2025-12-25 16:02:57.976367,599616700527938559,-110.00
2025-12-25 16:02:57.976367,599616700527938559,-110.00
2025-12-25 16:02:57.976367,599616700527938559,-108.00
2025-12-25 16:02:57.976367,599616700527938559,-101.00
2025-12-25 16:02:57.976367,599616700527938559,-96.00
2025-12-25 16:02:57.976367,599616700527938559,-94.00
2025-12-25 16:02:57.976367,599616700527938559,-98.00
2025-12-25 16:02:57.976367,599616700527938559,-103.00
2025-12-25 16:02:57.976367,599616700527938559,-105.00
2025-12-25 16:02:57.976367,599616700527938559,-96.00
2025-12-25 16:02:57.976367,599616700527938559,-89.00
2025-12-25 16:02:57.976367,599616700527938559,-101.00
2025-12-25 16:02:58.529566,599616701088823794,-108.00
2025-12-25 16:02:58.529566,599616701088823794,-98.00
2025-12-25 16:02:58.529566,599616701088823794,-87.00
2025-12-25 16:02:58.529566,599616701088823794,-80.00
2025-12-25 16:02:58.529566,599616701088823794,-73.00
2025-12-25 16:02:58.529566,599616701088823794,-75.00
2025-12-25 16:02:58.529566,599616701088823794,-87.00
2025-12-25 16:02:58.529566,599616701088823794,-96.00
2025-12-25 16:02:58.529566,599616701088823794,-91.00
2025-12-25 16:02:58.529566,599616701088823794,-78.00
2025-12-25 16:02:58.529566,599616701088823794,-73.00
2025-12-25 16:02:58.529566,599616701088823794,-80.00
2025-12-25 16:02:58.529566,599616701088823794,-80.00
2025-12-25 16:02:58.529566,599616701088823794,-82.00
2025-12-25 16:02:58.529566,599616701088823794,-75.00
2025-12-25 16:02:58.529566,599616701088823794,-64.00
2025-12-25 16:02:58.529566,599616701088823794,-62.00
2025-12-25 16:02:58.529566,599616701088823794,-73.00
2025-12-25 16:02:58.529566,599616701088823794,-80.00
2025-12-25 16:02:58.529566,599616701088823794,-50.00
2025-12-25 16:02:58.529566,599616701088823794,80.00
2025-12-25 16:02:58.529566,599616701088823794,241.00
2025-12-25 16:02:58.529566,599616701088823794,144.00
2025-12-25 16:02:58.529566,599616701088823794,-227.00
2025-12-25 16:02:58.529566,599616701088823794,-413.00
2025-12-25 16:02:58.529566,599616701088823794,-294.00
2025-12-25 16:02:58.529566,599616701088823794,-195.00
2025-12-25 16:02:58.529566,599616701088823794,-154.00
2025-12-25 16:02:58.529566,599616701088823794,-85.00
2025-12-25 16:02:58.529566,599616701088823794,-59.00
2025-12-25 16:02:58.529566,599616701088823794,-80.00
2025-12-25 16:02:58.529566,599616701088823794,-73.00
2025-12-25 16:02:58.529566,599616701088823794,-55.00
2025-12-25 16:02:58.529566,599616701088823794,-59.00
2025-12-25 16:02:58.529566,599616701088823794,-62.00
2025-12-25 16:02:58.529566,599616701088823794,-50.00
2025-12-25 16:02:58.529566,599616701088823794,-48.00
2025-12-25 16:02:58.529566,599616701088823794,-48.00
2025-12-25 16:02:58.529566,599616701088823794,-39.00
2025-12-25 16:02:58.529566,599616701088823794,-34.00
2025-12-25 16:02:58.529566,599616701088823794,-39.00
2025-12-25 16:02:58.529566,599616701088823794,-39.00
2025-12-25 16:02:58.529566,599616701088823794,-32.00
2025-12-25 16:02:58.529566,599616701088823794,-29.00
2025-12-25 16:02:58.529566,599616701088823794,-32.00
2025-12-25 16:02:58.529566,599616701088823794,-32.00
2025-12-25 16:02:58.529566,599616701088823794,-27.00
2025-12-25 16:02:58.529566,599616701088823794,-22.00
2025-12-25 16:02:58.529566,599616701088823794,-25.00
2025-12-25 16:02:58.529566,599616701088823794,-29.00
2025-12-25 16:02:58.529566,599616701088823794,-27.00
2025-12-25 16:02:58.529566,599616701088823794,-22.00
2025-12-25 16:02:58.529566,599616701088823794,-32.00
2025-12-25 16:02:58.529566,599616701088823794,-48.00
2025-12-25 16:02:58.529566,599616701088823794,-57.00
2025-12-25 16:02:58.529566,599616701088823794,-68.00
2025-12-25 16:02:58.529566,599616701088823794,-87.00
2025-12-25 16:02:58.529566,599616701088823794,-105.00
2025-12-25 16:02:58.529566,599616701088823794,-114.00
2025-12-25 16:02:58.529566,599616701088823794,-114.00
2025-12-25 16:02:58.529566,599616701088823794,-117.00
2025-12-25 16:02:58.529566,599616701088823794,-126.00
2025-12-25 16:02:58.529566,599616701088823794,-126.00
2025-12-25 16:02:58.529566,599616701088823794,-124.00
2025-12-25 16:02:58.529566,599616701088823794,-121.00
2025-12-25 16:02:58.529566,599616701088823794,-124.00
2025-12-25 16:02:58.529566,599616701088823794,-126.00
2025-12-25 16:02:58.529566,599616701088823794,-121.00
2025-12-25 16:02:58.529566,599616701088823794,-110.00
2025-12-25 16:02:58.529566,599616701088823794,-108.00
2025-12-25 16:02:58.529566,599616701088823794,-105.00
2025-12-25 16:02:58.529566,599616701088823794,-101.00
2025-12-25 16:02:58.529566,599616701088823794,-101.00
2025-12-25 16:02:59.088906,599616701649709033,-96.00
2025-12-25 16:02:59.088906,599616701649709033,-91.00
2025-12-25 16:02:59.088906,599616701649709033,-96.00
2025-12-25 16:02:59.088906,599616701649709033,-101.00
2025-12-25 16:02:59.088906,599616701649709033,-98.00
2025-12-25 16:02:59.088906,599616701649709033,-91.00
2025-12-25 16:02:59.088906,599616701649709033,-82.00
2025-12-25 16:02:59.088906,599616701649709033,-87.00
2025-12-25 16:02:59.088906,599616701649709033,-96.00
2025-12-25 16:02:59.088906,599616701649709033,-91.00
2025-12-25 16:02:59.088906,599616701649709033,-80.00
2025-12-25 16:02:59.088906,599616701649709033,-64.00
2025-12-25 16:02:59.088906,599616701649709033,-48.00
2025-12-25 16:02:59.088906,599616701649709033,-52.00
2025-12-25 16:02:59.088906,599616701649709033,-75.00
2025-12-25 16:02:59.088906,599616701649709033,-82.00
2025-12-25 16:02:59.088906,599616701649709033,-82.00
2025-12-25 16:02:59.088906,599616701649709033,-80.00
2025-12-25 16:02:59.088906,599616701649709033,-75.00
2025-12-25 16:02:59.088906,599616701649709033,-80.00
2025-12-25 16:02:59.088906,599616701649709033,-87.00
2025-12-25 16:02:59.088906,599616701649709033,-87.00
2025-12-25 16:02:59.088906,599616701649709033,-85.00
2025-12-25 16:02:59.088906,599616701649709033,-85.00
2025-12-25 16:02:59.088906,599616701649709033,-87.00
2025-12-25 16:02:59.088906,599616701649709033,-89.00
2025-12-25 16:02:59.088906,599616701649709033,-94.00
2025-12-25 16:02:59.088906,599616701649709033,-71.00
2025-12-25 16:02:59.088906,599616701649709033,39.00
2025-12-25 16:02:59.088906,599616701649709033,211.00
2025-12-25 16:02:59.088906,599616701649709033,177.00
2025-12-25 16:02:59.088906,599616701649709033,-179.00
2025-12-25 16:02:59.088906,599616701649709033,-423.00
2025-12-25 16:02:59.088906,599616701649709033,-324.00
2025-12-25 16:02:59.088906,599616701649709033,-211.00
2025-12-25 16:02:59.088906,599616701649709033,-177.00
2025-12-25 16:02:59.088906,599616701649709033,-103.00
2025-12-25 16:02:59.088906,599616701649709033,-66.00
2025-12-25 16:02:59.088906,599616701649709033,-87.00
2025-12-25 16:02:59.088906,599616701649709033,-80.00
2025-12-25 16:02:59.088906,599616701649709033,-57.00
2025-12-25 16:02:59.088906,599616701649709033,-64.00
2025-12-25 16:02:59.088906,599616701649709033,-68.00
2025-12-25 16:02:59.088906,599616701649709033,-55.00
2025-12-25 16:02:59.088906,599616701649709033,-43.00
2025-12-25 16:02:59.088906,599616701649709033,-41.00
2025-12-25 16:02:59.088906,599616701649709033,-41.00
2025-12-25 16:02:59.088906,599616701649709033,-43.00
2025-12-25 16:02:59.088906,599616701649709033,-45.00
2025-12-25 16:02:59.088906,599616701649709033,-41.00
2025-12-25 16:02:59.088906,599616701649709033,-36.00
2025-12-25 16:02:59.088906,599616701649709033,-36.00
2025-12-25 16:02:59.088906,599616701649709033,-32.00
2025-12-25 16:02:59.088906,599616701649709033,-27.00
2025-12-25 16:02:59.088906,599616701649709033,-27.00
2025-12-25 16:02:59.088906,599616701649709033,-27.00
2025-12-25 16:02:59.088906,599616701649709033,-20.00
2025-12-25 16:02:59.088906,599616701649709033,-18.00
2025-12-25 16:02:59.088906,599616701649709033,-25.00
2025-12-25 16:02:59.088906,599616701649709033,-32.00
2025-12-25 16:02:59.088906,599616701649709033,-32.00
2025-12-25 16:02:59.088906,599616701649709033,-36.00
2025-12-25 16:02:59.088906,599616701649709033,-50.00
2025-12-25 16:02:59.088906,599616701649709033,-68.00
2025-12-25 16:02:59.088906,599616701649709033,-87.00
2025-12-25 16:02:59.088906,599616701649709033,-101.00
2025-12-25 16:02:59.088906,599616701649709033,-112.00
2025-12-25 16:02:59.088906,599616701649709033,-119.00
2025-12-25 16:02:59.088906,599616701649709033,-126.00
2025-12-25 16:02:59.088906,599616701649709033,-131.00
2025-12-25 16:02:59.088906,599616701649709033,-124.00
2025-12-25 16:02:59.088906,599616701649709033,-121.00
2025-12-25 16:02:59.088906,599616701649709033,-126.00
2025-12-25 16:02:59.713642,599616702210584096,-119.00
2025-12-25 16:02:59.713642,599616702210584096,-114.00
2025-12-25 16:02:59.713642,599616702210584096,-117.00
2025-12-25 16:02:59.713642,599616702210584096,-112.00
2025-12-25 16:02:59.713642,599616702210584096,-108.00
2025-12-25 16:02:59.713642,599616702210584096,-110.00
2025-12-25 16:02:59.713642,599616702210584096,-112.00
2025-12-25 16:02:59.713642,599616702210584096,-108.00
2025-12-25 16:02:59.713642,599616702210584096,-103.00
2025-12-25 16:02:59.713642,599616702210584096,-96.00
2025-12-25 16:02:59.713642,599616702210584096,-87.00
2025-12-25 16:02:59.713642,599616702210584096,-91.00
2025-12-25 16:02:59.713642,599616702210584096,-94.00
2025-12-25 16:02:59.713642,599616702210584096,-87.00
2025-12-25 16:02:59.713642,599616702210584096,-87.00
2025-12-25 16:02:59.713642,599616702210584096,-91.00
2025-12-25 16:02:59.713642,599616702210584096,-98.00
2025-12-25 16:02:59.713642,599616702210584096,-103.00
2025-12-25 16:02:59.713642,599616702210584096,-105.00
2025-12-25 16:02:59.713642,599616702210584096,-98.00
2025-12-25 16:02:59.713642,599616702210584096,-82.00
2025-12-25 16:02:59.713642,599616702210584096,-66.00
2025-12-25 16:02:59.713642,599616702210584096,-66.00
2025-12-25 16:02:59.713642,599616702210584096,-85.00
2025-12-25 16:02:59.713642,599616702210584096,-96.00
2025-12-25 16:02:59.713642,599616702210584096,-94.00
2025-12-25 16:02:59.713642,599616702210584096,-96.00
2025-12-25 16:02:59.713642,599616702210584096,-101.00
2025-12-25 16:02:59.713642,599616702210584096,-101.00
2025-12-25 16:02:59.713642,599616702210584096,-94.00
2025-12-25 16:02:59.713642,599616702210584096,-96.00
2025-12-25 16:02:59.713642,599616702210584096,-101.00
2025-12-25 16:02:59.713642,599616702210584096,-96.00
2025-12-25 16:02:59.713642,599616702210584096,-91.00
2025-12-25 16:02:59.713642,599616702210584096,-96.00
2025-12-25 16:02:59.713642,599616702210584096,-101.00
2025-12-25 16:02:59.713642,599616702210584096,-96.00
2025-12-25 16:02:59.713642,599616702210584096,-50.00
2025-12-25 16:02:59.713642,599616702210584096,96.00
2025-12-25 16:02:59.713642,599616702210584096,243.00
2025-12-25 16:02:59.713642,599616702210584096,80.00
2025-12-25 16:02:59.713642,599616702210584096,-305.00
2025-12-25 16:02:59.713642,599616702210584096,-423.00
2025-12-25 16:02:59.713642,599616702210584096,-287.00
2025-12-25 16:02:59.713642,599616702210584096,-216.00
2025-12-25 16:02:59.713642,599616702210584096,-165.00
2025-12-25 16:02:59.713642,599616702210584096,-82.00
2025-12-25 16:02:59.713642,599616702210584096,-66.00
2025-12-25 16:02:59.713642,599616702210584096,-82.00
2025-12-25 16:02:59.713642,599616702210584096,-68.00
2025-12-25 16:02:59.713642,599616702210584096,-50.00
2025-12-25 16:02:59.713642,599616702210584096,-52.00
2025-12-25 16:02:59.713642,599616702210584096,-55.00
2025-12-25 16:02:59.713642,599616702210584096,-52.00
2025-12-25 16:02:59.713642,599616702210584096,-50.00
2025-12-25 16:02:59.713642,599616702210584096,-48.00
2025-12-25 16:02:59.713642,599616702210584096,-39.00
2025-12-25 16:02:59.713642,599616702210584096,-36.00
2025-12-25 16:02:59.713642,599616702210584096,-41.00
2025-12-25 16:02:59.713642,599616702210584096,-39.00
2025-12-25 16:02:59.713642,599616702210584096,-34.00
2025-12-25 16:02:59.713642,599616702210584096,-34.00
2025-12-25 16:02:59.713642,599616702210584096,-27.00
2025-12-25 16:02:59.713642,599616702210584096,-20.00
2025-12-25 16:02:59.713642,599616702210584096,-22.00
2025-12-25 16:02:59.713642,599616702210584096,-27.00
2025-12-25 16:02:59.713642,599616702210584096,-27.00
2025-12-25 16:02:59.713642,599616702210584096,-22.00
2025-12-25 16:02:59.713642,599616702210584096,-25.00
2025-12-25 16:02:59.713642,599616702210584096,-34.00
2025-12-25 16:02:59.713642,599616702210584096,-36.00
2025-12-25 16:02:59.713642,599616702210584096,-48.00
2025-12-25 16:02:59.713642,599616702210584096,-66.00
2025-12-25 16:03:00.279888,599616702771464245,-80.00
2025-12-25 16:03:00.279888,599616702771464245,-91.00
2025-12-25 16:03:00.279888,599616702771464245,-103.00
2025-12-25 16:03:00.279888,599616702771464245,-119.00
2025-12-25 16:03:00.279888,599616702771464245,-131.00
2025-12-25 16:03:00.279888,599616702771464245,-133.00
2025-12-25 16:03:00.279888,599616702771464245,-126.00
2025-12-25 16:03:00.279888,599616702771464245,-124.00
2025-12-25 16:03:00.279888,599616702771464245,-121.00
2025-12-25 16:03:00.279888,599616702771464245,-119.00
2025-12-25 16:03:00.279888,599616702771464245,-110.00
2025-12-25 16:03:00.279888,599616702771464245,-96.00
2025-12-25 16:03:00.279888,599616702771464245,-89.00
2025-12-25 16:03:00.279888,599616702771464245,-82.00
2025-12-25 16:03:00.279888,599616702771464245,-80.00
2025-12-25 16:03:00.279888,599616702771464245,-80.00
2025-12-25 16:03:00.279888,599616702771464245,-82.00
2025-12-25 16:03:00.279888,599616702771464245,-75.00
2025-12-25 16:03:00.279888,599616702771464245,-66.00
2025-12-25 16:03:00.279888,599616702771464245,-68.00
2025-12-25 16:03:00.279888,599616702771464245,-71.00
2025-12-25 16:03:00.279888,599616702771464245,-71.00
2025-12-25 16:03:00.279888,599616702771464245,-85.00
2025-12-25 16:03:00.279888,599616702771464245,-89.00
2025-12-25 16:03:00.279888,599616702771464245,-80.00
2025-12-25 16:03:00.279888,599616702771464245,-82.00
2025-12-25 16:03:00.279888,599616702771464245,-87.00
2025-12-25 16:03:00.279888,599616702771464245,-75.00
2025-12-25 16:03:00.279888,599616702771464245,-68.00
2025-12-25 16:03:00.279888,599616702771464245,-71.00
2025-12-25 16:03:00.279888,599616702771464245,-66.00
2025-12-25 16:03:00.279888,599616702771464245,-78.00
2025-12-25 16:03:00.279888,599616702771464245,-94.00
2025-12-25 16:03:00.279888,599616702771464245,-91.00
2025-12-25 16:03:00.279888,599616702771464245,-87.00
2025-12-25 16:03:00.279888,599616702771464245,-91.00
2025-12-25 16:03:00.279888,599616702771464245,-89.00
2025-12-25 16:03:00.279888,599616702771464245,-85.00
2025-12-25 16:03:00.279888,599616702771464245,-91.00
2025-12-25 16:03:00.279888,599616702771464245,-94.00
2025-12-25 16:03:00.279888,599616702771464245,-89.00
2025-12-25 16:03:00.279888,599616702771464245,-94.00
2025-12-25 16:03:00.279888,599616702771464245,-94.00
2025-12-25 16:03:00.279888,599616702771464245,-55.00
2025-12-25 16:03:00.279888,599616702771464245,78.00
2025-12-25 16:03:00.279888,599616702771464245,243.00
2025-12-25 16:03:00.279888,599616702771464245,128.00
2025-12-25 16:03:00.279888,599616702771464245,-266.00
2025-12-25 16:03:00.279888,599616702771464245,-427.00
2025-12-25 16:03:00.279888,599616702771464245,-294.00
2025-12-25 16:03:00.279888,599616702771464245,-227.00
2025-12-25 16:03:00.279888,599616702771464245,-195.00
2025-12-25 16:03:00.279888,599616702771464245,-103.00
2025-12-25 16:03:00.279888,599616702771464245,-71.00
2025-12-25 16:03:00.279888,599616702771464245,-87.00
2025-12-25 16:03:00.279888,599616702771464245,-75.00
2025-12-25 16:03:00.279888,599616702771464245,-59.00
2025-12-25 16:03:00.279888,599616702771464245,-64.00
2025-12-25 16:03:00.279888,599616702771464245,-62.00
2025-12-25 16:03:00.279888,599616702771464245,-59.00
2025-12-25 16:03:00.279888,599616702771464245,-62.00
2025-12-25 16:03:00.279888,599616702771464245,-59.00
2025-12-25 16:03:00.279888,599616702771464245,-57.00
2025-12-25 16:03:00.279888,599616702771464245,-57.00
2025-12-25 16:03:00.279888,599616702771464245,-57.00
2025-12-25 16:03:00.279888,599616702771464245,-52.00
2025-12-25 16:03:00.279888,599616702771464245,-45.00
2025-12-25 16:03:00.279888,599616702771464245,-43.00
2025-12-25 16:03:00.279888,599616702771464245,-43.00
2025-12-25 16:03:00.279888,599616702771464245,-39.00
2025-12-25 16:03:00.279888,599616702771464245,-36.00
2025-12-25 16:03:00.279888,599616702771464245,-32.00
2025-12-25 16:03:00.279888,599616702771464245,-32.00
2025-12-25 16:03:00.778815,599616703332364738,-39.00
2025-12-25 16:03:00.778815,599616703332364738,-39.00
2025-12-25 16:03:00.778815,599616703332364738,-34.00
2025-12-25 16:03:00.778815,599616703332364738,-39.00
2025-12-25 16:03:00.778815,599616703332364738,-52.00
2025-12-25 16:03:00.778815,599616703332364738,-64.00
2025-12-25 16:03:00.778815,599616703332364738,-82.00
2025-12-25 16:03:00.778815,599616703332364738,-101.00
2025-12-25 16:03:00.778815,599616703332364738,-114.00
2025-12-25 16:03:00.778815,599616703332364738,-117.00
2025-12-25 16:03:00.778815,599616703332364738,-110.00
2025-12-25 16:03:00.778815,599616703332364738,-114.00
2025-12-25 16:03:00.778815,599616703332364738,-121.00
2025-12-25 16:03:00.778815,599616703332364738,-114.00
2025-12-25 16:03:00.778815,599616703332364738,-110.00
2025-12-25 16:03:00.778815,599616703332364738,-110.00
2025-12-25 16:03:00.778815,599616703332364738,-96.00
2025-12-25 16:03:00.778815,599616703332364738,-87.00
2025-12-25 16:03:00.778815,599616703332364738,-89.00
