Timestamp,Device Timestamp (ns),ECG Value (uV)
2025-12-25 16:15:46.769605,599617468965553077,-68.00
2025-12-25 16:15:46.769605,599617468965553077,-64.00
2025-12-25 16:15:46.769605,599617468965553077,-68.00
2025-12-25 16:15:46.769605,599617468965553077,-68.00
2025-12-25 16:15:46.769605,599617468965553077,-66.00
2025-12-25 16:15:46.769605,599617468965553077,-57.00
2025-12-25 16:15:46.769605,599617468965553077,-39.00
2025-12-25 16:15:46.769605,599617468965553077,-27.00
2025-12-25 16:15:46.769605,599617468965553077,-36.00
2025-12-25 16:15:46.769605,599617468965553077,-50.00
2025-12-25 16:15:46.769605,599617468965553077,-52.00
2025-12-25 16:15:46.769605,599617468965553077,-48.00
2025-12-25 16:15:46.769605,599617468965553077,-45.00
2025-12-25 16:15:46.769605,599617468965553077,-48.00
2025-12-25 16:15:46.769605,599617468965553077,-50.00
2025-12-25 16:15:46.769605,599617468965553077,-45.00
2025-12-25 16:15:46.769605,599617468965553077,-45.00
2025-12-25 16:15:46.769605,599617468965553077,-48.00
2025-12-25 16:15:46.769605,599617468965553077,-50.00
2025-12-25 16:15:46.769605,599617468965553077,-57.00
2025-12-25 16:15:46.769605,599617468965553077,-57.00
2025-12-25 16:15:46.769605,599617468965553077,-20.00
2025-12-25 16:15:46.769605,599617468965553077,114.00
2025-12-25 16:15:46.769605,599617468965553077,298.00
2025-12-25 16:15:46.769605,599617468965553077,223.00
2025-12-25 16:15:46.769605,599617468965553077,-186.00
2025-12-25 16:15:46.769605,599617468965553077,-406.00
2025-12-25 16:15:46.769605,599617468965553077,-289.00
2025-12-25 16:15:46.769605,599617468965553077,-211.00
2025-12-25 16:15:46.769605,599617468965553077,-183.00
2025-12-25 16:15:46.769605,599617468965553077,-80.00
2025-12-25 16:15:46.769605,599617468965553077,-32.00
2025-12-25 16:15:46.769605,599617468965553077,-52.00
2025-12-25 16:15:46.769605,599617468965553077,-43.00
2025-12-25 16:15:46.769605,599617468965553077,-22.00
2025-12-25 16:15:46.769605,599617468965553077,-29.00
2025-12-25 16:15:46.769605,599617468965553077,-29.00
2025-12-25 16:15:46.769605,599617468965553077,-22.00
2025-12-25 16:15:46.769605,599617468965553077,-25.00
2025-12-25 16:15:46.769605,599617468965553077,-32.00
2025-12-25 16:15:46.769605,599617468965553077,-20.00
2025-12-25 16:15:46.769605,599617468965553077,-6.00
2025-12-25 16:15:46.769605,599617468965553077,-6.00
2025-12-25 16:15:46.769605,599617468965553077,-6.00
2025-12-25 16:15:46.769605,599617468965553077,4.00
2025-12-25 16:15:46.769605,599617468965553077,13.00
2025-12-25 16:15:46.769605,599617468965553077,11.00
2025-12-25 16:15:46.769605,599617468965553077,9.00
2025-12-25 16:15:46.769605,599617468965553077,11.00
2025-12-25 16:15:46.769605,599617468965553077,9.00
2025-12-25 16:15:46.769605,599617468965553077,2.00
2025-12-25 16:15:46.769605,599617468965553077,0.00
2025-12-25 16:15:46.769605,599617468965553077,-2.00
2025-12-25 16:15:46.769605,599617468965553077,-6.00
2025-12-25 16:15:46.769605,599617468965553077,-9.00
2025-12-25 16:15:46.769605,599617468965553077,-18.00
2025-12-25 16:15:46.769605,599617468965553077,-32.00
2025-12-25 16:15:46.769605,599617468965553077,-50.00
2025-12-25 16:15:46.769605,599617468965553077,-59.00
2025-12-25 16:15:46.769605,599617468965553077,-66.00
2025-12-25 16:15:46.769605,599617468965553077,-85.00
2025-12-25 16:15:46.769605,599617468965553077,-96.00
2025-12-25 16:15:46.769605,599617468965553077,-87.00
2025-12-25 16:15:46.769605,599617468965553077,-78.00
2025-12-25 16:15:46.769605,599617468965553077,-82.00
2025-12-25 16:15:46.769605,599617468965553077,-85.00
2025-12-25 16:15:46.769605,599617468965553077,-82.00
2025-12-25 16:15:46.769605,599617468965553077,-80.00
2025-12-25 16:15:46.769605,599617468965553077,-82.00
2025-12-25 16:15:46.769605,599617468965553077,-78.00
2025-12-25 16:15:46.769605,599617468965553077,-75.00
2025-12-25 16:15:46.769605,599617468965553077,-82.00
2025-12-25 16:15:46.769605,599617468965553077,-75.00
2025-12-25 16:15:46.940260,599617469526489176,-68.00
2025-12-25 16:15:46.940260,599617469526489176,-68.00
2025-12-25 16:15:46.940260,599617469526489176,-75.00
2025-12-25 16:15:46.940260,599617469526489176,-80.00
2025-12-25 16:15:46.940260,599617469526489176,-82.00
2025-12-25 16:15:46.940260,599617469526489176,-82.00
2025-12-25 16:15:46.940260,599617469526489176,-80.00
2025-12-25 16:15:46.940260,599617469526489176,-68.00
2025-12-25 16:15:46.940260,599617469526489176,-55.00
2025-12-25 16:15:46.940260,599617469526489176,-36.00
2025-12-25 16:15:46.940260,599617469526489176,-32.00
2025-12-25 16:15:46.940260,599617469526489176,-43.00
2025-12-25 16:15:46.940260,599617469526489176,-59.00
2025-12-25 16:15:46.940260,599617469526489176,-62.00
2025-12-25 16:15:46.940260,599617469526489176,-50.00
2025-12-25 16:15:46.940260,599617469526489176,-29.00
2025-12-25 16:15:46.940260,599617469526489176,-11.00
2025-12-25 16:15:46.940260,599617469526489176,-18.00
2025-12-25 16:15:46.940260,599617469526489176,-29.00
2025-12-25 16:15:46.940260,599617469526489176,-25.00
2025-12-25 16:15:46.940260,599617469526489176,-22.00
2025-12-25 16:15:46.940260,599617469526489176,-29.00
2025-12-25 16:15:46.940260,599617469526489176,-34.00
2025-12-25 16:15:46.940260,599617469526489176,-18.00
2025-12-25 16:15:46.940260,599617469526489176,68.00
2025-12-25 16:15:46.940260,599617469526489176,259.00
2025-12-25 16:15:46.940260,599617469526489176,333.00
2025-12-25 16:15:46.940260,599617469526489176,18.00
2025-12-25 16:15:46.940260,599617469526489176,-358.00
2025-12-25 16:15:46.940260,599617469526489176,-349.00
2025-12-25 16:15:46.940260,599617469526489176,-209.00
2025-12-25 16:15:46.940260,599617469526489176,-177.00
2025-12-25 16:15:46.940260,599617469526489176,-103.00
2025-12-25 16:15:46.940260,599617469526489176,-18.00
2025-12-25 16:15:46.940260,599617469526489176,-18.00
2025-12-25 16:15:46.940260,599617469526489176,-32.00
2025-12-25 16:15:46.940260,599617469526489176,-18.00
2025-12-25 16:15:46.940260,599617469526489176,-13.00
2025-12-25 16:15:46.940260,599617469526489176,-6.00
2025-12-25 16:15:46.940260,599617469526489176,2.00
2025-12-25 16:15:46.940260,599617469526489176,0.00
2025-12-25 16:15:46.940260,599617469526489176,-9.00
2025-12-25 16:15:46.940260,599617469526489176,-6.00
2025-12-25 16:15:46.940260,599617469526489176,-2.00
2025-12-25 16:15:46.940260,599617469526489176,0.00
2025-12-25 16:15:46.940260,599617469526489176,4.00
2025-12-25 16:15:46.940260,599617469526489176,4.00
2025-12-25 16:15:46.940260,599617469526489176,-2.00
2025-12-25 16:15:46.940260,599617469526489176,-2.00
2025-12-25 16:15:46.940260,599617469526489176,4.00
2025-12-25 16:15:46.940260,599617469526489176,6.00
2025-12-25 16:15:46.940260,599617469526489176,4.00
2025-12-25 16:15:46.940260,599617469526489176,0.00
2025-12-25 16:15:46.940260,599617469526489176,-4.00
2025-12-25 16:15:46.940260,599617469526489176,-6.00
2025-12-25 16:15:46.940260,599617469526489176,-13.00
2025-12-25 16:15:46.940260,599617469526489176,-20.00
2025-12-25 16:15:46.940260,599617469526489176,-27.00
2025-12-25 16:15:46.940260,599617469526489176,-36.00
2025-12-25 16:15:46.940260,599617469526489176,-57.00
2025-12-25 16:15:46.940260,599617469526489176,-73.00
2025-12-25 16:15:46.940260,599617469526489176,-80.00
2025-12-25 16:15:46.940260,599617469526489176,-87.00
2025-12-25 16:15:46.940260,599617469526489176,-89.00
2025-12-25 16:15:46.940260,599617469526489176,-94.00
2025-12-25 16:15:46.940260,599617469526489176,-101.00
2025-12-25 16:15:46.940260,599617469526489176,-103.00
2025-12-25 16:15:46.940260,599617469526489176,-101.00
2025-12-25 16:15:46.940260,599617469526489176,-94.00
2025-12-25 16:15:46.940260,599617469526489176,-87.00
2025-12-25 16:15:46.940260,599617469526489176,-89.00
2025-12-25 16:15:46.940260,599617469526489176,-91.00
2025-12-25 16:15:46.940260,599617469526489176,-91.00
2025-12-25 16:15:47.575181,599617470087399843,-87.00
2025-12-25 16:15:47.575181,599617470087399843,-85.00
2025-12-25 16:15:47.575181,599617470087399843,-91.00
2025-12-25 16:15:47.575181,599617470087399843,-94.00
2025-12-25 16:15:47.575181,599617470087399843,-87.00
2025-12-25 16:15:47.575181,599617470087399843,-87.00
2025-12-25 16:15:47.575181,599617470087399843,-94.00
2025-12-25 16:15:47.575181,599617470087399843,-98.00
2025-12-25 16:15:47.575181,599617470087399843,-98.00
2025-12-25 16:15:47.575181,599617470087399843,-96.00
2025-12-25 16:15:47.575181,599617470087399843,-85.00
2025-12-25 16:15:47.575181,599617470087399843,-73.00
2025-12-25 16:15:47.575181,599617470087399843,-62.00
2025-12-25 16:15:47.575181,599617470087399843,-62.00
2025-12-25 16:15:47.575181,599617470087399843,-71.00
2025-12-25 16:15:47.575181,599617470087399843,-75.00
2025-12-25 16:15:47.575181,599617470087399843,-73.00
2025-12-25 16:15:47.575181,599617470087399843,-68.00
2025-12-25 16:15:47.575181,599617470087399843,-68.00
2025-12-25 16:15:47.575181,599617470087399843,-66.00
2025-12-25 16:15:47.575181,599617470087399843,-62.00
2025-12-25 16:15:47.575181,599617470087399843,-64.00
2025-12-25 16:15:47.575181,599617470087399843,-68.00
2025-12-25 16:15:47.575181,599617470087399843,-55.00
2025-12-25 16:15:47.575181,599617470087399843,-48.00
2025-12-25 16:15:47.575181,599617470087399843,-57.00
2025-12-25 16:15:47.575181,599617470087399843,-52.00
2025-12-25 16:15:47.575181,599617470087399843,20.00
2025-12-25 16:15:47.575181,599617470087399843,200.00
2025-12-25 16:15:47.575181,599617470087399843,312.00
2025-12-25 16:15:47.575181,599617470087399843,57.00
2025-12-25 16:15:47.575181,599617470087399843,-335.00
2025-12-25 16:15:47.575181,599617470087399843,-374.00
2025-12-25 16:15:47.575181,599617470087399843,-225.00
2025-12-25 16:15:47.575181,599617470087399843,-179.00
2025-12-25 16:15:47.575181,599617470087399843,-124.00
2025-12-25 16:15:47.575181,599617470087399843,-39.00
2025-12-25 16:15:47.575181,599617470087399843,-29.00
2025-12-25 16:15:47.575181,599617470087399843,-43.00
2025-12-25 16:15:47.575181,599617470087399843,-29.00
2025-12-25 16:15:47.575181,599617470087399843,-20.00
2025-12-25 16:15:47.575181,599617470087399843,-27.00
2025-12-25 16:15:47.575181,599617470087399843,-22.00
2025-12-25 16:15:47.575181,599617470087399843,-16.00
2025-12-25 16:15:47.575181,599617470087399843,-25.00
2025-12-25 16:15:47.575181,599617470087399843,-27.00
2025-12-25 16:15:47.575181,599617470087399843,-16.00
2025-12-25 16:15:47.575181,599617470087399843,-11.00
2025-12-25 16:15:47.575181,599617470087399843,-13.00
2025-12-25 16:15:47.575181,599617470087399843,-16.00
2025-12-25 16:15:47.575181,599617470087399843,-13.00
2025-12-25 16:15:47.575181,599617470087399843,-9.00
2025-12-25 16:15:47.575181,599617470087399843,-6.00
2025-12-25 16:15:47.575181,599617470087399843,-2.00
2025-12-25 16:15:47.575181,599617470087399843,4.00
2025-12-25 16:15:47.575181,599617470087399843,6.00
2025-12-25 16:15:47.575181,599617470087399843,2.00
2025-12-25 16:15:47.575181,599617470087399843,-4.00
2025-12-25 16:15:47.575181,599617470087399843,-11.00
2025-12-25 16:15:47.575181,599617470087399843,-13.00
2025-12-25 16:15:47.575181,599617470087399843,-20.00
2025-12-25 16:15:47.575181,599617470087399843,-32.00
2025-12-25 16:15:47.575181,599617470087399843,-45.00
2025-12-25 16:15:47.575181,599617470087399843,-66.00
2025-12-25 16:15:47.575181,599617470087399843,-85.00
2025-12-25 16:15:47.575181,599617470087399843,-85.00
2025-12-25 16:15:47.575181,599617470087399843,-89.00
2025-12-25 16:15:47.575181,599617470087399843,-103.00
2025-12-25 16:15:47.575181,599617470087399843,-108.00
2025-12-25 16:15:47.575181,599617470087399843,-108.00
2025-12-25 16:15:47.575181,599617470087399843,-105.00
2025-12-25 16:15:47.575181,599617470087399843,-105.00
2025-12-25 16:15:47.575181,599617470087399843,-101.00
2025-12-25 16:15:48.065852,599617470648310510,-98.00
2025-12-25 16:15:48.065852,599617470648310510,-98.00
2025-12-25 16:15:48.065852,599617470648310510,-98.00
2025-12-25 16:15:48.065852,599617470648310510,-94.00
2025-12-25 16:15:48.065852,599617470648310510,-94.00
2025-12-25 16:15:48.065852,599617470648310510,-94.00
2025-12-25 16:15:48.065852,599617470648310510,-94.00
2025-12-25 16:15:48.065852,599617470648310510,-94.00
2025-12-25 16:15:48.065852,599617470648310510,-89.00
2025-12-25 16:15:48.065852,599617470648310510,-87.00
2025-12-25 16:15:48.065852,599617470648310510,-80.00
2025-12-25 16:15:48.065852,599617470648310510,-75.00
2025-12-25 16:15:48.065852,599617470648310510,-80.00
2025-12-25 16:15:48.065852,599617470648310510,-78.00
2025-12-25 16:15:48.065852,599617470648310510,-71.00
2025-12-25 16:15:48.065852,599617470648310510,-62.00
2025-12-25 16:15:48.065852,599617470648310510,-48.00
2025-12-25 16:15:48.065852,599617470648310510,-50.00
2025-12-25 16:15:48.065852,599617470648310510,-66.00
2025-12-25 16:15:48.065852,599617470648310510,-78.00
2025-12-25 16:15:48.065852,599617470648310510,-73.00
2025-12-25 16:15:48.065852,599617470648310510,-71.00
2025-12-25 16:15:48.065852,599617470648310510,-66.00
2025-12-25 16:15:48.065852,599617470648310510,-55.00
2025-12-25 16:15:48.065852,599617470648310510,-45.00
2025-12-25 16:15:48.065852,599617470648310510,-48.00
2025-12-25 16:15:48.065852,599617470648310510,-55.00
2025-12-25 16:15:48.065852,599617470648310510,-50.00
2025-12-25 16:15:48.065852,599617470648310510,-48.00
2025-12-25 16:15:48.065852,599617470648310510,-50.00
2025-12-25 16:15:48.065852,599617470648310510,-52.00
2025-12-25 16:15:48.065852,599617470648310510,-48.00
2025-12-25 16:15:48.065852,599617470648310510,9.00
2025-12-25 16:15:48.065852,599617470648310510,174.00
2025-12-25 16:15:48.065852,599617470648310510,317.00
2025-12-25 16:15:48.065852,599617470648310510,117.00
2025-12-25 16:15:48.065852,599617470648310510,-296.00
2025-12-25 16:15:48.065852,599617470648310510,-402.00
2025-12-25 16:15:48.065852,599617470648310510,-252.00
2025-12-25 16:15:48.065852,599617470648310510,-183.00
2025-12-25 16:15:48.065852,599617470648310510,-131.00
2025-12-25 16:15:48.065852,599617470648310510,-45.00
2025-12-25 16:15:48.065852,599617470648310510,-34.00
2025-12-25 16:15:48.065852,599617470648310510,-55.00
2025-12-25 16:15:48.065852,599617470648310510,-36.00
2025-12-25 16:15:48.065852,599617470648310510,-22.00
2025-12-25 16:15:48.065852,599617470648310510,-27.00
2025-12-25 16:15:48.065852,599617470648310510,-20.00
2025-12-25 16:15:48.065852,599617470648310510,-18.00
2025-12-25 16:15:48.065852,599617470648310510,-22.00
2025-12-25 16:15:48.065852,599617470648310510,-20.00
2025-12-25 16:15:48.065852,599617470648310510,-11.00
2025-12-25 16:15:48.065852,599617470648310510,-16.00
2025-12-25 16:15:48.065852,599617470648310510,-20.00
2025-12-25 16:15:48.065852,599617470648310510,-13.00
2025-12-25 16:15:48.065852,599617470648310510,-9.00
2025-12-25 16:15:48.065852,599617470648310510,-9.00
2025-12-25 16:15:48.065852,599617470648310510,0.00
2025-12-25 16:15:48.065852,599617470648310510,2.00
2025-12-25 16:15:48.065852,599617470648310510,-2.00
2025-12-25 16:15:48.065852,599617470648310510,-2.00
2025-12-25 16:15:48.065852,599617470648310510,-2.00
2025-12-25 16:15:48.065852,599617470648310510,-6.00
2025-12-25 16:15:48.065852,599617470648310510,-13.00
2025-12-25 16:15:48.065852,599617470648310510,-18.00
2025-12-25 16:15:48.065852,599617470648310510,-22.00
2025-12-25 16:15:48.065852,599617470648310510,-34.00
2025-12-25 16:15:48.065852,599617470648310510,-52.00
2025-12-25 16:15:48.065852,599617470648310510,-64.00
2025-12-25 16:15:48.065852,599617470648310510,-68.00
2025-12-25 16:15:48.065852,599617470648310510,-82.00
2025-12-25 16:15:48.065852,599617470648310510,-101.00
2025-12-25 16:15:48.065852,599617470648310510,-108.00
2025-12-25 16:15:48.595423,599617471209246607,-108.00
2025-12-25 16:15:48.595423,599617471209246607,-110.00
2025-12-25 16:15:48.595423,599617471209246607,-110.00
2025-12-25 16:15:48.595423,599617471209246607,-103.00
2025-12-25 16:15:48.595423,599617471209246607,-98.00
2025-12-25 16:15:48.595423,599617471209246607,-98.00
2025-12-25 16:15:48.595423,599617471209246607,-96.00
2025-12-25 16:15:48.595423,599617471209246607,-85.00
2025-12-25 16:15:48.595423,599617471209246607,-78.00
2025-12-25 16:15:48.595423,599617471209246607,-75.00
2025-12-25 16:15:48.595423,599617471209246607,-71.00
2025-12-25 16:15:48.595423,599617471209246607,-71.00
2025-12-25 16:15:48.595423,599617471209246607,-71.00
2025-12-25 16:15:48.595423,599617471209246607,-68.00
2025-12-25 16:15:48.595423,599617471209246607,-71.00
2025-12-25 16:15:48.595423,599617471209246607,-80.00
2025-12-25 16:15:48.595423,599617471209246607,-73.00
2025-12-25 16:15:48.595423,599617471209246607,-59.00
2025-12-25 16:15:48.595423,599617471209246607,-59.00
2025-12-25 16:15:48.595423,599617471209246607,-68.00
2025-12-25 16:15:48.595423,599617471209246607,-78.00
2025-12-25 16:15:48.595423,599617471209246607,-80.00
2025-12-25 16:15:48.595423,599617471209246607,-66.00
2025-12-25 16:15:48.595423,599617471209246607,-57.00
2025-12-25 16:15:48.595423,599617471209246607,-52.00
2025-12-25 16:15:48.595423,599617471209246607,-45.00
2025-12-25 16:15:48.595423,599617471209246607,-55.00
2025-12-25 16:15:48.595423,599617471209246607,-73.00
2025-12-25 16:15:48.595423,599617471209246607,-71.00
2025-12-25 16:15:48.595423,599617471209246607,-59.00
2025-12-25 16:15:48.595423,599617471209246607,-62.00
2025-12-25 16:15:48.595423,599617471209246607,-66.00
2025-12-25 16:15:48.595423,599617471209246607,-64.00
2025-12-25 16:15:48.595423,599617471209246607,-66.00
2025-12-25 16:15:48.595423,599617471209246607,-68.00
2025-12-25 16:15:48.595423,599617471209246607,-62.00
2025-12-25 16:15:48.595423,599617471209246607,-52.00
2025-12-25 16:15:48.595423,599617471209246607,-50.00
2025-12-25 16:15:48.595423,599617471209246607,-55.00
2025-12-25 16:15:48.595423,599617471209246607,-59.00
2025-12-25 16:15:48.595423,599617471209246607,-25.00
2025-12-25 16:15:48.595423,599617471209246607,114.00
2025-12-25 16:15:48.595423,599617471209246607,301.00
2025-12-25 16:15:48.595423,599617471209246607,227.00
2025-12-25 16:15:48.595423,599617471209246607,-174.00
2025-12-25 16:15:48.595423,599617471209246607,-413.00
2025-12-25 16:15:48.595423,599617471209246607,-303.00
2025-12-25 16:15:48.595423,599617471209246607,-188.00
2025-12-25 16:15:48.595423,599617471209246607,-142.00
2025-12-25 16:15:48.595423,599617471209246607,-71.00
2025-12-25 16:15:48.595423,599617471209246607,-39.00
2025-12-25 16:15:48.595423,599617471209246607,-50.00
2025-12-25 16:15:48.595423,599617471209246607,-41.00
2025-12-25 16:15:48.595423,599617471209246607,-29.00
2025-12-25 16:15:48.595423,599617471209246607,-27.00
2025-12-25 16:15:48.595423,599617471209246607,-25.00
2025-12-25 16:15:48.595423,599617471209246607,-27.00
2025-12-25 16:15:48.595423,599617471209246607,-34.00
2025-12-25 16:15:48.595423,599617471209246607,-34.00
2025-12-25 16:15:48.595423,599617471209246607,-29.00
2025-12-25 16:15:48.595423,599617471209246607,-20.00
2025-12-25 16:15:48.595423,599617471209246607,-16.00
2025-12-25 16:15:48.595423,599617471209246607,-13.00
2025-12-25 16:15:48.595423,599617471209246607,-13.00
2025-12-25 16:15:48.595423,599617471209246607,-18.00
2025-12-25 16:15:48.595423,599617471209246607,-11.00
2025-12-25 16:15:48.595423,599617471209246607,4.00
2025-12-25 16:15:48.595423,599617471209246607,0.00
2025-12-25 16:15:48.595423,599617471209246607,-11.00
2025-12-25 16:15:48.595423,599617471209246607,-4.00
2025-12-25 16:15:48.595423,599617471209246607,0.00
2025-12-25 16:15:48.595423,599617471209246607,2.00
2025-12-25 16:15:48.595423,599617471209246607,-6.00
2025-12-25 16:15:49.212406,599617471770162360,-18.00
2025-12-25 16:15:49.212406,599617471770162360,-22.00
2025-12-25 16:15:49.212406,599617471770162360,-27.00
2025-12-25 16:15:49.212406,599617471770162360,-43.00
2025-12-25 16:15:49.212406,599617471770162360,-48.00
2025-12-25 16:15:49.212406,599617471770162360,-48.00
2025-12-25 16:15:49.212406,599617471770162360,-68.00
2025-12-25 16:15:49.212406,599617471770162360,-89.00
2025-12-25 16:15:49.212406,599617471770162360,-82.00
2025-12-25 16:15:49.212406,599617471770162360,-68.00
2025-12-25 16:15:49.212406,599617471770162360,-68.00
2025-12-25 16:15:49.212406,599617471770162360,-73.00
2025-12-25 16:15:49.212406,599617471770162360,-68.00
2025-12-25 16:15:49.212406,599617471770162360,-59.00
2025-12-25 16:15:49.212406,599617471770162360,-62.00
2025-12-25 16:15:49.212406,599617471770162360,-66.00
2025-12-25 16:15:49.212406,599617471770162360,-62.00
2025-12-25 16:15:49.212406,599617471770162360,-57.00
2025-12-25 16:15:49.212406,599617471770162360,-59.00
2025-12-25 16:15:49.212406,599617471770162360,-68.00
2025-12-25 16:15:49.212406,599617471770162360,-75.00
2025-12-25 16:15:49.212406,599617471770162360,-68.00
2025-12-25 16:15:49.212406,599617471770162360,-59.00
2025-12-25 16:15:49.212406,599617471770162360,-64.00
2025-12-25 16:15:49.212406,599617471770162360,-75.00
2025-12-25 16:15:49.212406,599617471770162360,-78.00
2025-12-25 16:15:49.212406,599617471770162360,-75.00
2025-12-25 16:15:49.212406,599617471770162360,-68.00
2025-12-25 16:15:49.212406,599617471770162360,-71.00
2025-12-25 16:15:49.212406,599617471770162360,-80.00
2025-12-25 16:15:49.212406,599617471770162360,-78.00
2025-12-25 16:15:49.212406,599617471770162360,-71.00
2025-12-25 16:15:49.212406,599617471770162360,-64.00
2025-12-25 16:15:49.212406,599617471770162360,-43.00
2025-12-25 16:15:49.212406,599617471770162360,-22.00
2025-12-25 16:15:49.212406,599617471770162360,-41.00
2025-12-25 16:15:49.212406,599617471770162360,-68.00
2025-12-25 16:15:49.212406,599617471770162360,-68.00
2025-12-25 16:15:49.212406,599617471770162360,-64.00
2025-12-25 16:15:49.212406,599617471770162360,-68.00
2025-12-25 16:15:49.212406,599617471770162360,-64.00
2025-12-25 16:15:49.212406,599617471770162360,-59.00
2025-12-25 16:15:49.212406,599617471770162360,-59.00
2025-12-25 16:15:49.212406,599617471770162360,-59.00
2025-12-25 16:15:49.212406,599617471770162360,-62.00
2025-12-25 16:15:49.212406,599617471770162360,-62.00
2025-12-25 16:15:49.212406,599617471770162360,-57.00
2025-12-25 16:15:49.212406,599617471770162360,-57.00
2025-12-25 16:15:49.212406,599617471770162360,-59.00
2025-12-25 16:15:49.212406,599617471770162360,-50.00
2025-12-25 16:15:49.212406,599617471770162360,50.00
2025-12-25 16:15:49.212406,599617471770162360,248.00
2025-12-25 16:15:49.212406,599617471770162360,264.00
2025-12-25 16:15:49.212406,599617471770162360,-82.00
2025-12-25 16:15:49.212406,599617471770162360,-379.00
2025-12-25 16:15:49.212406,599617471770162360,-319.00
2025-12-25 16:15:49.212406,599617471770162360,-197.00
2025-12-25 16:15:49.212406,599617471770162360,-156.00
2025-12-25 16:15:49.212406,599617471770162360,-82.00
2025-12-25 16:15:49.212406,599617471770162360,-39.00
2025-12-25 16:15:49.212406,599617471770162360,-55.00
2025-12-25 16:15:49.212406,599617471770162360,-55.00
2025-12-25 16:15:49.212406,599617471770162360,-36.00
2025-12-25 16:15:49.212406,599617471770162360,-29.00
2025-12-25 16:15:49.212406,599617471770162360,-27.00
2025-12-25 16:15:49.212406,599617471770162360,-27.00
2025-12-25 16:15:49.212406,599617471770162360,-32.00
2025-12-25 16:15:49.212406,599617471770162360,-29.00
2025-12-25 16:15:49.212406,599617471770162360,-25.00
2025-12-25 16:15:49.212406,599617471770162360,-20.00
2025-12-25 16:15:49.212406,599617471770162360,-16.00
2025-12-25 16:15:49.212406,599617471770162360,-18.00
2025-12-25 16:15:49.212406,599617471770162360,-20.00
2025-12-25 16:15:49.845403,599617472331078117,-9.00
2025-12-25 16:15:49.845403,599617472331078117,6.00
2025-12-25 16:15:49.845403,599617472331078117,11.00
2025-12-25 16:15:49.845403,599617472331078117,6.00
2025-12-25 16:15:49.845403,599617472331078117,6.00
2025-12-25 16:15:49.845403,599617472331078117,6.00
2025-12-25 16:15:49.845403,599617472331078117,2.00
2025-12-25 16:15:49.845403,599617472331078117,9.00
2025-12-25 16:15:49.845403,599617472331078117,16.00
2025-12-25 16:15:49.845403,599617472331078117,6.00
2025-12-25 16:15:49.845403,599617472331078117,-4.00
2025-12-25 16:15:49.845403,599617472331078117,-13.00
2025-12-25 16:15:49.845403,599617472331078117,-25.00
2025-12-25 16:15:49.845403,599617472331078117,-32.00
2025-12-25 16:15:49.845403,599617472331078117,-36.00
2025-12-25 16:15:49.845403,599617472331078117,-48.00
2025-12-25 16:15:49.845403,599617472331078117,-59.00
2025-12-25 16:15:49.845403,599617472331078117,-64.00
2025-12-25 16:15:49.845403,599617472331078117,-68.00
2025-12-25 16:15:49.845403,599617472331078117,-64.00
2025-12-25 16:15:49.845403,599617472331078117,-57.00
2025-12-25 16:15:49.845403,599617472331078117,-62.00
2025-12-25 16:15:49.845403,599617472331078117,-71.00
2025-12-25 16:15:49.845403,599617472331078117,-68.00
2025-12-25 16:15:49.845403,599617472331078117,-59.00
2025-12-25 16:15:49.845403,599617472331078117,-62.00
2025-12-25 16:15:49.845403,599617472331078117,-64.00
2025-12-25 16:15:49.845403,599617472331078117,-62.00
2025-12-25 16:15:49.845403,599617472331078117,-62.00
2025-12-25 16:15:49.845403,599617472331078117,-71.00
2025-12-25 16:15:49.845403,599617472331078117,-75.00
2025-12-25 16:15:49.845403,599617472331078117,-68.00
2025-12-25 16:15:49.845403,599617472331078117,-66.00
2025-12-25 16:15:49.845403,599617472331078117,-66.00
2025-12-25 16:15:49.845403,599617472331078117,-62.00
2025-12-25 16:15:49.845403,599617472331078117,-59.00
2025-12-25 16:15:49.845403,599617472331078117,-57.00
2025-12-25 16:15:49.845403,599617472331078117,-57.00
2025-12-25 16:15:49.845403,599617472331078117,-62.00
2025-12-25 16:15:49.845403,599617472331078117,-64.00
2025-12-25 16:15:49.845403,599617472331078117,-64.00
2025-12-25 16:15:49.845403,599617472331078117,-68.00
2025-12-25 16:15:49.845403,599617472331078117,-68.00
2025-12-25 16:15:49.845403,599617472331078117,-52.00
2025-12-25 16:15:49.845403,599617472331078117,-36.00
2025-12-25 16:15:49.845403,599617472331078117,-39.00
2025-12-25 16:15:49.845403,599617472331078117,-55.00
2025-12-25 16:15:49.845403,599617472331078117,-62.00
2025-12-25 16:15:49.845403,599617472331078117,-59.00
2025-12-25 16:15:49.845403,599617472331078117,-62.00
2025-12-25 16:15:49.845403,599617472331078117,-66.00
2025-12-25 16:15:49.845403,599617472331078117,-62.00
2025-12-25 16:15:49.845403,599617472331078117,-59.00
2025-12-25 16:15:49.845403,599617472331078117,-62.00
2025-12-25 16:15:49.845403,599617472331078117,-62.00
2025-12-25 16:15:49.845403,599617472331078117,-62.00
2025-12-25 16:15:49.845403,599617472331078117,-62.00
2025-12-25 16:15:49.845403,599617472331078117,-59.00
2025-12-25 16:15:49.845403,599617472331078117,-62.00
2025-12-25 16:15:49.845403,599617472331078117,-64.00
2025-12-25 16:15:49.845403,599617472331078117,-25.00
2025-12-25 16:15:49.845403,599617472331078117,114.00
2025-12-25 16:15:49.845403,599617472331078117,282.00
2025-12-25 16:15:49.845403,599617472331078117,163.00
2025-12-25 16:15:49.845403,599617472331078117,-220.00
2025-12-25 16:15:49.845403,599617472331078117,-390.00
2025-12-25 16:15:49.845403,599617472331078117,-266.00
2025-12-25 16:15:49.845403,599617472331078117,-170.00
2025-12-25 16:15:49.845403,599617472331078117,-128.00
2025-12-25 16:15:49.845403,599617472331078117,-62.00
2025-12-25 16:15:49.845403,599617472331078117,-39.00
2025-12-25 16:15:49.845403,599617472331078117,-48.00
2025-12-25 16:15:49.845403,599617472331078117,-32.00
2025-12-25 16:15:50.266910,599617472891993870,-25.00
2025-12-25 16:15:50.266910,599617472891993870,-32.00
2025-12-25 16:15:50.266910,599617472891993870,-29.00
2025-12-25 16:15:50.266910,599617472891993870,-27.00
2025-12-25 16:15:50.266910,599617472891993870,-27.00
2025-12-25 16:15:50.266910,599617472891993870,-25.00
2025-12-25 16:15:50.266910,599617472891993870,-22.00
2025-12-25 16:15:50.266910,599617472891993870,-25.00
2025-12-25 16:15:50.266910,599617472891993870,-27.00
2025-12-25 16:15:50.266910,599617472891993870,-18.00
2025-12-25 16:15:50.266910,599617472891993870,-4.00
2025-12-25 16:15:50.266910,599617472891993870,-2.00
2025-12-25 16:15:50.266910,599617472891993870,-6.00
2025-12-25 16:15:50.266910,599617472891993870,-2.00
2025-12-25 16:15:50.266910,599617472891993870,4.00
2025-12-25 16:15:50.266910,599617472891993870,2.00
2025-12-25 16:15:50.266910,599617472891993870,6.00
2025-12-25 16:15:50.266910,599617472891993870,20.00
2025-12-25 16:15:50.266910,599617472891993870,20.00
2025-12-25 16:15:50.266910,599617472891993870,11.00
2025-12-25 16:15:50.266910,599617472891993870,6.00
2025-12-25 16:15:50.266910,599617472891993870,0.00
2025-12-25 16:15:50.266910,599617472891993870,-6.00
2025-12-25 16:15:50.266910,599617472891993870,-11.00
2025-12-25 16:15:50.266910,599617472891993870,-22.00
2025-12-25 16:15:50.266910,599617472891993870,-39.00
2025-12-25 16:15:50.266910,599617472891993870,-48.00
2025-12-25 16:15:50.266910,599617472891993870,-64.00
2025-12-25 16:15:50.266910,599617472891993870,-73.00
2025-12-25 16:15:50.266910,599617472891993870,-66.00
2025-12-25 16:15:50.266910,599617472891993870,-66.00
2025-12-25 16:15:50.266910,599617472891993870,-73.00
2025-12-25 16:15:50.266910,599617472891993870,-73.00
2025-12-25 16:15:50.266910,599617472891993870,-66.00
2025-12-25 16:15:50.266910,599617472891993870,-64.00
2025-12-25 16:15:50.266910,599617472891993870,-66.00
2025-12-25 16:15:50.266910,599617472891993870,-64.00
2025-12-25 16:15:50.266910,599617472891993870,-62.00
2025-12-25 16:15:50.266910,599617472891993870,-62.00
2025-12-25 16:15:50.266910,599617472891993870,-59.00
2025-12-25 16:15:50.266910,599617472891993870,-57.00
2025-12-25 16:15:50.266910,599617472891993870,-62.00
2025-12-25 16:15:50.266910,599617472891993870,-64.00
2025-12-25 16:15:50.266910,599617472891993870,-62.00
2025-12-25 16:15:50.266910,599617472891993870,-59.00
2025-12-25 16:15:50.266910,599617472891993870,-59.00
2025-12-25 16:15:50.266910,599617472891993870,-57.00
2025-12-25 16:15:50.266910,599617472891993870,-57.00
2025-12-25 16:15:50.266910,599617472891993870,-62.00
2025-12-25 16:15:50.266910,599617472891993870,-68.00
2025-12-25 16:15:50.266910,599617472891993870,-71.00
2025-12-25 16:15:50.266910,599617472891993870,-71.00
2025-12-25 16:15:50.266910,599617472891993870,-71.00
2025-12-25 16:15:50.266910,599617472891993870,-68.00
2025-12-25 16:15:50.266910,599617472891993870,-62.00
2025-12-25 16:15:50.266910,599617472891993870,-50.00
2025-12-25 16:15:50.266910,599617472891993870,-43.00
2025-12-25 16:15:50.266910,599617472891993870,-50.00
2025-12-25 16:15:50.266910,599617472891993870,-62.00
2025-12-25 16:15:50.266910,599617472891993870,-66.00
2025-12-25 16:15:50.266910,599617472891993870,-66.00
2025-12-25 16:15:50.266910,599617472891993870,-68.00
2025-12-25 16:15:50.266910,599617472891993870,-64.00
2025-12-25 16:15:50.266910,599617472891993870,-62.00
2025-12-25 16:15:50.266910,599617472891993870,-68.00
2025-12-25 16:15:50.266910,599617472891993870,-75.00
2025-12-25 16:15:50.266910,599617472891993870,-71.00
2025-12-25 16:15:50.266910,599617472891993870,-68.00
2025-12-25 16:15:50.266910,599617472891993870,-68.00
2025-12-25 16:15:50.266910,599617472891993870,-71.00
2025-12-25 16:15:50.266910,599617472891993870,-75.00
2025-12-25 16:15:50.266910,599617472891993870,-59.00
2025-12-25 16:15:50.266910,599617472891993870,52.00
2025-12-25 16:15:50.990913,599617473452909623,243.00
2025-12-25 16:15:50.990913,599617473452909623,225.00
2025-12-25 16:15:50.990913,599617473452909623,-133.00
2025-12-25 16:15:50.990913,599617473452909623,-397.00
2025-12-25 16:15:50.990913,599617473452909623,-314.00
2025-12-25 16:15:50.990913,599617473452909623,-197.00
2025-12-25 16:15:50.990913,599617473452909623,-156.00
2025-12-25 16:15:50.990913,599617473452909623,-75.00
2025-12-25 16:15:50.990913,599617473452909623,-29.00
2025-12-25 16:15:50.990913,599617473452909623,-41.00
2025-12-25 16:15:50.990913,599617473452909623,-41.00
2025-12-25 16:15:50.990913,599617473452909623,-27.00
2025-12-25 16:15:50.990913,599617473452909623,-27.00
2025-12-25 16:15:50.990913,599617473452909623,-29.00
2025-12-25 16:15:50.990913,599617473452909623,-22.00
2025-12-25 16:15:50.990913,599617473452909623,-22.00
2025-12-25 16:15:50.990913,599617473452909623,-22.00
2025-12-25 16:15:50.990913,599617473452909623,-20.00
2025-12-25 16:15:50.990913,599617473452909623,-18.00
2025-12-25 16:15:50.990913,599617473452909623,-18.00
2025-12-25 16:15:50.990913,599617473452909623,-11.00
2025-12-25 16:15:50.990913,599617473452909623,-4.00
2025-12-25 16:15:50.990913,599617473452909623,-2.00
2025-12-25 16:15:50.990913,599617473452909623,-2.00
2025-12-25 16:15:50.990913,599617473452909623,0.00
2025-12-25 16:15:50.990913,599617473452909623,6.00
2025-12-25 16:15:50.990913,599617473452909623,9.00
2025-12-25 16:15:50.990913,599617473452909623,0.00
2025-12-25 16:15:50.990913,599617473452909623,-4.00
2025-12-25 16:15:50.990913,599617473452909623,-6.00
2025-12-25 16:15:50.990913,599617473452909623,-9.00
2025-12-25 16:15:50.990913,599617473452909623,-11.00
2025-12-25 16:15:50.990913,599617473452909623,-13.00
2025-12-25 16:15:50.990913,599617473452909623,-22.00
2025-12-25 16:15:50.990913,599617473452909623,-32.00
2025-12-25 16:15:50.990913,599617473452909623,-48.00
2025-12-25 16:15:50.990913,599617473452909623,-64.00
2025-12-25 16:15:50.990913,599617473452909623,-68.00
2025-12-25 16:15:50.990913,599617473452909623,-73.00
2025-12-25 16:15:50.990913,599617473452909623,-80.00
2025-12-25 16:15:50.990913,599617473452909623,-82.00
2025-12-25 16:15:50.990913,599617473452909623,-78.00
2025-12-25 16:15:50.990913,599617473452909623,-71.00
2025-12-25 16:15:50.990913,599617473452909623,-66.00
2025-12-25 16:15:50.990913,599617473452909623,-68.00
2025-12-25 16:15:50.990913,599617473452909623,-71.00
2025-12-25 16:15:50.990913,599617473452909623,-71.00
2025-12-25 16:15:50.990913,599617473452909623,-71.00
2025-12-25 16:15:50.990913,599617473452909623,-71.00
2025-12-25 16:15:50.990913,599617473452909623,-66.00
2025-12-25 16:15:50.990913,599617473452909623,-64.00
2025-12-25 16:15:50.990913,599617473452909623,-71.00
2025-12-25 16:15:50.990913,599617473452909623,-68.00
2025-12-25 16:15:50.990913,599617473452909623,-62.00
2025-12-25 16:15:50.990913,599617473452909623,-64.00
2025-12-25 16:15:50.990913,599617473452909623,-66.00
2025-12-25 16:15:50.990913,599617473452909623,-59.00
2025-12-25 16:15:50.990913,599617473452909623,-66.00
2025-12-25 16:15:50.990913,599617473452909623,-78.00
2025-12-25 16:15:50.990913,599617473452909623,-75.00
2025-12-25 16:15:50.990913,599617473452909623,-73.00
2025-12-25 16:15:50.990913,599617473452909623,-75.00
2025-12-25 16:15:50.990913,599617473452909623,-80.00
2025-12-25 16:15:50.990913,599617473452909623,-80.00
2025-12-25 16:15:50.990913,599617473452909623,-71.00
2025-12-25 16:15:50.990913,599617473452909623,-55.00
2025-12-25 16:15:50.990913,599617473452909623,-43.00
2025-12-25 16:15:50.990913,599617473452909623,-52.00
2025-12-25 16:15:50.990913,599617473452909623,-68.00
2025-12-25 16:15:50.990913,599617473452909623,-78.00
2025-12-25 16:15:50.990913,599617473452909623,-80.00
2025-12-25 16:15:50.990913,599617473452909623,-75.00
2025-12-25 16:15:50.990913,599617473452909623,-73.00
2025-12-25 16:15:51.465673,599617474013835550,-75.00
2025-12-25 16:15:51.465673,599617474013835550,-78.00
2025-12-25 16:15:51.465673,599617474013835550,-80.00
2025-12-25 16:15:51.465673,599617474013835550,-78.00
2025-12-25 16:15:51.465673,599617474013835550,-73.00
2025-12-25 16:15:51.465673,599617474013835550,-75.00
2025-12-25 16:15:51.465673,599617474013835550,-80.00
2025-12-25 16:15:51.465673,599617474013835550,-62.00
2025-12-25 16:15:51.465673,599617474013835550,45.00
2025-12-25 16:15:51.465673,599617474013835550,241.00
2025-12-25 16:15:51.465673,599617474013835550,241.00
2025-12-25 16:15:51.465673,599617474013835550,-121.00
2025-12-25 16:15:51.465673,599617474013835550,-404.00
2025-12-25 16:15:51.465673,599617474013835550,-328.00
2025-12-25 16:15:51.465673,599617474013835550,-234.00
2025-12-25 16:15:51.465673,599617474013835550,-218.00
2025-12-25 16:15:51.465673,599617474013835550,-124.00
2025-12-25 16:15:51.465673,599617474013835550,-48.00
2025-12-25 16:15:51.465673,599617474013835550,-59.00
2025-12-25 16:15:51.465673,599617474013835550,-62.00
2025-12-25 16:15:51.465673,599617474013835550,-48.00
2025-12-25 16:15:51.465673,599617474013835550,-50.00
2025-12-25 16:15:51.465673,599617474013835550,-43.00
2025-12-25 16:15:51.465673,599617474013835550,-20.00
2025-12-25 16:15:51.465673,599617474013835550,-13.00
2025-12-25 16:15:51.465673,599617474013835550,-18.00
2025-12-25 16:15:51.465673,599617474013835550,-13.00
2025-12-25 16:15:51.465673,599617474013835550,-2.00
2025-12-25 16:15:51.465673,599617474013835550,6.00
2025-12-25 16:15:51.465673,599617474013835550,18.00
2025-12-25 16:15:51.465673,599617474013835550,20.00
2025-12-25 16:15:51.465673,599617474013835550,18.00
2025-12-25 16:15:51.465673,599617474013835550,18.00
2025-12-25 16:15:51.465673,599617474013835550,20.00
2025-12-25 16:15:51.465673,599617474013835550,22.00
2025-12-25 16:15:51.465673,599617474013835550,22.00
2025-12-25 16:15:51.465673,599617474013835550,25.00
2025-12-25 16:15:51.465673,599617474013835550,22.00
2025-12-25 16:15:51.465673,599617474013835550,13.00
2025-12-25 16:15:51.465673,599617474013835550,6.00
2025-12-25 16:15:51.465673,599617474013835550,0.00
2025-12-25 16:15:51.465673,599617474013835550,-2.00
2025-12-25 16:15:51.465673,599617474013835550,-13.00
2025-12-25 16:15:51.465673,599617474013835550,-29.00
2025-12-25 16:15:51.465673,599617474013835550,-34.00
2025-12-25 16:15:51.465673,599617474013835550,-39.00
2025-12-25 16:15:51.465673,599617474013835550,-48.00
2025-12-25 16:15:51.465673,599617474013835550,-57.00
2025-12-25 16:15:51.465673,599617474013835550,-62.00
2025-12-25 16:15:51.465673,599617474013835550,-64.00
2025-12-25 16:15:51.465673,599617474013835550,-62.00
2025-12-25 16:15:51.465673,599617474013835550,-62.00
2025-12-25 16:15:51.465673,599617474013835550,-66.00
2025-12-25 16:15:51.465673,599617474013835550,-64.00
2025-12-25 16:15:51.465673,599617474013835550,-59.00
2025-12-25 16:15:51.465673,599617474013835550,-64.00
2025-12-25 16:15:51.465673,599617474013835550,-59.00
2025-12-25 16:15:51.465673,599617474013835550,-50.00
2025-12-25 16:15:51.465673,599617474013835550,-50.00
2025-12-25 16:15:51.465673,599617474013835550,-57.00
2025-12-25 16:15:51.465673,599617474013835550,-57.00
2025-12-25 16:15:51.465673,599617474013835550,-59.00
2025-12-25 16:15:51.465673,599617474013835550,-66.00
2025-12-25 16:15:51.465673,599617474013835550,-66.00
2025-12-25 16:15:51.465673,599617474013835550,-66.00
2025-12-25 16:15:51.465673,599617474013835550,-73.00
2025-12-25 16:15:51.465673,599617474013835550,-80.00
2025-12-25 16:15:51.465673,599617474013835550,-85.00
2025-12-25 16:15:51.465673,599617474013835550,-80.00
2025-12-25 16:15:51.465673,599617474013835550,-80.00
2025-12-25 16:15:51.465673,599617474013835550,-78.00
2025-12-25 16:15:51.465673,599617474013835550,-68.00
2025-12-25 16:15:51.465673,599617474013835550,-59.00
2025-12-25 16:15:52.024885,599617474574771647,-62.00
2025-12-25 16:15:52.024885,599617474574771647,-73.00
2025-12-25 16:15:52.024885,599617474574771647,-87.00
2025-12-25 16:15:52.024885,599617474574771647,-87.00
2025-12-25 16:15:52.024885,599617474574771647,-82.00
2025-12-25 16:15:52.024885,599617474574771647,-80.00
2025-12-25 16:15:52.024885,599617474574771647,-78.00
2025-12-25 16:15:52.024885,599617474574771647,-80.00
2025-12-25 16:15:52.024885,599617474574771647,-71.00
2025-12-25 16:15:52.024885,599617474574771647,-52.00
2025-12-25 16:15:52.024885,599617474574771647,-52.00
2025-12-25 16:15:52.024885,599617474574771647,-62.00
2025-12-25 16:15:52.024885,599617474574771647,-66.00
2025-12-25 16:15:52.024885,599617474574771647,-62.00
2025-12-25 16:15:52.024885,599617474574771647,-13.00
2025-12-25 16:15:52.024885,599617474574771647,151.00
2025-12-25 16:15:52.024885,599617474574771647,333.00
2025-12-25 16:15:52.024885,599617474574771647,202.00
2025-12-25 16:15:52.024885,599617474574771647,-216.00
2025-12-25 16:15:52.024885,599617474574771647,-393.00
2025-12-25 16:15:52.024885,599617474574771647,-259.00
2025-12-25 16:15:52.024885,599617474574771647,-179.00
2025-12-25 16:15:52.024885,599617474574771647,-142.00
2025-12-25 16:15:52.024885,599617474574771647,-55.00
2025-12-25 16:15:52.024885,599617474574771647,-29.00
2025-12-25 16:15:52.024885,599617474574771647,-50.00
2025-12-25 16:15:52.024885,599617474574771647,-36.00
2025-12-25 16:15:52.024885,599617474574771647,-22.00
2025-12-25 16:15:52.024885,599617474574771647,-36.00
2025-12-25 16:15:52.024885,599617474574771647,-36.00
2025-12-25 16:15:52.024885,599617474574771647,-25.00
2025-12-25 16:15:52.024885,599617474574771647,-22.00
2025-12-25 16:15:52.024885,599617474574771647,-20.00
2025-12-25 16:15:52.024885,599617474574771647,-20.00
2025-12-25 16:15:52.024885,599617474574771647,-20.00
2025-12-25 16:15:52.024885,599617474574771647,-13.00
2025-12-25 16:15:52.024885,599617474574771647,-9.00
2025-12-25 16:15:52.024885,599617474574771647,-4.00
2025-12-25 16:15:52.024885,599617474574771647,4.00
2025-12-25 16:15:52.024885,599617474574771647,11.00
2025-12-25 16:15:52.024885,599617474574771647,6.00
2025-12-25 16:15:52.024885,599617474574771647,9.00
2025-12-25 16:15:52.024885,599617474574771647,13.00
2025-12-25 16:15:52.024885,599617474574771647,6.00
2025-12-25 16:15:52.024885,599617474574771647,0.00
2025-12-25 16:15:52.024885,599617474574771647,0.00
2025-12-25 16:15:52.024885,599617474574771647,-6.00
2025-12-25 16:15:52.024885,599617474574771647,-16.00
2025-12-25 16:15:52.024885,599617474574771647,-16.00
2025-12-25 16:15:52.024885,599617474574771647,-25.00
2025-12-25 16:15:52.024885,599617474574771647,-43.00
2025-12-25 16:15:52.024885,599617474574771647,-52.00
2025-12-25 16:15:52.024885,599617474574771647,-62.00
2025-12-25 16:15:52.024885,599617474574771647,-73.00
2025-12-25 16:15:52.024885,599617474574771647,-80.00
2025-12-25 16:15:52.024885,599617474574771647,-78.00
2025-12-25 16:15:52.024885,599617474574771647,-75.00
2025-12-25 16:15:52.024885,599617474574771647,-78.00
2025-12-25 16:15:52.024885,599617474574771647,-73.00
2025-12-25 16:15:52.024885,599617474574771647,-68.00
2025-12-25 16:15:52.024885,599617474574771647,-64.00
2025-12-25 16:15:52.024885,599617474574771647,-64.00
2025-12-25 16:15:52.024885,599617474574771647,-68.00
2025-12-25 16:15:52.024885,599617474574771647,-71.00
2025-12-25 16:15:52.024885,599617474574771647,-71.00
2025-12-25 16:15:52.024885,599617474574771647,-75.00
2025-12-25 16:15:52.024885,599617474574771647,-78.00
2025-12-25 16:15:52.024885,599617474574771647,-68.00
2025-12-25 16:15:52.024885,599617474574771647,-62.00
2025-12-25 16:15:52.024885,599617474574771647,-71.00
2025-12-25 16:15:52.024885,599617474574771647,-78.00
2025-12-25 16:15:52.024885,599617474574771647,-78.00
2025-12-25 16:15:52.024885,599617474574771647,-71.00
2025-12-25 16:15:52.580309,599617475135656884,-73.00
2025-12-25 16:15:52.580309,599617475135656884,-80.00
2025-12-25 16:15:52.580309,599617475135656884,-85.00
2025-12-25 16:15:52.580309,599617475135656884,-85.00
2025-12-25 16:15:52.580309,599617475135656884,-75.00
2025-12-25 16:15:52.580309,599617475135656884,-57.00
2025-12-25 16:15:52.580309,599617475135656884,-39.00
2025-12-25 16:15:52.580309,599617475135656884,-36.00
2025-12-25 16:15:52.580309,599617475135656884,-48.00
2025-12-25 16:15:52.580309,599617475135656884,-57.00
2025-12-25 16:15:52.580309,599617475135656884,-59.00
2025-12-25 16:15:52.580309,599617475135656884,-50.00
2025-12-25 16:15:52.580309,599617475135656884,-36.00
2025-12-25 16:15:52.580309,599617475135656884,-41.00
2025-12-25 16:15:52.580309,599617475135656884,-52.00
2025-12-25 16:15:52.580309,599617475135656884,-48.00
2025-12-25 16:15:52.580309,599617475135656884,-41.00
2025-12-25 16:15:52.580309,599617475135656884,-43.00
2025-12-25 16:15:52.580309,599617475135656884,-43.00
2025-12-25 16:15:52.580309,599617475135656884,-50.00
2025-12-25 16:15:52.580309,599617475135656884,-55.00
2025-12-25 16:15:52.580309,599617475135656884,-22.00
2025-12-25 16:15:52.580309,599617475135656884,110.00
2025-12-25 16:15:52.580309,599617475135656884,308.00
2025-12-25 16:15:52.580309,599617475135656884,271.00
2025-12-25 16:15:52.580309,599617475135656884,-112.00
2025-12-25 16:15:52.580309,599617475135656884,-397.00
2025-12-25 16:15:52.580309,599617475135656884,-321.00
2025-12-25 16:15:52.580309,599617475135656884,-186.00
2025-12-25 16:15:52.580309,599617475135656884,-128.00
2025-12-25 16:15:52.580309,599617475135656884,-62.00
2025-12-25 16:15:52.580309,599617475135656884,-29.00
2025-12-25 16:15:52.580309,599617475135656884,-43.00
2025-12-25 16:15:52.580309,599617475135656884,-39.00
2025-12-25 16:15:52.580309,599617475135656884,-20.00
2025-12-25 16:15:52.580309,599617475135656884,-16.00
2025-12-25 16:15:52.580309,599617475135656884,-20.00
2025-12-25 16:15:52.580309,599617475135656884,-22.00
2025-12-25 16:15:52.580309,599617475135656884,-18.00
2025-12-25 16:15:52.580309,599617475135656884,-16.00
2025-12-25 16:15:52.580309,599617475135656884,-13.00
2025-12-25 16:15:52.580309,599617475135656884,-9.00
2025-12-25 16:15:52.580309,599617475135656884,-9.00
2025-12-25 16:15:52.580309,599617475135656884,-9.00
2025-12-25 16:15:52.580309,599617475135656884,-4.00
2025-12-25 16:15:52.580309,599617475135656884,2.00
2025-12-25 16:15:52.580309,599617475135656884,11.00
2025-12-25 16:15:52.580309,599617475135656884,11.00
2025-12-25 16:15:52.580309,599617475135656884,2.00
2025-12-25 16:15:52.580309,599617475135656884,2.00
2025-12-25 16:15:52.580309,599617475135656884,11.00
2025-12-25 16:15:52.580309,599617475135656884,2.00
2025-12-25 16:15:52.580309,599617475135656884,-4.00
2025-12-25 16:15:52.580309,599617475135656884,-2.00
2025-12-25 16:15:52.580309,599617475135656884,-9.00
2025-12-25 16:15:52.580309,599617475135656884,-27.00
2025-12-25 16:15:52.580309,599617475135656884,-34.00
2025-12-25 16:15:52.580309,599617475135656884,-39.00
2025-12-25 16:15:52.580309,599617475135656884,-48.00
2025-12-25 16:15:52.580309,599617475135656884,-66.00
2025-12-25 16:15:52.580309,599617475135656884,-85.00
2025-12-25 16:15:52.580309,599617475135656884,-82.00
2025-12-25 16:15:52.580309,599617475135656884,-78.00
2025-12-25 16:15:52.580309,599617475135656884,-82.00
2025-12-25 16:15:52.580309,599617475135656884,-80.00
2025-12-25 16:15:52.580309,599617475135656884,-68.00
2025-12-25 16:15:52.580309,599617475135656884,-62.00
2025-12-25 16:15:52.580309,599617475135656884,-66.00
2025-12-25 16:15:52.580309,599617475135656884,-71.00
2025-12-25 16:15:52.580309,599617475135656884,-66.00
2025-12-25 16:15:52.580309,599617475135656884,-64.00
2025-12-25 16:15:52.580309,599617475135656884,-66.00
2025-12-25 16:15:52.580309,599617475135656884,-64.00
2025-12-25 16:15:53.207195,599617475696603157,-62.00
2025-12-25 16:15:53.207195,599617475696603157,-66.00
2025-12-25 16:15:53.207195,599617475696603157,-59.00
2025-12-25 16:15:53.207195,599617475696603157,-43.00
2025-12-25 16:15:53.207195,599617475696603157,-50.00
2025-12-25 16:15:53.207195,599617475696603157,-68.00
2025-12-25 16:15:53.207195,599617475696603157,-73.00
2025-12-25 16:15:53.207195,599617475696603157,-71.00
2025-12-25 16:15:53.207195,599617475696603157,-71.00
2025-12-25 16:15:53.207195,599617475696603157,-64.00
2025-12-25 16:15:53.207195,599617475696603157,-62.00
2025-12-25 16:15:53.207195,599617475696603157,-57.00
2025-12-25 16:15:53.207195,599617475696603157,-50.00
2025-12-25 16:15:53.207195,599617475696603157,-48.00
2025-12-25 16:15:53.207195,599617475696603157,-43.00
2025-12-25 16:15:53.207195,599617475696603157,-41.00
2025-12-25 16:15:53.207195,599617475696603157,-55.00
2025-12-25 16:15:53.207195,599617475696603157,-71.00
2025-12-25 16:15:53.207195,599617475696603157,-73.00
2025-12-25 16:15:53.207195,599617475696603157,-73.00
2025-12-25 16:15:53.207195,599617475696603157,-71.00
2025-12-25 16:15:53.207195,599617475696603157,-64.00
2025-12-25 16:15:53.207195,599617475696603157,-62.00
2025-12-25 16:15:53.207195,599617475696603157,-57.00
2025-12-25 16:15:53.207195,599617475696603157,-55.00
2025-12-25 16:15:53.207195,599617475696603157,-59.00
2025-12-25 16:15:53.207195,599617475696603157,-57.00
2025-12-25 16:15:53.207195,599617475696603157,-48.00
2025-12-25 16:15:53.207195,599617475696603157,-20.00
2025-12-25 16:15:53.207195,599617475696603157,105.00
2025-12-25 16:15:53.207195,599617475696603157,301.00
2025-12-25 16:15:53.207195,599617475696603157,245.00
2025-12-25 16:15:53.207195,599617475696603157,-151.00
2025-12-25 16:15:53.207195,599617475696603157,-409.00
2025-12-25 16:15:53.207195,599617475696603157,-305.00
2025-12-25 16:15:53.207195,599617475696603157,-183.00
2025-12-25 16:15:53.207195,599617475696603157,-147.00
2025-12-25 16:15:53.207195,599617475696603157,-78.00
2025-12-25 16:15:53.207195,599617475696603157,-29.00
2025-12-25 16:15:53.207195,599617475696603157,-36.00
2025-12-25 16:15:53.207195,599617475696603157,-34.00
2025-12-25 16:15:53.207195,599617475696603157,-27.00
2025-12-25 16:15:53.207195,599617475696603157,-32.00
2025-12-25 16:15:53.207195,599617475696603157,-27.00
2025-12-25 16:15:53.207195,599617475696603157,-22.00
2025-12-25 16:15:53.207195,599617475696603157,-29.00
2025-12-25 16:15:53.207195,599617475696603157,-22.00
2025-12-25 16:15:53.207195,599617475696603157,-16.00
2025-12-25 16:15:53.207195,599617475696603157,-16.00
2025-12-25 16:15:53.207195,599617475696603157,-13.00
2025-12-25 16:15:53.207195,599617475696603157,-11.00
2025-12-25 16:15:53.207195,599617475696603157,-9.00
2025-12-25 16:15:53.207195,599617475696603157,-4.00
2025-12-25 16:15:53.207195,599617475696603157,0.00
2025-12-25 16:15:53.207195,599617475696603157,2.00
2025-12-25 16:15:53.207195,599617475696603157,-4.00
2025-12-25 16:15:53.207195,599617475696603157,-6.00
2025-12-25 16:15:53.207195,599617475696603157,0.00
2025-12-25 16:15:53.207195,599617475696603157,2.00
2025-12-25 16:15:53.207195,599617475696603157,-4.00
2025-12-25 16:15:53.207195,599617475696603157,-11.00
2025-12-25 16:15:53.207195,599617475696603157,-13.00
2025-12-25 16:15:53.207195,599617475696603157,-20.00
2025-12-25 16:15:53.207195,599617475696603157,-27.00
2025-12-25 16:15:53.207195,599617475696603157,-41.00
2025-12-25 16:15:53.207195,599617475696603157,-55.00
2025-12-25 16:15:53.207195,599617475696603157,-55.00
2025-12-25 16:15:53.207195,599617475696603157,-59.00
2025-12-25 16:15:53.207195,599617475696603157,-73.00
2025-12-25 16:15:53.207195,599617475696603157,-78.00
2025-12-25 16:15:53.207195,599617475696603157,-80.00
2025-12-25 16:15:53.207195,599617475696603157,-78.00
2025-12-25 16:15:53.207195,599617475696603157,-75.00
2025-12-25 16:15:53.736818,599617476257518910,-73.00
2025-12-25 16:15:53.736818,599617476257518910,-66.00
2025-12-25 16:15:53.736818,599617476257518910,-57.00
2025-12-25 16:15:53.736818,599617476257518910,-57.00
2025-12-25 16:15:53.736818,599617476257518910,-66.00
2025-12-25 16:15:53.736818,599617476257518910,-68.00
2025-12-25 16:15:53.736818,599617476257518910,-64.00
2025-12-25 16:15:53.736818,599617476257518910,-62.00
2025-12-25 16:15:53.736818,599617476257518910,-64.00
2025-12-25 16:15:53.736818,599617476257518910,-64.00
2025-12-25 16:15:53.736818,599617476257518910,-64.00
2025-12-25 16:15:53.736818,599617476257518910,-59.00
2025-12-25 16:15:53.736818,599617476257518910,-52.00
2025-12-25 16:15:53.736818,599617476257518910,-50.00
2025-12-25 16:15:53.736818,599617476257518910,-55.00
2025-12-25 16:15:53.736818,599617476257518910,-52.00
2025-12-25 16:15:53.736818,599617476257518910,-48.00
2025-12-25 16:15:53.736818,599617476257518910,-48.00
2025-12-25 16:15:53.736818,599617476257518910,-41.00
2025-12-25 16:15:53.736818,599617476257518910,-27.00
2025-12-25 16:15:53.736818,599617476257518910,-16.00
2025-12-25 16:15:53.736818,599617476257518910,-13.00
2025-12-25 16:15:53.736818,599617476257518910,-29.00
2025-12-25 16:15:53.736818,599617476257518910,-43.00
2025-12-25 16:15:53.736818,599617476257518910,-45.00
2025-12-25 16:15:53.736818,599617476257518910,-52.00
2025-12-25 16:15:53.736818,599617476257518910,-57.00
2025-12-25 16:15:53.736818,599617476257518910,-59.00
2025-12-25 16:15:53.736818,599617476257518910,-57.00
2025-12-25 16:15:53.736818,599617476257518910,-57.00
2025-12-25 16:15:53.736818,599617476257518910,-62.00
2025-12-25 16:15:53.736818,599617476257518910,-64.00
2025-12-25 16:15:53.736818,599617476257518910,-59.00
2025-12-25 16:15:53.736818,599617476257518910,-64.00
2025-12-25 16:15:53.736818,599617476257518910,-78.00
2025-12-25 16:15:53.736818,599617476257518910,-64.00
2025-12-25 16:15:53.736818,599617476257518910,39.00
2025-12-25 16:15:53.736818,599617476257518910,223.00
2025-12-25 16:15:53.736818,599617476257518910,252.00
2025-12-25 16:15:53.736818,599617476257518910,-82.00
2025-12-25 16:15:53.736818,599617476257518910,-413.00
2025-12-25 16:15:53.736818,599617476257518910,-370.00
2025-12-25 16:15:53.736818,599617476257518910,-225.00
2025-12-25 16:15:53.736818,599617476257518910,-181.00
2025-12-25 16:15:53.736818,599617476257518910,-119.00
2025-12-25 16:15:53.736818,599617476257518910,-64.00
2025-12-25 16:15:53.736818,599617476257518910,-66.00
2025-12-25 16:15:53.736818,599617476257518910,-71.00
2025-12-25 16:15:53.736818,599617476257518910,-64.00
2025-12-25 16:15:53.736818,599617476257518910,-62.00
2025-12-25 16:15:53.736818,599617476257518910,-55.00
2025-12-25 16:15:53.736818,599617476257518910,-52.00
2025-12-25 16:15:53.736818,599617476257518910,-57.00
2025-12-25 16:15:53.736818,599617476257518910,-50.00
2025-12-25 16:15:53.736818,599617476257518910,-43.00
2025-12-25 16:15:53.736818,599617476257518910,-48.00
2025-12-25 16:15:53.736818,599617476257518910,-52.00
2025-12-25 16:15:53.736818,599617476257518910,-43.00
2025-12-25 16:15:53.736818,599617476257518910,-34.00
2025-12-25 16:15:53.736818,599617476257518910,-43.00
2025-12-25 16:15:53.736818,599617476257518910,-45.00
2025-12-25 16:15:53.736818,599617476257518910,-36.00
2025-12-25 16:15:53.736818,599617476257518910,-32.00
2025-12-25 16:15:53.736818,599617476257518910,-41.00
2025-12-25 16:15:53.736818,599617476257518910,-45.00
2025-12-25 16:15:53.736818,599617476257518910,-45.00
2025-12-25 16:15:53.736818,599617476257518910,-50.00
2025-12-25 16:15:53.736818,599617476257518910,-52.00
2025-12-25 16:15:53.736818,599617476257518910,-45.00
2025-12-25 16:15:53.736818,599617476257518910,-48.00
2025-12-25 16:15:53.736818,599617476257518910,-59.00
2025-12-25 16:15:53.736818,599617476257518910,-68.00
2025-12-25 16:15:53.736818,599617476257518910,-82.00
2025-12-25 16:15:54.354071,599617476818449923,-91.00
2025-12-25 16:15:54.354071,599617476818449923,-101.00
2025-12-25 16:15:54.354071,599617476818449923,-114.00
2025-12-25 16:15:54.354071,599617476818449923,-121.00
2025-12-25 16:15:54.354071,599617476818449923,-119.00
2025-12-25 16:15:54.354071,599617476818449923,-119.00
2025-12-25 16:15:54.354071,599617476818449923,-117.00
2025-12-25 16:15:54.354071,599617476818449923,-112.00
2025-12-25 16:15:54.354071,599617476818449923,-110.00
2025-12-25 16:15:54.354071,599617476818449923,-89.00
2025-12-25 16:15:54.354071,599617476818449923,-71.00
2025-12-25 16:15:54.354071,599617476818449923,-80.00
2025-12-25 16:15:54.354071,599617476818449923,-80.00
2025-12-25 16:15:54.354071,599617476818449923,-66.00
2025-12-25 16:15:54.354071,599617476818449923,-66.00
2025-12-25 16:15:54.354071,599617476818449923,-62.00
2025-12-25 16:15:54.354071,599617476818449923,-50.00
2025-12-25 16:15:54.354071,599617476818449923,-62.00
2025-12-25 16:15:54.354071,599617476818449923,-71.00
2025-12-25 16:15:54.354071,599617476818449923,-64.00
2025-12-25 16:15:54.354071,599617476818449923,-66.00
2025-12-25 16:15:54.354071,599617476818449923,-71.00
2025-12-25 16:15:54.354071,599617476818449923,-68.00
2025-12-25 16:15:54.354071,599617476818449923,-75.00
2025-12-25 16:15:54.354071,599617476818449923,-78.00
2025-12-25 16:15:54.354071,599617476818449923,-73.00
2025-12-25 16:15:54.354071,599617476818449923,-73.00
2025-12-25 16:15:54.354071,599617476818449923,-68.00
2025-12-25 16:15:54.354071,599617476818449923,-57.00
2025-12-25 16:15:54.354071,599617476818449923,-66.00
2025-12-25 16:15:54.354071,599617476818449923,-85.00
2025-12-25 16:15:54.354071,599617476818449923,-85.00
2025-12-25 16:15:54.354071,599617476818449923,-82.00
2025-12-25 16:15:54.354071,599617476818449923,-87.00
2025-12-25 16:15:54.354071,599617476818449923,-89.00
2025-12-25 16:15:54.354071,599617476818449923,-85.00
2025-12-25 16:15:54.354071,599617476818449923,-87.00
2025-12-25 16:15:54.354071,599617476818449923,-87.00
2025-12-25 16:15:54.354071,599617476818449923,-82.00
2025-12-25 16:15:54.354071,599617476818449923,-85.00
2025-12-25 16:15:54.354071,599617476818449923,-91.00
2025-12-25 16:15:54.354071,599617476818449923,-94.00
2025-12-25 16:15:54.354071,599617476818449923,-96.00
2025-12-25 16:15:54.354071,599617476818449923,-59.00
2025-12-25 16:15:54.354071,599617476818449923,87.00
2025-12-25 16:15:54.354071,599617476818449923,262.00
2025-12-25 16:15:54.354071,599617476818449923,149.00
2025-12-25 16:15:54.354071,599617476818449923,-243.00
2025-12-25 16:15:54.354071,599617476818449923,-423.00
2025-12-25 16:15:54.354071,599617476818449923,-303.00
2025-12-25 16:15:54.354071,599617476818449923,-213.00
2025-12-25 16:15:54.354071,599617476818449923,-165.00
2025-12-25 16:15:54.354071,599617476818449923,-82.00
2025-12-25 16:15:54.354071,599617476818449923,-59.00
2025-12-25 16:15:54.354071,599617476818449923,-78.00
2025-12-25 16:15:54.354071,599617476818449923,-62.00
2025-12-25 16:15:54.354071,599617476818449923,-48.00
2025-12-25 16:15:54.354071,599617476818449923,-50.00
2025-12-25 16:15:54.354071,599617476818449923,-41.00
2025-12-25 16:15:54.354071,599617476818449923,-34.00
2025-12-25 16:15:54.354071,599617476818449923,-43.00
2025-12-25 16:15:54.354071,599617476818449923,-41.00
2025-12-25 16:15:54.354071,599617476818449923,-32.00
2025-12-25 16:15:54.354071,599617476818449923,-32.00
2025-12-25 16:15:54.354071,599617476818449923,-34.00
2025-12-25 16:15:54.354071,599617476818449923,-29.00
2025-12-25 16:15:54.354071,599617476818449923,-29.00
2025-12-25 16:15:54.354071,599617476818449923,-25.00
2025-12-25 16:15:54.354071,599617476818449923,-20.00
2025-12-25 16:15:54.354071,599617476818449923,-20.00
2025-12-25 16:15:54.354071,599617476818449923,-18.00
2025-12-25 16:15:54.354071,599617476818449923,-22.00
2025-12-25 16:15:54.354071,599617476818449923,-29.00
2025-12-25 16:15:54.762688,599617477379380934,-29.00
2025-12-25 16:15:54.762688,599617477379380934,-25.00
2025-12-25 16:15:54.762688,599617477379380934,-18.00
2025-12-25 16:15:54.762688,599617477379380934,-6.00
2025-12-25 16:15:54.762688,599617477379380934,-9.00
2025-12-25 16:15:54.762688,599617477379380934,-20.00
2025-12-25 16:15:54.762688,599617477379380934,-20.00
2025-12-25 16:15:54.762688,599617477379380934,-20.00
2025-12-25 16:15:54.762688,599617477379380934,-39.00
2025-12-25 16:15:54.762688,599617477379380934,-52.00
2025-12-25 16:15:54.762688,599617477379380934,-59.00
2025-12-25 16:15:54.762688,599617477379380934,-59.00
2025-12-25 16:15:54.762688,599617477379380934,-48.00
2025-12-25 16:15:54.762688,599617477379380934,-41.00
2025-12-25 16:15:54.762688,599617477379380934,-45.00
2025-12-25 16:15:54.762688,599617477379380934,-50.00
2025-12-25 16:15:54.762688,599617477379380934,-55.00
2025-12-25 16:15:54.762688,599617477379380934,-50.00
2025-12-25 16:15:54.762688,599617477379380934,-32.00
2025-12-25 16:15:54.762688,599617477379380934,-20.00
2025-12-25 16:15:54.762688,599617477379380934,-32.00
2025-12-25 16:15:54.762688,599617477379380934,-39.00
2025-12-25 16:15:54.762688,599617477379380934,-34.00
2025-12-25 16:15:54.762688,599617477379380934,-25.00
2025-12-25 16:15:54.762688,599617477379380934,-18.00
2025-12-25 16:15:54.762688,599617477379380934,-20.00
2025-12-25 16:15:54.762688,599617477379380934,-29.00
2025-12-25 16:15:54.762688,599617477379380934,-32.00
2025-12-25 16:15:54.762688,599617477379380934,-29.00
2025-12-25 16:15:54.762688,599617477379380934,-29.00
2025-12-25 16:15:54.762688,599617477379380934,-32.00
2025-12-25 16:15:54.762688,599617477379380934,-36.00
2025-12-25 16:15:54.762688,599617477379380934,-41.00
2025-12-25 16:15:54.762688,599617477379380934,-34.00
2025-12-25 16:15:54.762688,599617477379380934,-27.00
2025-12-25 16:15:54.762688,599617477379380934,-16.00
2025-12-25 16:15:54.762688,599617477379380934,-11.00
2025-12-25 16:15:54.762688,599617477379380934,-32.00
2025-12-25 16:15:54.762688,599617477379380934,-52.00
2025-12-25 16:15:54.762688,599617477379380934,-52.00
2025-12-25 16:15:54.762688,599617477379380934,-48.00
2025-12-25 16:15:54.762688,599617477379380934,-45.00
2025-12-25 16:15:54.762688,599617477379380934,-48.00
2025-12-25 16:15:54.762688,599617477379380934,-48.00
2025-12-25 16:15:54.762688,599617477379380934,-45.00
2025-12-25 16:15:54.762688,599617477379380934,-52.00
2025-12-25 16:15:54.762688,599617477379380934,-59.00
2025-12-25 16:15:54.762688,599617477379380934,-52.00
2025-12-25 16:15:54.762688,599617477379380934,-52.00
2025-12-25 16:15:54.762688,599617477379380934,-66.00
2025-12-25 16:15:54.762688,599617477379380934,-57.00
2025-12-25 16:15:54.762688,599617477379380934,39.00
2025-12-25 16:15:54.762688,599617477379380934,227.00
2025-12-25 16:15:54.762688,599617477379380934,268.00
2025-12-25 16:15:54.762688,599617477379380934,-59.00
2025-12-25 16:15:54.762688,599617477379380934,-386.00
2025-12-25 16:15:54.762688,599617477379380934,-340.00
2025-12-25 16:15:54.762688,599617477379380934,-211.00
2025-12-25 16:15:54.762688,599617477379380934,-177.00
2025-12-25 16:15:54.762688,599617477379380934,-98.00
2025-12-25 16:15:54.762688,599617477379380934,-36.00
2025-12-25 16:15:54.762688,599617477379380934,-55.00
2025-12-25 16:15:54.762688,599617477379380934,-57.00
2025-12-25 16:15:54.762688,599617477379380934,-34.00
2025-12-25 16:15:54.762688,599617477379380934,-36.00
2025-12-25 16:15:54.762688,599617477379380934,-41.00
2025-12-25 16:15:54.762688,599617477379380934,-29.00
2025-12-25 16:15:54.762688,599617477379380934,-18.00
2025-12-25 16:15:54.762688,599617477379380934,-18.00
2025-12-25 16:15:54.762688,599617477379380934,-18.00
2025-12-25 16:15:54.762688,599617477379380934,-13.00
2025-12-25 16:15:54.762688,599617477379380934,-11.00
2025-12-25 16:15:54.762688,599617477379380934,-13.00
2025-12-25 16:15:55.346922,599617477940296687,-13.00
2025-12-25 16:15:55.346922,599617477940296687,-13.00
2025-12-25 16:15:55.346922,599617477940296687,-13.00
2025-12-25 16:15:55.346922,599617477940296687,-9.00
2025-12-25 16:15:55.346922,599617477940296687,-4.00
2025-12-25 16:15:55.346922,599617477940296687,-9.00
2025-12-25 16:15:55.346922,599617477940296687,-13.00
2025-12-25 16:15:55.346922,599617477940296687,-18.00
2025-12-25 16:15:55.346922,599617477940296687,-20.00
2025-12-25 16:15:55.346922,599617477940296687,-13.00
2025-12-25 16:15:55.346922,599617477940296687,-4.00
2025-12-25 16:15:55.346922,599617477940296687,-9.00
2025-12-25 16:15:55.346922,599617477940296687,-18.00
2025-12-25 16:15:55.346922,599617477940296687,-27.00
2025-12-25 16:15:55.346922,599617477940296687,-39.00
2025-12-25 16:15:55.346922,599617477940296687,-52.00
2025-12-25 16:15:55.346922,599617477940296687,-62.00
2025-12-25 16:15:55.346922,599617477940296687,-68.00
2025-12-25 16:15:55.346922,599617477940296687,-78.00
2025-12-25 16:15:55.346922,599617477940296687,-85.00
2025-12-25 16:15:55.346922,599617477940296687,-82.00
2025-12-25 16:15:55.346922,599617477940296687,-73.00
2025-12-25 16:15:55.346922,599617477940296687,-75.00
2025-12-25 16:15:55.346922,599617477940296687,-82.00
2025-12-25 16:15:55.346922,599617477940296687,-80.00
2025-12-25 16:15:55.346922,599617477940296687,-75.00
2025-12-25 16:15:55.346922,599617477940296687,-73.00
2025-12-25 16:15:55.346922,599617477940296687,-71.00
2025-12-25 16:15:55.346922,599617477940296687,-64.00
2025-12-25 16:15:55.346922,599617477940296687,-62.00
2025-12-25 16:15:55.346922,599617477940296687,-64.00
2025-12-25 16:15:55.346922,599617477940296687,-64.00
2025-12-25 16:15:55.346922,599617477940296687,-66.00
2025-12-25 16:15:55.346922,599617477940296687,-68.00
2025-12-25 16:15:55.346922,599617477940296687,-66.00
2025-12-25 16:15:55.346922,599617477940296687,-71.00
2025-12-25 16:15:55.346922,599617477940296687,-71.00
2025-12-25 16:15:55.346922,599617477940296687,-71.00
2025-12-25 16:15:55.346922,599617477940296687,-78.00
2025-12-25 16:15:55.346922,599617477940296687,-82.00
2025-12-25 16:15:55.346922,599617477940296687,-73.00
2025-12-25 16:15:55.346922,599617477940296687,-57.00
2025-12-25 16:15:55.346922,599617477940296687,-43.00
2025-12-25 16:15:55.346922,599617477940296687,-48.00
2025-12-25 16:15:55.346922,599617477940296687,-64.00
2025-12-25 16:15:55.346922,599617477940296687,-73.00
2025-12-25 16:15:55.346922,599617477940296687,-71.00
2025-12-25 16:15:55.346922,599617477940296687,-68.00
2025-12-25 16:15:55.346922,599617477940296687,-71.00
2025-12-25 16:15:55.346922,599617477940296687,-73.00
2025-12-25 16:15:55.346922,599617477940296687,-73.00
2025-12-25 16:15:55.346922,599617477940296687,-71.00
2025-12-25 16:15:55.346922,599617477940296687,-71.00
2025-12-25 16:15:55.346922,599617477940296687,-66.00
2025-12-25 16:15:55.346922,599617477940296687,-68.00
2025-12-25 16:15:55.346922,599617477940296687,-71.00
2025-12-25 16:15:55.346922,599617477940296687,-68.00
2025-12-25 16:15:55.346922,599617477940296687,-48.00
2025-12-25 16:15:55.346922,599617477940296687,62.00
2025-12-25 16:15:55.346922,599617477940296687,264.00
2025-12-25 16:15:55.346922,599617477940296687,271.00
2025-12-25 16:15:55.346922,599617477940296687,-96.00
2025-12-25 16:15:55.346922,599617477940296687,-393.00
2025-12-25 16:15:55.346922,599617477940296687,-317.00
2025-12-25 16:15:55.346922,599617477940296687,-197.00
2025-12-25 16:15:55.346922,599617477940296687,-165.00
2025-12-25 16:15:55.346922,599617477940296687,-82.00
2025-12-25 16:15:55.346922,599617477940296687,-20.00
2025-12-25 16:15:55.346922,599617477940296687,-34.00
2025-12-25 16:15:55.346922,599617477940296687,-34.00
2025-12-25 16:15:55.346922,599617477940296687,-18.00
2025-12-25 16:15:55.346922,599617477940296687,-20.00
2025-12-25 16:15:55.346922,599617477940296687,-20.00
2025-12-25 16:15:55.846330,599617478501212442,-9.00
2025-12-25 16:15:55.846330,599617478501212442,-9.00
2025-12-25 16:15:55.846330,599617478501212442,-13.00
2025-12-25 16:15:55.846330,599617478501212442,-16.00
2025-12-25 16:15:55.846330,599617478501212442,-11.00
2025-12-25 16:15:55.846330,599617478501212442,-4.00
2025-12-25 16:15:55.846330,599617478501212442,4.00
2025-12-25 16:15:55.846330,599617478501212442,13.00
2025-12-25 16:15:55.846330,599617478501212442,16.00
2025-12-25 16:15:55.846330,599617478501212442,16.00
2025-12-25 16:15:55.846330,599617478501212442,13.00
2025-12-25 16:15:55.846330,599617478501212442,18.00
2025-12-25 16:15:55.846330,599617478501212442,16.00
2025-12-25 16:15:55.846330,599617478501212442,9.00
2025-12-25 16:15:55.846330,599617478501212442,2.00
2025-12-25 16:15:55.846330,599617478501212442,2.00
2025-12-25 16:15:55.846330,599617478501212442,4.00
2025-12-25 16:15:55.846330,599617478501212442,2.00
2025-12-25 16:15:55.846330,599617478501212442,2.00
2025-12-25 16:15:55.846330,599617478501212442,0.00
2025-12-25 16:15:55.846330,599617478501212442,-11.00
2025-12-25 16:15:55.846330,599617478501212442,-25.00
2025-12-25 16:15:55.846330,599617478501212442,-36.00
2025-12-25 16:15:55.846330,599617478501212442,-52.00
2025-12-25 16:15:55.846330,599617478501212442,-59.00
2025-12-25 16:15:55.846330,599617478501212442,-59.00
2025-12-25 16:15:55.846330,599617478501212442,-66.00
2025-12-25 16:15:55.846330,599617478501212442,-68.00
2025-12-25 16:15:55.846330,599617478501212442,-66.00
2025-12-25 16:15:55.846330,599617478501212442,-62.00
2025-12-25 16:15:55.846330,599617478501212442,-59.00
2025-12-25 16:15:55.846330,599617478501212442,-62.00
2025-12-25 16:15:55.846330,599617478501212442,-64.00
2025-12-25 16:15:55.846330,599617478501212442,-62.00
2025-12-25 16:15:55.846330,599617478501212442,-59.00
2025-12-25 16:15:55.846330,599617478501212442,-59.00
2025-12-25 16:15:55.846330,599617478501212442,-57.00
2025-12-25 16:15:55.846330,599617478501212442,-57.00
2025-12-25 16:15:55.846330,599617478501212442,-57.00
2025-12-25 16:15:55.846330,599617478501212442,-57.00
2025-12-25 16:15:55.846330,599617478501212442,-59.00
2025-12-25 16:15:55.846330,599617478501212442,-62.00
2025-12-25 16:15:55.846330,599617478501212442,-62.00
2025-12-25 16:15:55.846330,599617478501212442,-64.00
2025-12-25 16:15:55.846330,599617478501212442,-66.00
2025-12-25 16:15:55.846330,599617478501212442,-62.00
2025-12-25 16:15:55.846330,599617478501212442,-55.00
2025-12-25 16:15:55.846330,599617478501212442,-50.00
2025-12-25 16:15:55.846330,599617478501212442,-45.00
2025-12-25 16:15:55.846330,599617478501212442,-43.00
2025-12-25 16:15:55.846330,599617478501212442,-55.00
2025-12-25 16:15:55.846330,599617478501212442,-66.00
2025-12-25 16:15:55.846330,599617478501212442,-59.00
2025-12-25 16:15:55.846330,599617478501212442,-45.00
2025-12-25 16:15:55.846330,599617478501212442,-45.00
2025-12-25 16:15:55.846330,599617478501212442,-48.00
2025-12-25 16:15:55.846330,599617478501212442,-48.00
2025-12-25 16:15:55.846330,599617478501212442,-48.00
2025-12-25 16:15:55.846330,599617478501212442,-45.00
2025-12-25 16:15:55.846330,599617478501212442,-43.00
2025-12-25 16:15:55.846330,599617478501212442,-50.00
2025-12-25 16:15:55.846330,599617478501212442,-57.00
2025-12-25 16:15:55.846330,599617478501212442,-29.00
2025-12-25 16:15:55.846330,599617478501212442,94.00
2025-12-25 16:15:55.846330,599617478501212442,291.00
2025-12-25 16:15:55.846330,599617478501212442,257.00
2025-12-25 16:15:55.846330,599617478501212442,-142.00
2025-12-25 16:15:55.846330,599617478501212442,-404.00
2025-12-25 16:15:55.846330,599617478501212442,-301.00
2025-12-25 16:15:55.846330,599617478501212442,-209.00
2025-12-25 16:15:55.846330,599617478501212442,-188.00
2025-12-25 16:15:55.846330,599617478501212442,-87.00
2025-12-25 16:15:55.846330,599617478501212442,-25.00
2025-12-25 16:15:56.498704,599617479062128197,-45.00
2025-12-25 16:15:56.498704,599617479062128197,-41.00
2025-12-25 16:15:56.498704,599617479062128197,-18.00
2025-12-25 16:15:56.498704,599617479062128197,-18.00
2025-12-25 16:15:56.498704,599617479062128197,-13.00
2025-12-25 16:15:56.498704,599617479062128197,2.00
2025-12-25 16:15:56.498704,599617479062128197,-2.00
2025-12-25 16:15:56.498704,599617479062128197,-6.00
2025-12-25 16:15:56.498704,599617479062128197,4.00
2025-12-25 16:15:56.498704,599617479062128197,9.00
2025-12-25 16:15:56.498704,599617479062128197,9.00
2025-12-25 16:15:56.498704,599617479062128197,11.00
2025-12-25 16:15:56.498704,599617479062128197,13.00
2025-12-25 16:15:56.498704,599617479062128197,9.00
2025-12-25 16:15:56.498704,599617479062128197,11.00
2025-12-25 16:15:56.498704,599617479062128197,18.00
2025-12-25 16:15:56.498704,599617479062128197,13.00
2025-12-25 16:15:56.498704,599617479062128197,6.00
2025-12-25 16:15:56.498704,599617479062128197,4.00
2025-12-25 16:15:56.498704,599617479062128197,-2.00
2025-12-25 16:15:56.498704,599617479062128197,-9.00
2025-12-25 16:15:56.498704,599617479062128197,-6.00
2025-12-25 16:15:56.498704,599617479062128197,-2.00
2025-12-25 16:15:56.498704,599617479062128197,-4.00
2025-12-25 16:15:56.498704,599617479062128197,-18.00
2025-12-25 16:15:56.498704,599617479062128197,-32.00
2025-12-25 16:15:56.498704,599617479062128197,-43.00
2025-12-25 16:15:56.498704,599617479062128197,-52.00
2025-12-25 16:15:56.498704,599617479062128197,-66.00
2025-12-25 16:15:56.498704,599617479062128197,-75.00
2025-12-25 16:15:56.498704,599617479062128197,-78.00
2025-12-25 16:15:56.498704,599617479062128197,-80.00
2025-12-25 16:15:56.498704,599617479062128197,-80.00
2025-12-25 16:15:56.498704,599617479062128197,-75.00
2025-12-25 16:15:56.498704,599617479062128197,-75.00
2025-12-25 16:15:56.498704,599617479062128197,-78.00
2025-12-25 16:15:56.498704,599617479062128197,-75.00
2025-12-25 16:15:56.498704,599617479062128197,-73.00
2025-12-25 16:15:56.498704,599617479062128197,-73.00
2025-12-25 16:15:56.498704,599617479062128197,-71.00
2025-12-25 16:15:56.498704,599617479062128197,-68.00
2025-12-25 16:15:56.498704,599617479062128197,-59.00
2025-12-25 16:15:56.498704,599617479062128197,-55.00
2025-12-25 16:15:56.498704,599617479062128197,-59.00
2025-12-25 16:15:56.498704,599617479062128197,-64.00
2025-12-25 16:15:56.498704,599617479062128197,-55.00
2025-12-25 16:15:56.498704,599617479062128197,-45.00
2025-12-25 16:15:56.498704,599617479062128197,-52.00
2025-12-25 16:15:56.498704,599617479062128197,-62.00
2025-12-25 16:15:56.498704,599617479062128197,-59.00
2025-12-25 16:15:56.498704,599617479062128197,-50.00
2025-12-25 16:15:56.498704,599617479062128197,-39.00
2025-12-25 16:15:56.498704,599617479062128197,-32.00
2025-12-25 16:15:56.498704,599617479062128197,-41.00
2025-12-25 16:15:56.498704,599617479062128197,-59.00
2025-12-25 16:15:56.498704,599617479062128197,-66.00
2025-12-25 16:15:56.498704,599617479062128197,-64.00
2025-12-25 16:15:56.498704,599617479062128197,-62.00
2025-12-25 16:15:56.498704,599617479062128197,-59.00
2025-12-25 16:15:56.498704,599617479062128197,-59.00
2025-12-25 16:15:56.498704,599617479062128197,-59.00
2025-12-25 16:15:56.498704,599617479062128197,-57.00
2025-12-25 16:15:56.498704,599617479062128197,-55.00
2025-12-25 16:15:56.498704,599617479062128197,-57.00
2025-12-25 16:15:56.498704,599617479062128197,-64.00
2025-12-25 16:15:56.498704,599617479062128197,-66.00
2025-12-25 16:15:56.498704,599617479062128197,-48.00
2025-12-25 16:15:56.498704,599617479062128197,48.00
2025-12-25 16:15:56.498704,599617479062128197,248.00
2025-12-25 16:15:56.498704,599617479062128197,282.00
2025-12-25 16:15:56.498704,599617479062128197,-73.00
2025-12-25 16:15:56.498704,599617479062128197,-406.00
2025-12-25 16:15:56.498704,599617479062128197,-344.00
2025-12-25 16:15:57.074640,599617479623064296,-213.00
2025-12-25 16:15:57.074640,599617479623064296,-186.00
2025-12-25 16:15:57.074640,599617479623064296,-98.00
2025-12-25 16:15:57.074640,599617479623064296,-22.00
2025-12-25 16:15:57.074640,599617479623064296,-41.00
2025-12-25 16:15:57.074640,599617479623064296,-48.00
2025-12-25 16:15:57.074640,599617479623064296,-25.00
2025-12-25 16:15:57.074640,599617479623064296,-20.00
2025-12-25 16:15:57.074640,599617479623064296,-25.00
2025-12-25 16:15:57.074640,599617479623064296,-18.00
2025-12-25 16:15:57.074640,599617479623064296,-13.00
2025-12-25 16:15:57.074640,599617479623064296,-18.00
2025-12-25 16:15:57.074640,599617479623064296,-13.00
2025-12-25 16:15:57.074640,599617479623064296,0.00
2025-12-25 16:15:57.074640,599617479623064296,11.00
2025-12-25 16:15:57.074640,599617479623064296,4.00
2025-12-25 16:15:57.074640,599617479623064296,0.00
2025-12-25 16:15:57.074640,599617479623064296,11.00
2025-12-25 16:15:57.074640,599617479623064296,13.00
2025-12-25 16:15:57.074640,599617479623064296,9.00
2025-12-25 16:15:57.074640,599617479623064296,13.00
2025-12-25 16:15:57.074640,599617479623064296,11.00
2025-12-25 16:15:57.074640,599617479623064296,2.00
2025-12-25 16:15:57.074640,599617479623064296,-2.00
2025-12-25 16:15:57.074640,599617479623064296,-9.00
2025-12-25 16:15:57.074640,599617479623064296,-18.00
2025-12-25 16:15:57.074640,599617479623064296,-16.00
2025-12-25 16:15:57.074640,599617479623064296,-13.00
2025-12-25 16:15:57.074640,599617479623064296,-27.00
2025-12-25 16:15:57.074640,599617479623064296,-43.00
2025-12-25 16:15:57.074640,599617479623064296,-48.00
2025-12-25 16:15:57.074640,599617479623064296,-57.00
2025-12-25 16:15:57.074640,599617479623064296,-66.00
2025-12-25 16:15:57.074640,599617479623064296,-73.00
2025-12-25 16:15:57.074640,599617479623064296,-78.00
2025-12-25 16:15:57.074640,599617479623064296,-80.00
2025-12-25 16:15:57.074640,599617479623064296,-80.00
2025-12-25 16:15:57.074640,599617479623064296,-80.00
2025-12-25 16:15:57.074640,599617479623064296,-68.00
2025-12-25 16:15:57.074640,599617479623064296,-62.00
2025-12-25 16:15:57.074640,599617479623064296,-66.00
2025-12-25 16:15:57.074640,599617479623064296,-68.00
2025-12-25 16:15:57.074640,599617479623064296,-66.00
2025-12-25 16:15:57.074640,599617479623064296,-68.00
2025-12-25 16:15:57.074640,599617479623064296,-68.00
2025-12-25 16:15:57.074640,599617479623064296,-71.00
2025-12-25 16:15:57.074640,599617479623064296,-68.00
2025-12-25 16:15:57.074640,599617479623064296,-66.00
2025-12-25 16:15:57.074640,599617479623064296,-64.00
2025-12-25 16:15:57.074640,599617479623064296,-66.00
2025-12-25 16:15:57.074640,599617479623064296,-68.00
2025-12-25 16:15:57.074640,599617479623064296,-66.00
2025-12-25 16:15:57.074640,599617479623064296,-68.00
2025-12-25 16:15:57.074640,599617479623064296,-71.00
2025-12-25 16:15:57.074640,599617479623064296,-71.00
2025-12-25 16:15:57.074640,599617479623064296,-64.00
2025-12-25 16:15:57.074640,599617479623064296,-52.00
2025-12-25 16:15:57.074640,599617479623064296,-45.00
2025-12-25 16:15:57.074640,599617479623064296,-52.00
2025-12-25 16:15:57.074640,599617479623064296,-66.00
2025-12-25 16:15:57.074640,599617479623064296,-71.00
2025-12-25 16:15:57.074640,599617479623064296,-71.00
2025-12-25 16:15:57.074640,599617479623064296,-68.00
2025-12-25 16:15:57.074640,599617479623064296,-62.00
2025-12-25 16:15:57.074640,599617479623064296,-62.00
2025-12-25 16:15:57.074640,599617479623064296,-64.00
2025-12-25 16:15:57.074640,599617479623064296,-59.00
2025-12-25 16:15:57.074640,599617479623064296,-59.00
2025-12-25 16:15:57.074640,599617479623064296,-59.00
2025-12-25 16:15:57.074640,599617479623064296,-57.00
2025-12-25 16:15:57.074640,599617479623064296,-57.00
2025-12-25 16:15:57.074640,599617479623064296,-59.00
2025-12-25 16:15:57.074640,599617479623064296,2.00
2025-12-25 16:15:57.616040,599617480183974963,179.00
2025-12-25 16:15:57.616040,599617480183974963,312.00
2025-12-25 16:15:57.616040,599617480183974963,73.00
2025-12-25 16:15:57.616040,599617480183974963,-340.00
2025-12-25 16:15:57.616040,599617480183974963,-404.00
2025-12-25 16:15:57.616040,599617480183974963,-245.00
2025-12-25 16:15:57.616040,599617480183974963,-195.00
2025-12-25 16:15:57.616040,599617480183974963,-140.00
2025-12-25 16:15:57.616040,599617480183974963,-52.00
2025-12-25 16:15:57.616040,599617480183974963,-41.00
2025-12-25 16:15:57.616040,599617480183974963,-43.00
2025-12-25 16:15:57.616040,599617480183974963,-16.00
2025-12-25 16:15:57.616040,599617480183974963,-13.00
2025-12-25 16:15:57.616040,599617480183974963,-22.00
2025-12-25 16:15:57.616040,599617480183974963,-11.00
2025-12-25 16:15:57.616040,599617480183974963,-4.00
2025-12-25 16:15:57.616040,599617480183974963,-6.00
2025-12-25 16:15:57.616040,599617480183974963,-9.00
2025-12-25 16:15:57.616040,599617480183974963,-6.00
2025-12-25 16:15:57.616040,599617480183974963,-11.00
2025-12-25 16:15:57.616040,599617480183974963,-11.00
2025-12-25 16:15:57.616040,599617480183974963,-4.00
2025-12-25 16:15:57.616040,599617480183974963,0.00
2025-12-25 16:15:57.616040,599617480183974963,4.00
2025-12-25 16:15:57.616040,599617480183974963,13.00
2025-12-25 16:15:57.616040,599617480183974963,18.00
2025-12-25 16:15:57.616040,599617480183974963,11.00
2025-12-25 16:15:57.616040,599617480183974963,-2.00
2025-12-25 16:15:57.616040,599617480183974963,-4.00
2025-12-25 16:15:57.616040,599617480183974963,0.00
2025-12-25 16:15:57.616040,599617480183974963,-4.00
2025-12-25 16:15:57.616040,599617480183974963,-4.00
2025-12-25 16:15:57.616040,599617480183974963,-2.00
2025-12-25 16:15:57.616040,599617480183974963,-11.00
2025-12-25 16:15:57.616040,599617480183974963,-27.00
2025-12-25 16:15:57.616040,599617480183974963,-41.00
2025-12-25 16:15:57.616040,599617480183974963,-50.00
2025-12-25 16:15:57.616040,599617480183974963,-57.00
2025-12-25 16:15:57.616040,599617480183974963,-68.00
2025-12-25 16:15:57.616040,599617480183974963,-73.00
2025-12-25 16:15:57.616040,599617480183974963,-75.00
2025-12-25 16:15:57.616040,599617480183974963,-78.00
2025-12-25 16:15:57.616040,599617480183974963,-80.00
2025-12-25 16:15:57.616040,599617480183974963,-71.00
2025-12-25 16:15:57.616040,599617480183974963,-68.00
2025-12-25 16:15:57.616040,599617480183974963,-71.00
2025-12-25 16:15:57.616040,599617480183974963,-68.00
2025-12-25 16:15:57.616040,599617480183974963,-68.00
2025-12-25 16:15:57.616040,599617480183974963,-71.00
2025-12-25 16:15:57.616040,599617480183974963,-71.00
2025-12-25 16:15:57.616040,599617480183974963,-71.00
2025-12-25 16:15:57.616040,599617480183974963,-73.00
2025-12-25 16:15:57.616040,599617480183974963,-73.00
2025-12-25 16:15:57.616040,599617480183974963,-73.00
2025-12-25 16:15:57.616040,599617480183974963,-73.00
2025-12-25 16:15:57.616040,599617480183974963,-64.00
2025-12-25 16:15:57.616040,599617480183974963,-59.00
2025-12-25 16:15:57.616040,599617480183974963,-64.00
2025-12-25 16:15:57.616040,599617480183974963,-64.00
2025-12-25 16:15:57.616040,599617480183974963,-66.00
2025-12-25 16:15:57.616040,599617480183974963,-68.00
2025-12-25 16:15:57.616040,599617480183974963,-59.00
2025-12-25 16:15:57.616040,599617480183974963,-48.00
2025-12-25 16:15:57.616040,599617480183974963,-36.00
2025-12-25 16:15:57.616040,599617480183974963,-36.00
2025-12-25 16:15:57.616040,599617480183974963,-45.00
2025-12-25 16:15:57.616040,599617480183974963,-55.00
2025-12-25 16:15:57.616040,599617480183974963,-57.00
2025-12-25 16:15:57.616040,599617480183974963,-62.00
2025-12-25 16:15:57.616040,599617480183974963,-59.00
2025-12-25 16:15:57.616040,599617480183974963,-57.00
2025-12-25 16:15:57.616040,599617480183974963,-59.00
2025-12-25 16:15:57.616040,599617480183974963,-64.00
2025-12-25 16:15:58.187779,599617480744885630,-64.00
2025-12-25 16:15:58.187779,599617480744885630,-57.00
2025-12-25 16:15:58.187779,599617480744885630,-57.00
2025-12-25 16:15:58.187779,599617480744885630,-62.00
2025-12-25 16:15:58.187779,599617480744885630,-68.00
2025-12-25 16:15:58.187779,599617480744885630,-66.00
2025-12-25 16:15:58.187779,599617480744885630,-16.00
2025-12-25 16:15:58.187779,599617480744885630,149.00
2025-12-25 16:15:58.187779,599617480744885630,326.00
2025-12-25 16:15:58.187779,599617480744885630,172.00
2025-12-25 16:15:58.187779,599617480744885630,-245.00
2025-12-25 16:15:58.187779,599617480744885630,-397.00
2025-12-25 16:15:58.187779,599617480744885630,-252.00
2025-12-25 16:15:58.187779,599617480744885630,-170.00
2025-12-25 16:15:58.187779,599617480744885630,-126.00
2025-12-25 16:15:58.187779,599617480744885630,-41.00
2025-12-25 16:15:58.187779,599617480744885630,-22.00
2025-12-25 16:15:58.187779,599617480744885630,-48.00
2025-12-25 16:15:58.187779,599617480744885630,-27.00
2025-12-25 16:15:58.187779,599617480744885630,-13.00
2025-12-25 16:15:58.187779,599617480744885630,-22.00
2025-12-25 16:15:58.187779,599617480744885630,-20.00
2025-12-25 16:15:58.187779,599617480744885630,-16.00
2025-12-25 16:15:58.187779,599617480744885630,-11.00
2025-12-25 16:15:58.187779,599617480744885630,0.00
2025-12-25 16:15:58.187779,599617480744885630,6.00
2025-12-25 16:15:58.187779,599617480744885630,2.00
2025-12-25 16:15:58.187779,599617480744885630,4.00
2025-12-25 16:15:58.187779,599617480744885630,6.00
2025-12-25 16:15:58.187779,599617480744885630,4.00
2025-12-25 16:15:58.187779,599617480744885630,9.00
2025-12-25 16:15:58.187779,599617480744885630,13.00
2025-12-25 16:15:58.187779,599617480744885630,9.00
2025-12-25 16:15:58.187779,599617480744885630,11.00
2025-12-25 16:15:58.187779,599617480744885630,13.00
2025-12-25 16:15:58.187779,599617480744885630,9.00
2025-12-25 16:15:58.187779,599617480744885630,0.00
2025-12-25 16:15:58.187779,599617480744885630,-2.00
2025-12-25 16:15:58.187779,599617480744885630,-6.00
2025-12-25 16:15:58.187779,599617480744885630,-13.00
2025-12-25 16:15:58.187779,599617480744885630,-25.00
2025-12-25 16:15:58.187779,599617480744885630,-41.00
2025-12-25 16:15:58.187779,599617480744885630,-48.00
2025-12-25 16:15:58.187779,599617480744885630,-55.00
2025-12-25 16:15:58.187779,599617480744885630,-66.00
2025-12-25 16:15:58.187779,599617480744885630,-73.00
2025-12-25 16:15:58.187779,599617480744885630,-71.00
2025-12-25 16:15:58.187779,599617480744885630,-73.00
2025-12-25 16:15:58.187779,599617480744885630,-75.00
2025-12-25 16:15:58.187779,599617480744885630,-75.00
2025-12-25 16:15:58.187779,599617480744885630,-78.00
2025-12-25 16:15:58.187779,599617480744885630,-80.00
2025-12-25 16:15:58.187779,599617480744885630,-73.00
2025-12-25 16:15:58.187779,599617480744885630,-66.00
2025-12-25 16:15:58.187779,599617480744885630,-71.00
2025-12-25 16:15:58.187779,599617480744885630,-71.00
2025-12-25 16:15:58.187779,599617480744885630,-68.00
2025-12-25 16:15:58.187779,599617480744885630,-71.00
2025-12-25 16:15:58.187779,599617480744885630,-75.00
2025-12-25 16:15:58.187779,599617480744885630,-73.00
2025-12-25 16:15:58.187779,599617480744885630,-71.00
2025-12-25 16:15:58.187779,599617480744885630,-66.00
2025-12-25 16:15:58.187779,599617480744885630,-64.00
2025-12-25 16:15:58.187779,599617480744885630,-66.00
2025-12-25 16:15:58.187779,599617480744885630,-66.00
2025-12-25 16:15:58.187779,599617480744885630,-64.00
2025-12-25 16:15:58.187779,599617480744885630,-64.00
2025-12-25 16:15:58.187779,599617480744885630,-68.00
2025-12-25 16:15:58.187779,599617480744885630,-66.00
2025-12-25 16:15:58.187779,599617480744885630,-62.00
2025-12-25 16:15:58.187779,599617480744885630,-57.00
2025-12-25 16:15:58.187779,599617480744885630,-45.00
2025-12-25 16:15:58.187779,599617480744885630,-34.00
2025-12-25 16:15:58.754022,599617481305821727,-43.00
2025-12-25 16:15:58.754022,599617481305821727,-59.00
2025-12-25 16:15:58.754022,599617481305821727,-64.00
2025-12-25 16:15:58.754022,599617481305821727,-68.00
2025-12-25 16:15:58.754022,599617481305821727,-68.00
2025-12-25 16:15:58.754022,599617481305821727,-57.00
2025-12-25 16:15:58.754022,599617481305821727,-57.00
2025-12-25 16:15:58.754022,599617481305821727,-62.00
2025-12-25 16:15:58.754022,599617481305821727,-59.00
2025-12-25 16:15:58.754022,599617481305821727,-57.00
2025-12-25 16:15:58.754022,599617481305821727,-52.00
2025-12-25 16:15:58.754022,599617481305821727,-39.00
2025-12-25 16:15:58.754022,599617481305821727,-36.00
2025-12-25 16:15:58.754022,599617481305821727,-48.00
2025-12-25 16:15:58.754022,599617481305821727,-41.00
2025-12-25 16:15:58.754022,599617481305821727,57.00
2025-12-25 16:15:58.754022,599617481305821727,266.00
2025-12-25 16:15:58.754022,599617481305821727,337.00
2025-12-25 16:15:58.754022,599617481305821727,13.00
2025-12-25 16:15:58.754022,599617481305821727,-344.00
2025-12-25 16:15:58.754022,599617481305821727,-319.00
2025-12-25 16:15:58.754022,599617481305821727,-177.00
2025-12-25 16:15:58.754022,599617481305821727,-133.00
2025-12-25 16:15:58.754022,599617481305821727,-66.00
2025-12-25 16:15:58.754022,599617481305821727,-4.00
2025-12-25 16:15:58.754022,599617481305821727,-13.00
2025-12-25 16:15:58.754022,599617481305821727,-25.00
2025-12-25 16:15:58.754022,599617481305821727,-16.00
2025-12-25 16:15:58.754022,599617481305821727,-6.00
2025-12-25 16:15:58.754022,599617481305821727,0.00
2025-12-25 16:15:58.754022,599617481305821727,0.00
2025-12-25 16:15:58.754022,599617481305821727,-6.00
2025-12-25 16:15:58.754022,599617481305821727,-11.00
2025-12-25 16:15:58.754022,599617481305821727,-6.00
2025-12-25 16:15:58.754022,599617481305821727,-4.00
2025-12-25 16:15:58.754022,599617481305821727,-2.00
2025-12-25 16:15:58.754022,599617481305821727,6.00
2025-12-25 16:15:58.754022,599617481305821727,18.00
2025-12-25 16:15:58.754022,599617481305821727,16.00
2025-12-25 16:15:58.754022,599617481305821727,13.00
2025-12-25 16:15:58.754022,599617481305821727,18.00
2025-12-25 16:15:58.754022,599617481305821727,18.00
2025-12-25 16:15:58.754022,599617481305821727,16.00
2025-12-25 16:15:58.754022,599617481305821727,16.00
2025-12-25 16:15:58.754022,599617481305821727,9.00
2025-12-25 16:15:58.754022,599617481305821727,4.00
2025-12-25 16:15:58.754022,599617481305821727,4.00
2025-12-25 16:15:58.754022,599617481305821727,-2.00
2025-12-25 16:15:58.754022,599617481305821727,-16.00
2025-12-25 16:15:58.754022,599617481305821727,-22.00
2025-12-25 16:15:58.754022,599617481305821727,-29.00
2025-12-25 16:15:58.754022,599617481305821727,-50.00
2025-12-25 16:15:58.754022,599617481305821727,-64.00
2025-12-25 16:15:58.754022,599617481305821727,-64.00
2025-12-25 16:15:58.754022,599617481305821727,-73.00
2025-12-25 16:15:58.754022,599617481305821727,-82.00
2025-12-25 16:15:58.754022,599617481305821727,-85.00
2025-12-25 16:15:58.754022,599617481305821727,-85.00
2025-12-25 16:15:58.754022,599617481305821727,-82.00
2025-12-25 16:15:58.754022,599617481305821727,-80.00
2025-12-25 16:15:58.754022,599617481305821727,-82.00
2025-12-25 16:15:58.754022,599617481305821727,-85.00
2025-12-25 16:15:58.754022,599617481305821727,-82.00
2025-12-25 16:15:58.754022,599617481305821727,-80.00
2025-12-25 16:15:58.754022,599617481305821727,-75.00
2025-12-25 16:15:58.754022,599617481305821727,-73.00
2025-12-25 16:15:58.754022,599617481305821727,-78.00
2025-12-25 16:15:58.754022,599617481305821727,-80.00
2025-12-25 16:15:58.754022,599617481305821727,-78.00
2025-12-25 16:15:58.754022,599617481305821727,-73.00
2025-12-25 16:15:58.754022,599617481305821727,-68.00
2025-12-25 16:15:58.754022,599617481305821727,-68.00
2025-12-25 16:15:58.754022,599617481305821727,-64.00
2025-12-25 16:15:59.326534,599617481866737480,-59.00
2025-12-25 16:15:59.326534,599617481866737480,-64.00
2025-12-25 16:15:59.326534,599617481866737480,-68.00
2025-12-25 16:15:59.326534,599617481866737480,-64.00
2025-12-25 16:15:59.326534,599617481866737480,-66.00
2025-12-25 16:15:59.326534,599617481866737480,-71.00
2025-12-25 16:15:59.326534,599617481866737480,-68.00
2025-12-25 16:15:59.326534,599617481866737480,-59.00
2025-12-25 16:15:59.326534,599617481866737480,-48.00
2025-12-25 16:15:59.326534,599617481866737480,-32.00
2025-12-25 16:15:59.326534,599617481866737480,-27.00
2025-12-25 16:15:59.326534,599617481866737480,-45.00
2025-12-25 16:15:59.326534,599617481866737480,-62.00
2025-12-25 16:15:59.326534,599617481866737480,-57.00
2025-12-25 16:15:59.326534,599617481866737480,-50.00
2025-12-25 16:15:59.326534,599617481866737480,-43.00
2025-12-25 16:15:59.326534,599617481866737480,-43.00
2025-12-25 16:15:59.326534,599617481866737480,-50.00
2025-12-25 16:15:59.326534,599617481866737480,-52.00
2025-12-25 16:15:59.326534,599617481866737480,-45.00
2025-12-25 16:15:59.326534,599617481866737480,-43.00
2025-12-25 16:15:59.326534,599617481866737480,-45.00
2025-12-25 16:15:59.326534,599617481866737480,-48.00
2025-12-25 16:15:59.326534,599617481866737480,-52.00
2025-12-25 16:15:59.326534,599617481866737480,-59.00
2025-12-25 16:15:59.326534,599617481866737480,-16.00
2025-12-25 16:15:59.326534,599617481866737480,135.00
2025-12-25 16:15:59.326534,599617481866737480,301.00
2025-12-25 16:15:59.326534,599617481866737480,170.00
2025-12-25 16:15:59.326534,599617481866737480,-227.00
2025-12-25 16:15:59.326534,599617481866737480,-393.00
2025-12-25 16:15:59.326534,599617481866737480,-264.00
2025-12-25 16:15:59.326534,599617481866737480,-174.00
2025-12-25 16:15:59.326534,599617481866737480,-131.00
2025-12-25 16:15:59.326534,599617481866737480,-52.00
2025-12-25 16:15:59.326534,599617481866737480,-29.00
2025-12-25 16:15:59.326534,599617481866737480,-48.00
2025-12-25 16:15:59.326534,599617481866737480,-36.00
2025-12-25 16:15:59.326534,599617481866737480,-22.00
2025-12-25 16:15:59.326534,599617481866737480,-29.00
2025-12-25 16:15:59.326534,599617481866737480,-27.00
2025-12-25 16:15:59.326534,599617481866737480,-18.00
2025-12-25 16:15:59.326534,599617481866737480,-18.00
2025-12-25 16:15:59.326534,599617481866737480,-16.00
2025-12-25 16:15:59.326534,599617481866737480,-13.00
2025-12-25 16:15:59.326534,599617481866737480,-18.00
2025-12-25 16:15:59.326534,599617481866737480,-16.00
2025-12-25 16:15:59.326534,599617481866737480,-11.00
2025-12-25 16:15:59.326534,599617481866737480,-9.00
2025-12-25 16:15:59.326534,599617481866737480,-6.00
2025-12-25 16:15:59.326534,599617481866737480,-2.00
2025-12-25 16:15:59.326534,599617481866737480,-2.00
2025-12-25 16:15:59.326534,599617481866737480,-2.00
2025-12-25 16:15:59.326534,599617481866737480,-2.00
2025-12-25 16:15:59.326534,599617481866737480,-4.00
2025-12-25 16:15:59.326534,599617481866737480,-9.00
2025-12-25 16:15:59.326534,599617481866737480,-11.00
2025-12-25 16:15:59.326534,599617481866737480,-13.00
2025-12-25 16:15:59.326534,599617481866737480,-16.00
2025-12-25 16:15:59.326534,599617481866737480,-25.00
2025-12-25 16:15:59.326534,599617481866737480,-32.00
2025-12-25 16:15:59.326534,599617481866737480,-39.00
2025-12-25 16:15:59.326534,599617481866737480,-52.00
2025-12-25 16:15:59.326534,599617481866737480,-68.00
2025-12-25 16:15:59.326534,599617481866737480,-73.00
2025-12-25 16:15:59.326534,599617481866737480,-75.00
2025-12-25 16:15:59.326534,599617481866737480,-82.00
2025-12-25 16:15:59.326534,599617481866737480,-82.00
2025-12-25 16:15:59.326534,599617481866737480,-85.00
2025-12-25 16:15:59.326534,599617481866737480,-89.00
2025-12-25 16:15:59.326534,599617481866737480,-87.00
2025-12-25 16:15:59.326534,599617481866737480,-78.00
2025-12-25 16:15:59.326534,599617481866737480,-85.00
2025-12-25 16:15:59.826969,599617482427648151,-80.00
2025-12-25 16:15:59.826969,599617482427648151,-64.00
2025-12-25 16:15:59.826969,599617482427648151,-57.00
2025-12-25 16:15:59.826969,599617482427648151,-55.00
2025-12-25 16:15:59.826969,599617482427648151,-48.00
2025-12-25 16:15:59.826969,599617482427648151,-41.00
2025-12-25 16:15:59.826969,599617482427648151,-36.00
2025-12-25 16:15:59.826969,599617482427648151,-36.00
2025-12-25 16:15:59.826969,599617482427648151,-39.00
2025-12-25 16:15:59.826969,599617482427648151,-39.00
2025-12-25 16:15:59.826969,599617482427648151,-39.00
2025-12-25 16:15:59.826969,599617482427648151,-32.00
2025-12-25 16:15:59.826969,599617482427648151,-25.00
2025-12-25 16:15:59.826969,599617482427648151,-32.00
2025-12-25 16:15:59.826969,599617482427648151,-39.00
2025-12-25 16:15:59.826969,599617482427648151,-32.00
2025-12-25 16:15:59.826969,599617482427648151,-32.00
2025-12-25 16:15:59.826969,599617482427648151,-43.00
2025-12-25 16:15:59.826969,599617482427648151,-48.00
2025-12-25 16:15:59.826969,599617482427648151,-39.00
2025-12-25 16:15:59.826969,599617482427648151,-29.00
2025-12-25 16:15:59.826969,599617482427648151,-32.00
2025-12-25 16:15:59.826969,599617482427648151,-25.00
2025-12-25 16:15:59.826969,599617482427648151,-11.00
2025-12-25 16:15:59.826969,599617482427648151,-20.00
2025-12-25 16:15:59.826969,599617482427648151,-43.00
2025-12-25 16:15:59.826969,599617482427648151,-45.00
2025-12-25 16:15:59.826969,599617482427648151,-45.00
2025-12-25 16:15:59.826969,599617482427648151,-50.00
2025-12-25 16:15:59.826969,599617482427648151,-48.00
2025-12-25 16:15:59.826969,599617482427648151,-52.00
2025-12-25 16:15:59.826969,599617482427648151,-59.00
2025-12-25 16:15:59.826969,599617482427648151,-52.00
2025-12-25 16:15:59.826969,599617482427648151,-50.00
2025-12-25 16:15:59.826969,599617482427648151,-55.00
2025-12-25 16:15:59.826969,599617482427648151,-55.00
2025-12-25 16:15:59.826969,599617482427648151,-55.00
2025-12-25 16:15:59.826969,599617482427648151,-62.00
2025-12-25 16:15:59.826969,599617482427648151,-55.00
2025-12-25 16:15:59.826969,599617482427648151,20.00
2025-12-25 16:15:59.826969,599617482427648151,200.00
2025-12-25 16:15:59.826969,599617482427648151,285.00
2025-12-25 16:15:59.826969,599617482427648151,6.00
2025-12-25 16:15:59.826969,599617482427648151,-354.00
2025-12-25 16:15:59.826969,599617482427648151,-365.00
2025-12-25 16:15:59.826969,599617482427648151,-223.00
2025-12-25 16:15:59.826969,599617482427648151,-170.00
2025-12-25 16:15:59.826969,599617482427648151,-103.00
2025-12-25 16:15:59.826969,599617482427648151,-39.00
2025-12-25 16:15:59.826969,599617482427648151,-48.00
2025-12-25 16:15:59.826969,599617482427648151,-59.00
2025-12-25 16:15:59.826969,599617482427648151,-32.00
2025-12-25 16:15:59.826969,599617482427648151,-16.00
2025-12-25 16:15:59.826969,599617482427648151,-27.00
2025-12-25 16:15:59.826969,599617482427648151,-27.00
2025-12-25 16:15:59.826969,599617482427648151,-20.00
2025-12-25 16:15:59.826969,599617482427648151,-22.00
2025-12-25 16:15:59.826969,599617482427648151,-20.00
2025-12-25 16:15:59.826969,599617482427648151,-16.00
2025-12-25 16:15:59.826969,599617482427648151,-16.00
2025-12-25 16:15:59.826969,599617482427648151,-11.00
2025-12-25 16:15:59.826969,599617482427648151,-2.00
2025-12-25 16:15:59.826969,599617482427648151,0.00
2025-12-25 16:15:59.826969,599617482427648151,0.00
2025-12-25 16:15:59.826969,599617482427648151,4.00
2025-12-25 16:15:59.826969,599617482427648151,4.00
2025-12-25 16:15:59.826969,599617482427648151,4.00
2025-12-25 16:15:59.826969,599617482427648151,11.00
2025-12-25 16:15:59.826969,599617482427648151,18.00
2025-12-25 16:15:59.826969,599617482427648151,9.00
2025-12-25 16:15:59.826969,599617482427648151,2.00
2025-12-25 16:15:59.826969,599617482427648151,2.00
2025-12-25 16:15:59.826969,599617482427648151,-2.00
2025-12-25 16:16:00.466462,599617482988568990,-11.00
2025-12-25 16:16:00.466462,599617482988568990,-25.00
2025-12-25 16:16:00.466462,599617482988568990,-36.00
2025-12-25 16:16:00.466462,599617482988568990,-43.00
2025-12-25 16:16:00.466462,599617482988568990,-57.00
2025-12-25 16:16:00.466462,599617482988568990,-71.00
2025-12-25 16:16:00.466462,599617482988568990,-73.00
2025-12-25 16:16:00.466462,599617482988568990,-64.00
2025-12-25 16:16:00.466462,599617482988568990,-50.00
2025-12-25 16:16:00.466462,599617482988568990,-41.00
2025-12-25 16:16:00.466462,599617482988568990,-41.00
2025-12-25 16:16:00.466462,599617482988568990,-41.00
2025-12-25 16:16:00.466462,599617482988568990,-43.00
2025-12-25 16:16:00.466462,599617482988568990,-43.00
2025-12-25 16:16:00.466462,599617482988568990,-39.00
2025-12-25 16:16:00.466462,599617482988568990,-39.00
2025-12-25 16:16:00.466462,599617482988568990,-43.00
2025-12-25 16:16:00.466462,599617482988568990,-45.00
2025-12-25 16:16:00.466462,599617482988568990,-50.00
2025-12-25 16:16:00.466462,599617482988568990,-48.00
2025-12-25 16:16:00.466462,599617482988568990,-45.00
2025-12-25 16:16:00.466462,599617482988568990,-48.00
2025-12-25 16:16:00.466462,599617482988568990,-52.00
2025-12-25 16:16:00.466462,599617482988568990,-55.00
2025-12-25 16:16:00.466462,599617482988568990,-55.00
2025-12-25 16:16:00.466462,599617482988568990,-59.00
2025-12-25 16:16:00.466462,599617482988568990,-59.00
2025-12-25 16:16:00.466462,599617482988568990,-55.00
2025-12-25 16:16:00.466462,599617482988568990,-55.00
2025-12-25 16:16:00.466462,599617482988568990,-62.00
2025-12-25 16:16:00.466462,599617482988568990,-66.00
2025-12-25 16:16:00.466462,599617482988568990,-66.00
2025-12-25 16:16:00.466462,599617482988568990,-68.00
2025-12-25 16:16:00.466462,599617482988568990,-71.00
2025-12-25 16:16:00.466462,599617482988568990,-68.00
2025-12-25 16:16:00.466462,599617482988568990,-66.00
2025-12-25 16:16:00.466462,599617482988568990,-57.00
2025-12-25 16:16:00.466462,599617482988568990,-43.00
2025-12-25 16:16:00.466462,599617482988568990,-41.00
2025-12-25 16:16:00.466462,599617482988568990,-62.00
2025-12-25 16:16:00.466462,599617482988568990,-73.00
2025-12-25 16:16:00.466462,599617482988568990,-68.00
2025-12-25 16:16:00.466462,599617482988568990,-71.00
2025-12-25 16:16:00.466462,599617482988568990,-73.00
2025-12-25 16:16:00.466462,599617482988568990,-62.00
2025-12-25 16:16:00.466462,599617482988568990,-59.00
2025-12-25 16:16:00.466462,599617482988568990,-68.00
2025-12-25 16:16:00.466462,599617482988568990,-71.00
2025-12-25 16:16:00.466462,599617482988568990,-62.00
2025-12-25 16:16:00.466462,599617482988568990,-62.00
2025-12-25 16:16:00.466462,599617482988568990,-66.00
2025-12-25 16:16:00.466462,599617482988568990,-68.00
2025-12-25 16:16:00.466462,599617482988568990,-68.00
2025-12-25 16:16:00.466462,599617482988568990,-22.00
2025-12-25 16:16:00.466462,599617482988568990,140.00
2025-12-25 16:16:00.466462,599617482988568990,285.00
2025-12-25 16:16:00.466462,599617482988568990,91.00
2025-12-25 16:16:00.466462,599617482988568990,-301.00
2025-12-25 16:16:00.466462,599617482988568990,-400.00
2025-12-25 16:16:00.466462,599617482988568990,-250.00
2025-12-25 16:16:00.466462,599617482988568990,-170.00
2025-12-25 16:16:00.466462,599617482988568990,-114.00
2025-12-25 16:16:00.466462,599617482988568990,-41.00
2025-12-25 16:16:00.466462,599617482988568990,-32.00
2025-12-25 16:16:00.466462,599617482988568990,-45.00
2025-12-25 16:16:00.466462,599617482988568990,-29.00
2025-12-25 16:16:00.466462,599617482988568990,-16.00
2025-12-25 16:16:00.466462,599617482988568990,-13.00
2025-12-25 16:16:00.466462,599617482988568990,-13.00
2025-12-25 16:16:00.466462,599617482988568990,-13.00
2025-12-25 16:16:00.466462,599617482988568990,-13.00
2025-12-25 16:16:00.466462,599617482988568990,-11.00
2025-12-25 16:16:00.466462,599617482988568990,-11.00
2025-12-25 16:16:01.036969,599617483549500003,-6.00
2025-12-25 16:16:01.036969,599617483549500003,9.00
2025-12-25 16:16:01.036969,599617483549500003,18.00
2025-12-25 16:16:01.036969,599617483549500003,11.00
2025-12-25 16:16:01.036969,599617483549500003,6.00
2025-12-25 16:16:01.036969,599617483549500003,11.00
2025-12-25 16:16:01.036969,599617483549500003,16.00
2025-12-25 16:16:01.036969,599617483549500003,18.00
2025-12-25 16:16:01.036969,599617483549500003,16.00
2025-12-25 16:16:01.036969,599617483549500003,13.00
2025-12-25 16:16:01.036969,599617483549500003,11.00
2025-12-25 16:16:01.036969,599617483549500003,18.00
2025-12-25 16:16:01.036969,599617483549500003,27.00
2025-12-25 16:16:01.036969,599617483549500003,32.00
2025-12-25 16:16:01.036969,599617483549500003,22.00
2025-12-25 16:16:01.036969,599617483549500003,9.00
2025-12-25 16:16:01.036969,599617483549500003,-4.00
2025-12-25 16:16:01.036969,599617483549500003,-4.00
2025-12-25 16:16:01.036969,599617483549500003,-6.00
2025-12-25 16:16:01.036969,599617483549500003,-18.00
2025-12-25 16:16:01.036969,599617483549500003,-32.00
2025-12-25 16:16:01.036969,599617483549500003,-36.00
2025-12-25 16:16:01.036969,599617483549500003,-39.00
2025-12-25 16:16:01.036969,599617483549500003,-39.00
2025-12-25 16:16:01.036969,599617483549500003,-36.00
2025-12-25 16:16:01.036969,599617483549500003,-34.00
2025-12-25 16:16:01.036969,599617483549500003,-43.00
2025-12-25 16:16:01.036969,599617483549500003,-48.00
2025-12-25 16:16:01.036969,599617483549500003,-45.00
2025-12-25 16:16:01.036969,599617483549500003,-41.00
2025-12-25 16:16:01.036969,599617483549500003,-45.00
2025-12-25 16:16:01.036969,599617483549500003,-50.00
2025-12-25 16:16:01.036969,599617483549500003,-50.00
2025-12-25 16:16:01.036969,599617483549500003,-50.00
2025-12-25 16:16:01.036969,599617483549500003,-52.00
2025-12-25 16:16:01.036969,599617483549500003,-50.00
2025-12-25 16:16:01.036969,599617483549500003,-52.00
2025-12-25 16:16:01.036969,599617483549500003,-52.00
2025-12-25 16:16:01.036969,599617483549500003,-55.00
2025-12-25 16:16:01.036969,599617483549500003,-59.00
2025-12-25 16:16:01.036969,599617483549500003,-57.00
2025-12-25 16:16:01.036969,599617483549500003,-52.00
2025-12-25 16:16:01.036969,599617483549500003,-57.00
2025-12-25 16:16:01.036969,599617483549500003,-62.00
2025-12-25 16:16:01.036969,599617483549500003,-62.00
2025-12-25 16:16:01.036969,599617483549500003,-66.00
2025-12-25 16:16:01.036969,599617483549500003,-75.00
2025-12-25 16:16:01.036969,599617483549500003,-73.00
2025-12-25 16:16:01.036969,599617483549500003,-68.00
2025-12-25 16:16:01.036969,599617483549500003,-62.00
2025-12-25 16:16:01.036969,599617483549500003,-50.00
2025-12-25 16:16:01.036969,599617483549500003,-41.00
2025-12-25 16:16:01.036969,599617483549500003,-43.00
2025-12-25 16:16:01.036969,599617483549500003,-52.00
2025-12-25 16:16:01.036969,599617483549500003,-59.00
2025-12-25 16:16:01.036969,599617483549500003,-64.00
2025-12-25 16:16:01.036969,599617483549500003,-64.00
2025-12-25 16:16:01.036969,599617483549500003,-64.00
2025-12-25 16:16:01.036969,599617483549500003,-66.00
2025-12-25 16:16:01.036969,599617483549500003,-64.00
2025-12-25 16:16:01.036969,599617483549500003,-59.00
2025-12-25 16:16:01.036969,599617483549500003,-64.00
2025-12-25 16:16:01.036969,599617483549500003,-66.00
2025-12-25 16:16:01.036969,599617483549500003,-64.00
2025-12-25 16:16:01.036969,599617483549500003,-68.00
2025-12-25 16:16:01.036969,599617483549500003,-66.00
2025-12-25 16:16:01.036969,599617483549500003,-39.00
2025-12-25 16:16:01.036969,599617483549500003,80.00
2025-12-25 16:16:01.036969,599617483549500003,266.00
2025-12-25 16:16:01.036969,599617483549500003,223.00
2025-12-25 16:16:01.036969,599617483549500003,-158.00
2025-12-25 16:16:01.036969,599617483549500003,-404.00
2025-12-25 16:16:01.036969,599617483549500003,-303.00
2025-12-25 16:16:01.537102,599617484110431014,-197.00
2025-12-25 16:16:01.537102,599617484110431014,-158.00
2025-12-25 16:16:01.537102,599617484110431014,-75.00
2025-12-25 16:16:01.537102,599617484110431014,-34.00
2025-12-25 16:16:01.537102,599617484110431014,-45.00
2025-12-25 16:16:01.537102,599617484110431014,-32.00
2025-12-25 16:16:01.537102,599617484110431014,-16.00
2025-12-25 16:16:01.537102,599617484110431014,-22.00
2025-12-25 16:16:01.537102,599617484110431014,-18.00
2025-12-25 16:16:01.537102,599617484110431014,-2.00
2025-12-25 16:16:01.537102,599617484110431014,0.00
2025-12-25 16:16:01.537102,599617484110431014,0.00
2025-12-25 16:16:01.537102,599617484110431014,2.00
2025-12-25 16:16:01.537102,599617484110431014,4.00
2025-12-25 16:16:01.537102,599617484110431014,11.00
2025-12-25 16:16:01.537102,599617484110431014,25.00
2025-12-25 16:16:01.537102,599617484110431014,29.00
2025-12-25 16:16:01.537102,599617484110431014,29.00
2025-12-25 16:16:01.537102,599617484110431014,39.00
2025-12-25 16:16:01.537102,599617484110431014,41.00
2025-12-25 16:16:01.537102,599617484110431014,41.00
2025-12-25 16:16:01.537102,599617484110431014,45.00
2025-12-25 16:16:01.537102,599617484110431014,43.00
2025-12-25 16:16:01.537102,599617484110431014,34.00
2025-12-25 16:16:01.537102,599617484110431014,34.00
2025-12-25 16:16:01.537102,599617484110431014,39.00
2025-12-25 16:16:01.537102,599617484110431014,32.00
2025-12-25 16:16:01.537102,599617484110431014,16.00
2025-12-25 16:16:01.537102,599617484110431014,6.00
2025-12-25 16:16:01.537102,599617484110431014,0.00
2025-12-25 16:16:01.537102,599617484110431014,-16.00
2025-12-25 16:16:01.537102,599617484110431014,-36.00
2025-12-25 16:16:01.537102,599617484110431014,-48.00
2025-12-25 16:16:01.537102,599617484110431014,-52.00
2025-12-25 16:16:01.537102,599617484110431014,-62.00
2025-12-25 16:16:01.537102,599617484110431014,-66.00
2025-12-25 16:16:01.537102,599617484110431014,-62.00
2025-12-25 16:16:01.537102,599617484110431014,-59.00
2025-12-25 16:16:01.537102,599617484110431014,-62.00
2025-12-25 16:16:01.537102,599617484110431014,-64.00
2025-12-25 16:16:01.537102,599617484110431014,-64.00
2025-12-25 16:16:01.537102,599617484110431014,-64.00
2025-12-25 16:16:01.537102,599617484110431014,-62.00
2025-12-25 16:16:01.537102,599617484110431014,-62.00
2025-12-25 16:16:01.537102,599617484110431014,-59.00
2025-12-25 16:16:01.537102,599617484110431014,-52.00
2025-12-25 16:16:01.537102,599617484110431014,-57.00
2025-12-25 16:16:01.537102,599617484110431014,-64.00
2025-12-25 16:16:01.537102,599617484110431014,-62.00
2025-12-25 16:16:01.537102,599617484110431014,-62.00
2025-12-25 16:16:01.537102,599617484110431014,-68.00
2025-12-25 16:16:01.537102,599617484110431014,-71.00
2025-12-25 16:16:01.537102,599617484110431014,-68.00
2025-12-25 16:16:01.537102,599617484110431014,-73.00
2025-12-25 16:16:01.537102,599617484110431014,-80.00
2025-12-25 16:16:01.537102,599617484110431014,-78.00
2025-12-25 16:16:01.537102,599617484110431014,-75.00
2025-12-25 16:16:01.537102,599617484110431014,-78.00
2025-12-25 16:16:01.537102,599617484110431014,-82.00
2025-12-25 16:16:01.537102,599617484110431014,-80.00
2025-12-25 16:16:01.537102,599617484110431014,-68.00
2025-12-25 16:16:01.537102,599617484110431014,-55.00
2025-12-25 16:16:01.537102,599617484110431014,-48.00
2025-12-25 16:16:01.537102,599617484110431014,-59.00
2025-12-25 16:16:01.537102,599617484110431014,-71.00
2025-12-25 16:16:01.537102,599617484110431014,-75.00
2025-12-25 16:16:01.537102,599617484110431014,-78.00
2025-12-25 16:16:01.537102,599617484110431014,-75.00
2025-12-25 16:16:01.537102,599617484110431014,-75.00
2025-12-25 16:16:01.537102,599617484110431014,-82.00
2025-12-25 16:16:01.537102,599617484110431014,-80.00
2025-12-25 16:16:01.537102,599617484110431014,-71.00
2025-12-25 16:16:01.537102,599617484110431014,-71.00
2025-12-25 16:16:02.111521,599617484671346767,-71.00
2025-12-25 16:16:02.111521,599617484671346767,-68.00
2025-12-25 16:16:02.111521,599617484671346767,-75.00
2025-12-25 16:16:02.111521,599617484671346767,-85.00
2025-12-25 16:16:02.111521,599617484671346767,-55.00
2025-12-25 16:16:02.111521,599617484671346767,85.00
2025-12-25 16:16:02.111521,599617484671346767,282.00
2025-12-25 16:16:02.111521,599617484671346767,213.00
2025-12-25 16:16:02.111521,599617484671346767,-183.00
2025-12-25 16:16:02.111521,599617484671346767,-397.00
2025-12-25 16:16:02.111521,599617484671346767,-278.00
2025-12-25 16:16:02.111521,599617484671346767,-200.00
2025-12-25 16:16:02.111521,599617484671346767,-170.00
2025-12-25 16:16:02.111521,599617484671346767,-62.00
2025-12-25 16:16:02.111521,599617484671346767,-9.00
2025-12-25 16:16:02.111521,599617484671346767,-20.00
2025-12-25 16:16:02.111521,599617484671346767,-11.00
2025-12-25 16:16:02.111521,599617484671346767,2.00
2025-12-25 16:16:02.111521,599617484671346767,2.00
2025-12-25 16:16:02.111521,599617484671346767,2.00
2025-12-25 16:16:02.111521,599617484671346767,-2.00
2025-12-25 16:16:02.111521,599617484671346767,-4.00
2025-12-25 16:16:02.111521,599617484671346767,4.00
2025-12-25 16:16:02.111521,599617484671346767,6.00
2025-12-25 16:16:02.111521,599617484671346767,4.00
2025-12-25 16:16:02.111521,599617484671346767,9.00
2025-12-25 16:16:02.111521,599617484671346767,16.00
2025-12-25 16:16:02.111521,599617484671346767,16.00
2025-12-25 16:16:02.111521,599617484671346767,16.00
2025-12-25 16:16:02.111521,599617484671346767,29.00
2025-12-25 16:16:02.111521,599617484671346767,43.00
2025-12-25 16:16:02.111521,599617484671346767,34.00
2025-12-25 16:16:02.111521,599617484671346767,32.00
2025-12-25 16:16:02.111521,599617484671346767,34.00
2025-12-25 16:16:02.111521,599617484671346767,27.00
2025-12-25 16:16:02.111521,599617484671346767,20.00
2025-12-25 16:16:02.111521,599617484671346767,20.00
2025-12-25 16:16:02.111521,599617484671346767,20.00
2025-12-25 16:16:02.111521,599617484671346767,16.00
2025-12-25 16:16:02.111521,599617484671346767,4.00
2025-12-25 16:16:02.111521,599617484671346767,-9.00
2025-12-25 16:16:02.111521,599617484671346767,-25.00
2025-12-25 16:16:02.111521,599617484671346767,-39.00
2025-12-25 16:16:02.111521,599617484671346767,-52.00
2025-12-25 16:16:02.111521,599617484671346767,-66.00
2025-12-25 16:16:02.111521,599617484671346767,-73.00
2025-12-25 16:16:02.111521,599617484671346767,-75.00
2025-12-25 16:16:02.111521,599617484671346767,-71.00
2025-12-25 16:16:02.111521,599617484671346767,-68.00
2025-12-25 16:16:02.111521,599617484671346767,-71.00
2025-12-25 16:16:02.111521,599617484671346767,-71.00
2025-12-25 16:16:02.111521,599617484671346767,-68.00
2025-12-25 16:16:02.111521,599617484671346767,-66.00
2025-12-25 16:16:02.111521,599617484671346767,-66.00
2025-12-25 16:16:02.111521,599617484671346767,-71.00
2025-12-25 16:16:02.111521,599617484671346767,-73.00
2025-12-25 16:16:02.111521,599617484671346767,-71.00
2025-12-25 16:16:02.111521,599617484671346767,-73.00
2025-12-25 16:16:02.111521,599617484671346767,-80.00
2025-12-25 16:16:02.111521,599617484671346767,-78.00
2025-12-25 16:16:02.111521,599617484671346767,-75.00
2025-12-25 16:16:02.111521,599617484671346767,-75.00
2025-12-25 16:16:02.111521,599617484671346767,-80.00
2025-12-25 16:16:02.111521,599617484671346767,-85.00
2025-12-25 16:16:02.111521,599617484671346767,-82.00
2025-12-25 16:16:02.111521,599617484671346767,-82.00
2025-12-25 16:16:02.111521,599617484671346767,-91.00
2025-12-25 16:16:02.111521,599617484671346767,-96.00
2025-12-25 16:16:02.111521,599617484671346767,-91.00
2025-12-25 16:16:02.111521,599617484671346767,-94.00
2025-12-25 16:16:02.111521,599617484671346767,-87.00
2025-12-25 16:16:02.111521,599617484671346767,-68.00
2025-12-25 16:16:02.111521,599617484671346767,-62.00
2025-12-25 16:16:02.605223,599617485232262520,-71.00
2025-12-25 16:16:02.605223,599617485232262520,-87.00
2025-12-25 16:16:02.605223,599617485232262520,-98.00
2025-12-25 16:16:02.605223,599617485232262520,-96.00
2025-12-25 16:16:02.605223,599617485232262520,-87.00
2025-12-25 16:16:02.605223,599617485232262520,-85.00
2025-12-25 16:16:02.605223,599617485232262520,-87.00
2025-12-25 16:16:02.605223,599617485232262520,-80.00
2025-12-25 16:16:02.605223,599617485232262520,-75.00
2025-12-25 16:16:02.605223,599617485232262520,-68.00
2025-12-25 16:16:02.605223,599617485232262520,-57.00
2025-12-25 16:16:02.605223,599617485232262520,-55.00
2025-12-25 16:16:02.605223,599617485232262520,-64.00
2025-12-25 16:16:02.605223,599617485232262520,-68.00
2025-12-25 16:16:02.605223,599617485232262520,-34.00
2025-12-25 16:16:02.605223,599617485232262520,110.00
2025-12-25 16:16:02.605223,599617485232262520,289.00
2025-12-25 16:16:02.605223,599617485232262520,167.00
2025-12-25 16:16:02.605223,599617485232262520,-243.00
2025-12-25 16:16:02.605223,599617485232262520,-413.00
2025-12-25 16:16:02.605223,599617485232262520,-275.00
2025-12-25 16:16:02.605223,599617485232262520,-202.00
2025-12-25 16:16:02.605223,599617485232262520,-165.00
2025-12-25 16:16:02.605223,599617485232262520,-68.00
2025-12-25 16:16:02.605223,599617485232262520,-36.00
2025-12-25 16:16:02.605223,599617485232262520,-55.00
2025-12-25 16:16:02.605223,599617485232262520,-39.00
2025-12-25 16:16:02.605223,599617485232262520,-20.00
2025-12-25 16:16:02.605223,599617485232262520,-25.00
2025-12-25 16:16:02.605223,599617485232262520,-25.00
2025-12-25 16:16:02.605223,599617485232262520,-11.00
2025-12-25 16:16:02.605223,599617485232262520,-6.00
2025-12-25 16:16:02.605223,599617485232262520,-13.00
2025-12-25 16:16:02.605223,599617485232262520,-11.00
2025-12-25 16:16:02.605223,599617485232262520,0.00
2025-12-25 16:16:02.605223,599617485232262520,2.00
2025-12-25 16:16:02.605223,599617485232262520,-4.00
2025-12-25 16:16:02.605223,599617485232262520,2.00
2025-12-25 16:16:02.605223,599617485232262520,13.00
2025-12-25 16:16:02.605223,599617485232262520,20.00
2025-12-25 16:16:02.605223,599617485232262520,22.00
2025-12-25 16:16:02.605223,599617485232262520,27.00
2025-12-25 16:16:02.605223,599617485232262520,27.00
2025-12-25 16:16:02.605223,599617485232262520,20.00
2025-12-25 16:16:02.605223,599617485232262520,13.00
2025-12-25 16:16:02.605223,599617485232262520,16.00
2025-12-25 16:16:02.605223,599617485232262520,13.00
2025-12-25 16:16:02.605223,599617485232262520,2.00
2025-12-25 16:16:02.605223,599617485232262520,-6.00
2025-12-25 16:16:02.605223,599617485232262520,-18.00
2025-12-25 16:16:02.605223,599617485232262520,-32.00
2025-12-25 16:16:02.605223,599617485232262520,-41.00
2025-12-25 16:16:02.605223,599617485232262520,-55.00
2025-12-25 16:16:02.605223,599617485232262520,-68.00
2025-12-25 16:16:02.605223,599617485232262520,-82.00
2025-12-25 16:16:02.605223,599617485232262520,-85.00
2025-12-25 16:16:02.605223,599617485232262520,-85.00
2025-12-25 16:16:02.605223,599617485232262520,-85.00
2025-12-25 16:16:02.605223,599617485232262520,-82.00
2025-12-25 16:16:02.605223,599617485232262520,-85.00
2025-12-25 16:16:02.605223,599617485232262520,-85.00
2025-12-25 16:16:02.605223,599617485232262520,-80.00
2025-12-25 16:16:02.605223,599617485232262520,-75.00
2025-12-25 16:16:02.605223,599617485232262520,-80.00
2025-12-25 16:16:02.605223,599617485232262520,-85.00
2025-12-25 16:16:02.605223,599617485232262520,-82.00
2025-12-25 16:16:02.605223,599617485232262520,-82.00
2025-12-25 16:16:02.605223,599617485232262520,-85.00
2025-12-25 16:16:02.605223,599617485232262520,-82.00
2025-12-25 16:16:02.605223,599617485232262520,-85.00
2025-12-25 16:16:02.605223,599617485232262520,-87.00
2025-12-25 16:16:02.605223,599617485232262520,-82.00
2025-12-25 16:16:02.605223,599617485232262520,-80.00
2025-12-25 16:16:03.262932,599617485793178277,-80.00
2025-12-25 16:16:03.262932,599617485793178277,-80.00
2025-12-25 16:16:03.262932,599617485793178277,-82.00
2025-12-25 16:16:03.262932,599617485793178277,-87.00
2025-12-25 16:16:03.262932,599617485793178277,-89.00
2025-12-25 16:16:03.262932,599617485793178277,-94.00
2025-12-25 16:16:03.262932,599617485793178277,-85.00
2025-12-25 16:16:03.262932,599617485793178277,-64.00
2025-12-25 16:16:03.262932,599617485793178277,-50.00
2025-12-25 16:16:03.262932,599617485793178277,-48.00
2025-12-25 16:16:03.262932,599617485793178277,-52.00
2025-12-25 16:16:03.262932,599617485793178277,-71.00
2025-12-25 16:16:03.262932,599617485793178277,-78.00
2025-12-25 16:16:03.262932,599617485793178277,-75.00
2025-12-25 16:16:03.262932,599617485793178277,-75.00
2025-12-25 16:16:03.262932,599617485793178277,-78.00
2025-12-25 16:16:03.262932,599617485793178277,-75.00
2025-12-25 16:16:03.262932,599617485793178277,-75.00
2025-12-25 16:16:03.262932,599617485793178277,-73.00
2025-12-25 16:16:03.262932,599617485793178277,-71.00
2025-12-25 16:16:03.262932,599617485793178277,-73.00
2025-12-25 16:16:03.262932,599617485793178277,-75.00
2025-12-25 16:16:03.262932,599617485793178277,-71.00
2025-12-25 16:16:03.262932,599617485793178277,-66.00
2025-12-25 16:16:03.262932,599617485793178277,-45.00
2025-12-25 16:16:03.262932,599617485793178277,50.00
2025-12-25 16:16:03.262932,599617485793178277,241.00
2025-12-25 16:16:03.262932,599617485793178277,282.00
2025-12-25 16:16:03.262932,599617485793178277,-55.00
2025-12-25 16:16:03.262932,599617485793178277,-393.00
2025-12-25 16:16:03.262932,599617485793178277,-342.00
2025-12-25 16:16:03.262932,599617485793178277,-206.00
2025-12-25 16:16:03.262932,599617485793178277,-174.00
2025-12-25 16:16:03.262932,599617485793178277,-98.00
2025-12-25 16:16:03.262932,599617485793178277,-32.00
2025-12-25 16:16:03.262932,599617485793178277,-43.00
2025-12-25 16:16:03.262932,599617485793178277,-48.00
