Timestamp,Device Timestamp (ns),ECG Value (uV)
2025-06-26 14:26:56.729627,599618650737306533,-154.00
2025-06-26 14:26:56.729627,599618650737306533,-159.00
2025-06-26 14:26:56.729627,599618650737306533,-156.00
2025-06-26 14:26:56.729627,599618650737306533,-154.00
2025-06-26 14:26:56.729627,599618650737306533,-151.00
2025-06-26 14:26:56.729627,599618650737306533,-144.00
2025-06-26 14:26:56.729627,599618650737306533,-137.00
2025-06-26 14:26:56.729627,599618650737306533,-129.00
2025-06-26 14:26:56.729627,599618650737306533,-120.00
2025-06-26 14:26:56.729627,599618650737306533,-112.00
2025-06-26 14:26:56.729627,599618650737306533,-107.00
2025-06-26 14:26:56.729627,599618650737306533,-102.00
2025-06-26 14:26:56.729627,599618650737306533,-95.00
2025-06-26 14:26:56.729627,599618650737306533,-95.00
2025-06-26 14:26:56.729627,599618650737306533,-100.00
2025-06-26 14:26:56.729627,599618650737306533,-97.00
2025-06-26 14:26:56.729627,599618650737306533,-90.00
2025-06-26 14:26:56.729627,599618650737306533,-88.00
2025-06-26 14:26:56.729627,599618650737306533,-85.00
2025-06-26 14:26:56.729627,599618650737306533,-85.00
2025-06-26 14:26:56.729627,599618650737306533,-90.00
2025-06-26 14:26:56.729627,599618650737306533,-90.00
2025-06-26 14:26:56.729627,599618650737306533,-88.00
2025-06-26 14:26:56.729627,599618650737306533,-83.00
2025-06-26 14:26:56.729627,599618650737306533,-78.00
2025-06-26 14:26:56.729627,599618650737306533,-83.00
2025-06-26 14:26:56.729627,599618650737306533,-90.00
2025-06-26 14:26:56.729627,599618650737306533,-88.00
2025-06-26 14:26:56.729627,599618650737306533,-83.00
2025-06-26 14:26:56.729627,599618650737306533,-80.00
2025-06-26 14:26:56.729627,599618650737306533,-78.00
2025-06-26 14:26:56.729627,599618650737306533,-75.00
2025-06-26 14:26:56.729627,599618650737306533,-73.00
2025-06-26 14:26:56.729627,599618650737306533,-78.00
2025-06-26 14:26:56.729627,599618650737306533,-80.00
2025-06-26 14:26:56.729627,599618650737306533,-73.00
2025-06-26 14:26:56.729627,599618650737306533,-71.00
2025-06-26 14:26:56.729627,599618650737306533,-78.00
2025-06-26 14:26:56.729627,599618650737306533,-73.00
2025-06-26 14:26:56.729627,599618650737306533,-71.00
2025-06-26 14:26:56.729627,599618650737306533,-73.00
2025-06-26 14:26:56.729627,599618650737306533,-73.00
2025-06-26 14:26:56.729627,599618650737306533,-66.00
2025-06-26 14:26:56.729627,599618650737306533,-56.00
2025-06-26 14:26:56.729627,599618650737306533,-31.00
2025-06-26 14:26:56.729627,599618650737306533,-17.00
2025-06-26 14:26:56.729627,599618650737306533,-36.00
2025-06-26 14:26:56.729627,599618650737306533,-53.00
2025-06-26 14:26:56.729627,599618650737306533,-48.00
2025-06-26 14:26:56.729627,599618650737306533,-51.00
2025-06-26 14:26:56.729627,599618650737306533,-63.00
2025-06-26 14:26:56.729627,599618650737306533,-63.00
2025-06-26 14:26:56.729627,599618650737306533,-63.00
2025-06-26 14:26:56.729627,599618650737306533,-63.00
2025-06-26 14:26:56.729627,599618650737306533,-56.00
2025-06-26 14:26:56.729627,599618650737306533,-58.00
2025-06-26 14:26:56.729627,599618650737306533,-71.00
2025-06-26 14:26:56.729627,599618650737306533,-63.00
2025-06-26 14:26:56.729627,599618650737306533,24.00
2025-06-26 14:26:56.729627,599618650737306533,227.00
2025-06-26 14:26:56.729627,599618650737306533,509.00
2025-06-26 14:26:56.729627,599618650737306533,700.00
2025-06-26 14:26:56.729627,599618650737306533,543.00
2025-06-26 14:26:56.729627,599618650737306533,39.00
2025-06-26 14:26:56.729627,599618650737306533,-293.00
2025-06-26 14:26:56.729627,599618650737306533,-149.00
2025-06-26 14:26:56.729627,599618650737306533,-17.00
2025-06-26 14:26:56.729627,599618650737306533,-117.00
2025-06-26 14:26:56.729627,599618650737306533,-137.00
2025-06-26 14:26:56.729627,599618650737306533,-85.00
2025-06-26 14:26:56.729627,599618650737306533,-95.00
2025-06-26 14:26:56.729627,599618650737306533,-95.00
2025-06-26 14:26:56.729627,599618650737306533,-68.00
2025-06-26 14:26:57.270168,599618651298003574,-66.00
2025-06-26 14:26:57.270168,599618651298003574,-68.00
2025-06-26 14:26:57.270168,599618651298003574,-56.00
2025-06-26 14:26:57.270168,599618651298003574,-51.00
2025-06-26 14:26:57.270168,599618651298003574,-36.00
2025-06-26 14:26:57.270168,599618651298003574,-9.00
2025-06-26 14:26:57.270168,599618651298003574,-4.00
2025-06-26 14:26:57.270168,599618651298003574,-4.00
2025-06-26 14:26:57.270168,599618651298003574,9.00
2025-06-26 14:26:57.270168,599618651298003574,17.00
2025-06-26 14:26:57.270168,599618651298003574,31.00
2025-06-26 14:26:57.270168,599618651298003574,61.00
2025-06-26 14:26:57.270168,599618651298003574,73.00
2025-06-26 14:26:57.270168,599618651298003574,78.00
2025-06-26 14:26:57.270168,599618651298003574,93.00
2025-06-26 14:26:57.270168,599618651298003574,97.00
2025-06-26 14:26:57.270168,599618651298003574,93.00
2025-06-26 14:26:57.270168,599618651298003574,97.00
2025-06-26 14:26:57.270168,599618651298003574,97.00
2025-06-26 14:26:57.270168,599618651298003574,73.00
2025-06-26 14:26:57.270168,599618651298003574,31.00
2025-06-26 14:26:57.270168,599618651298003574,-14.00
2025-06-26 14:26:57.270168,599618651298003574,-58.00
2025-06-26 14:26:57.270168,599618651298003574,-97.00
2025-06-26 14:26:57.270168,599618651298003574,-132.00
2025-06-26 14:26:57.270168,599618651298003574,-149.00
2025-06-26 14:26:57.270168,599618651298003574,-156.00
2025-06-26 14:26:57.270168,599618651298003574,-166.00
2025-06-26 14:26:57.270168,599618651298003574,-154.00
2025-06-26 14:26:57.270168,599618651298003574,-137.00
2025-06-26 14:26:57.270168,599618651298003574,-144.00
2025-06-26 14:26:57.270168,599618651298003574,-154.00
2025-06-26 14:26:57.270168,599618651298003574,-139.00
2025-06-26 14:26:57.270168,599618651298003574,-107.00
2025-06-26 14:26:57.270168,599618651298003574,-105.00
2025-06-26 14:26:57.270168,599618651298003574,-124.00
2025-06-26 14:26:57.270168,599618651298003574,-115.00
2025-06-26 14:26:57.270168,599618651298003574,-90.00
2025-06-26 14:26:57.270168,599618651298003574,-90.00
2025-06-26 14:26:57.270168,599618651298003574,-100.00
2025-06-26 14:26:57.270168,599618651298003574,-93.00
2025-06-26 14:26:57.270168,599618651298003574,-75.00
2025-06-26 14:26:57.270168,599618651298003574,-58.00
2025-06-26 14:26:57.270168,599618651298003574,-71.00
2025-06-26 14:26:57.270168,599618651298003574,-95.00
2025-06-26 14:26:57.270168,599618651298003574,-88.00
2025-06-26 14:26:57.270168,599618651298003574,-80.00
2025-06-26 14:26:57.270168,599618651298003574,-83.00
2025-06-26 14:26:57.270168,599618651298003574,-80.00
2025-06-26 14:26:57.270168,599618651298003574,-93.00
2025-06-26 14:26:57.270168,599618651298003574,-95.00
2025-06-26 14:26:57.270168,599618651298003574,-80.00
2025-06-26 14:26:57.270168,599618651298003574,-90.00
2025-06-26 14:26:57.270168,599618651298003574,-93.00
2025-06-26 14:26:57.270168,599618651298003574,-83.00
2025-06-26 14:26:57.270168,599618651298003574,-97.00
2025-06-26 14:26:57.270168,599618651298003574,-107.00
2025-06-26 14:26:57.270168,599618651298003574,-85.00
2025-06-26 14:26:57.270168,599618651298003574,-90.00
2025-06-26 14:26:57.270168,599618651298003574,-112.00
2025-06-26 14:26:57.270168,599618651298003574,-105.00
2025-06-26 14:26:57.270168,599618651298003574,-95.00
2025-06-26 14:26:57.270168,599618651298003574,-95.00
2025-06-26 14:26:57.270168,599618651298003574,-61.00
2025-06-26 14:26:57.270168,599618651298003574,-34.00
2025-06-26 14:26:57.270168,599618651298003574,-61.00
2025-06-26 14:26:57.270168,599618651298003574,-75.00
2025-06-26 14:26:57.270168,599618651298003574,-68.00
2025-06-26 14:26:57.270168,599618651298003574,-78.00
2025-06-26 14:26:57.270168,599618651298003574,-83.00
2025-06-26 14:26:57.270168,599618651298003574,-78.00
2025-06-26 14:26:57.270168,599618651298003574,-80.00
2025-06-26 14:26:57.270168,599618651298003574,-85.00
2025-06-26 14:26:57.869736,599618651858731135,-85.00
2025-06-26 14:26:57.869736,599618651858731135,-80.00
2025-06-26 14:26:57.869736,599618651858731135,-71.00
2025-06-26 14:26:57.869736,599618651858731135,-75.00
2025-06-26 14:26:57.869736,599618651858731135,-36.00
2025-06-26 14:26:57.869736,599618651858731135,144.00
2025-06-26 14:26:57.869736,599618651858731135,450.00
2025-06-26 14:26:57.869736,599618651858731135,769.00
2025-06-26 14:26:57.869736,599618651858731135,884.00
2025-06-26 14:26:57.869736,599618651858731135,482.00
2025-06-26 14:26:57.869736,599618651858731135,-169.00
2025-06-26 14:26:57.869736,599618651858731135,-291.00
2025-06-26 14:26:57.869736,599618651858731135,-26.00
2025-06-26 14:26:57.869736,599618651858731135,-31.00
2025-06-26 14:26:57.869736,599618651858731135,-149.00
2025-06-26 14:26:57.869736,599618651858731135,-102.00
2025-06-26 14:26:57.869736,599618651858731135,-73.00
2025-06-26 14:26:57.869736,599618651858731135,-93.00
2025-06-26 14:26:57.869736,599618651858731135,-71.00
2025-06-26 14:26:57.869736,599618651858731135,-56.00
2025-06-26 14:26:57.869736,599618651858731135,-56.00
2025-06-26 14:26:57.869736,599618651858731135,-34.00
2025-06-26 14:26:57.869736,599618651858731135,-24.00
2025-06-26 14:26:57.869736,599618651858731135,-26.00
2025-06-26 14:26:57.869736,599618651858731135,-12.00
2025-06-26 14:26:57.869736,599618651858731135,4.00
2025-06-26 14:26:57.869736,599618651858731135,17.00
2025-06-26 14:26:57.869736,599618651858731135,24.00
2025-06-26 14:26:57.869736,599618651858731135,34.00
2025-06-26 14:26:57.869736,599618651858731135,51.00
2025-06-26 14:26:57.869736,599618651858731135,75.00
2025-06-26 14:26:57.869736,599618651858731135,83.00
2025-06-26 14:26:57.869736,599618651858731135,85.00
2025-06-26 14:26:57.869736,599618651858731135,112.00
2025-06-26 14:26:57.869736,599618651858731135,129.00
2025-06-26 14:26:57.869736,599618651858731135,115.00
2025-06-26 14:26:57.869736,599618651858731135,115.00
2025-06-26 14:26:57.869736,599618651858731135,124.00
2025-06-26 14:26:57.869736,599618651858731135,97.00
2025-06-26 14:26:57.869736,599618651858731135,46.00
2025-06-26 14:26:57.869736,599618651858731135,2.00
2025-06-26 14:26:57.869736,599618651858731135,-46.00
2025-06-26 14:26:57.869736,599618651858731135,-102.00
2025-06-26 14:26:57.869736,599618651858731135,-134.00
2025-06-26 14:26:57.869736,599618651858731135,-149.00
2025-06-26 14:26:57.869736,599618651858731135,-169.00
2025-06-26 14:26:57.869736,599618651858731135,-166.00
2025-06-26 14:26:57.869736,599618651858731135,-159.00
2025-06-26 14:26:57.869736,599618651858731135,-156.00
2025-06-26 14:26:57.869736,599618651858731135,-149.00
2025-06-26 14:26:57.869736,599618651858731135,-137.00
2025-06-26 14:26:57.869736,599618651858731135,-139.00
2025-06-26 14:26:57.869736,599618651858731135,-139.00
2025-06-26 14:26:57.869736,599618651858731135,-127.00
2025-06-26 14:26:57.869736,599618651858731135,-115.00
2025-06-26 14:26:57.869736,599618651858731135,-112.00
2025-06-26 14:26:57.869736,599618651858731135,-107.00
2025-06-26 14:26:57.869736,599618651858731135,-102.00
2025-06-26 14:26:57.869736,599618651858731135,-100.00
2025-06-26 14:26:57.869736,599618651858731135,-95.00
2025-06-26 14:26:57.869736,599618651858731135,-90.00
2025-06-26 14:26:57.869736,599618651858731135,-85.00
2025-06-26 14:26:57.869736,599618651858731135,-83.00
2025-06-26 14:26:57.869736,599618651858731135,-83.00
2025-06-26 14:26:57.869736,599618651858731135,-80.00
2025-06-26 14:26:57.869736,599618651858731135,-75.00
2025-06-26 14:26:57.869736,599618651858731135,-78.00
2025-06-26 14:26:57.869736,599618651858731135,-80.00
2025-06-26 14:26:57.869736,599618651858731135,-73.00
2025-06-26 14:26:57.869736,599618651858731135,-73.00
2025-06-26 14:26:57.869736,599618651858731135,-78.00
2025-06-26 14:26:57.869736,599618651858731135,-71.00
2025-06-26 14:26:57.869736,599618651858731135,-66.00
2025-06-26 14:26:58.411000,599618652419428176,-61.00
2025-06-26 14:26:58.411000,599618652419428176,-53.00
2025-06-26 14:26:58.411000,599618652419428176,-53.00
2025-06-26 14:26:58.411000,599618652419428176,-58.00
2025-06-26 14:26:58.411000,599618652419428176,-56.00
2025-06-26 14:26:58.411000,599618652419428176,-51.00
2025-06-26 14:26:58.411000,599618652419428176,-51.00
2025-06-26 14:26:58.411000,599618652419428176,-53.00
2025-06-26 14:26:58.411000,599618652419428176,-53.00
2025-06-26 14:26:58.411000,599618652419428176,-46.00
2025-06-26 14:26:58.411000,599618652419428176,-17.00
2025-06-26 14:26:58.411000,599618652419428176,7.00
2025-06-26 14:26:58.411000,599618652419428176,0.00
2025-06-26 14:26:58.411000,599618652419428176,-22.00
2025-06-26 14:26:58.411000,599618652419428176,-22.00
2025-06-26 14:26:58.411000,599618652419428176,-19.00
2025-06-26 14:26:58.411000,599618652419428176,-24.00
2025-06-26 14:26:58.411000,599618652419428176,-29.00
2025-06-26 14:26:58.411000,599618652419428176,-29.00
2025-06-26 14:26:58.411000,599618652419428176,-31.00
2025-06-26 14:26:58.411000,599618652419428176,-31.00
2025-06-26 14:26:58.411000,599618652419428176,-29.00
2025-06-26 14:26:58.411000,599618652419428176,-29.00
2025-06-26 14:26:58.411000,599618652419428176,-34.00
2025-06-26 14:26:58.411000,599618652419428176,-12.00
2025-06-26 14:26:58.411000,599618652419428176,124.00
2025-06-26 14:26:58.411000,599618652419428176,409.00
2025-06-26 14:26:58.411000,599618652419428176,732.00
2025-06-26 14:26:58.411000,599618652419428176,869.00
2025-06-26 14:26:58.411000,599618652419428176,534.00
2025-06-26 14:26:58.411000,599618652419428176,-75.00
2025-06-26 14:26:58.411000,599618652419428176,-254.00
2025-06-26 14:26:58.411000,599618652419428176,-14.00
2025-06-26 14:26:58.411000,599618652419428176,12.00
2025-06-26 14:26:58.411000,599618652419428176,-107.00
2025-06-26 14:26:58.411000,599618652419428176,-73.00
2025-06-26 14:26:58.411000,599618652419428176,-36.00
2025-06-26 14:26:58.411000,599618652419428176,-68.00
2025-06-26 14:26:58.411000,599618652419428176,-53.00
2025-06-26 14:26:58.411000,599618652419428176,-26.00
2025-06-26 14:26:58.411000,599618652419428176,-31.00
2025-06-26 14:26:58.411000,599618652419428176,-24.00
2025-06-26 14:26:58.411000,599618652419428176,-9.00
2025-06-26 14:26:58.411000,599618652419428176,-4.00
2025-06-26 14:26:58.411000,599618652419428176,2.00
2025-06-26 14:26:58.411000,599618652419428176,9.00
2025-06-26 14:26:58.411000,599618652419428176,17.00
2025-06-26 14:26:58.411000,599618652419428176,29.00
2025-06-26 14:26:58.411000,599618652419428176,36.00
2025-06-26 14:26:58.411000,599618652419428176,44.00
2025-06-26 14:26:58.411000,599618652419428176,61.00
2025-06-26 14:26:58.411000,599618652419428176,73.00
2025-06-26 14:26:58.411000,599618652419428176,80.00
2025-06-26 14:26:58.411000,599618652419428176,88.00
2025-06-26 14:26:58.411000,599618652419428176,97.00
2025-06-26 14:26:58.411000,599618652419428176,105.00
2025-06-26 14:26:58.411000,599618652419428176,102.00
2025-06-26 14:26:58.411000,599618652419428176,97.00
2025-06-26 14:26:58.411000,599618652419428176,80.00
2025-06-26 14:26:58.411000,599618652419428176,48.00
2025-06-26 14:26:58.411000,599618652419428176,4.00
2025-06-26 14:26:58.411000,599618652419428176,-39.00
2025-06-26 14:26:58.411000,599618652419428176,-80.00
2025-06-26 14:26:58.411000,599618652419428176,-110.00
2025-06-26 14:26:58.411000,599618652419428176,-134.00
2025-06-26 14:26:58.411000,599618652419428176,-151.00
2025-06-26 14:26:58.411000,599618652419428176,-159.00
2025-06-26 14:26:58.411000,599618652419428176,-159.00
2025-06-26 14:26:58.411000,599618652419428176,-156.00
2025-06-26 14:26:58.411000,599618652419428176,-151.00
2025-06-26 14:26:58.411000,599618652419428176,-149.00
2025-06-26 14:26:58.411000,599618652419428176,-146.00
2025-06-26 14:26:58.411000,599618652419428176,-139.00
2025-06-26 14:26:58.979947,599618652980125217,-134.00
2025-06-26 14:26:58.979947,599618652980125217,-127.00
2025-06-26 14:26:58.979947,599618652980125217,-122.00
2025-06-26 14:26:58.979947,599618652980125217,-117.00
2025-06-26 14:26:58.979947,599618652980125217,-115.00
2025-06-26 14:26:58.979947,599618652980125217,-112.00
2025-06-26 14:26:58.979947,599618652980125217,-110.00
2025-06-26 14:26:58.979947,599618652980125217,-105.00
2025-06-26 14:26:58.979947,599618652980125217,-102.00
2025-06-26 14:26:58.979947,599618652980125217,-102.00
2025-06-26 14:26:58.979947,599618652980125217,-102.00
2025-06-26 14:26:58.979947,599618652980125217,-100.00
2025-06-26 14:26:58.979947,599618652980125217,-100.00
2025-06-26 14:26:58.979947,599618652980125217,-102.00
2025-06-26 14:26:58.979947,599618652980125217,-105.00
2025-06-26 14:26:58.979947,599618652980125217,-105.00
2025-06-26 14:26:58.979947,599618652980125217,-105.00
2025-06-26 14:26:58.979947,599618652980125217,-102.00
2025-06-26 14:26:58.979947,599618652980125217,-100.00
2025-06-26 14:26:58.979947,599618652980125217,-95.00
2025-06-26 14:26:58.979947,599618652980125217,-95.00
2025-06-26 14:26:58.979947,599618652980125217,-95.00
2025-06-26 14:26:58.979947,599618652980125217,-93.00
2025-06-26 14:26:58.979947,599618652980125217,-93.00
2025-06-26 14:26:58.979947,599618652980125217,-90.00
2025-06-26 14:26:58.979947,599618652980125217,-90.00
2025-06-26 14:26:58.979947,599618652980125217,-90.00
2025-06-26 14:26:58.979947,599618652980125217,-88.00
2025-06-26 14:26:58.979947,599618652980125217,-88.00
2025-06-26 14:26:58.979947,599618652980125217,-93.00
2025-06-26 14:26:58.979947,599618652980125217,-97.00
2025-06-26 14:26:58.979947,599618652980125217,-90.00
2025-06-26 14:26:58.979947,599618652980125217,-73.00
2025-06-26 14:26:58.979947,599618652980125217,-51.00
2025-06-26 14:26:58.979947,599618652980125217,-41.00
2025-06-26 14:26:58.979947,599618652980125217,-51.00
2025-06-26 14:26:58.979947,599618652980125217,-63.00
2025-06-26 14:26:58.979947,599618652980125217,-61.00
2025-06-26 14:26:58.979947,599618652980125217,-61.00
2025-06-26 14:26:58.979947,599618652980125217,-73.00
2025-06-26 14:26:58.979947,599618652980125217,-78.00
2025-06-26 14:26:58.979947,599618652980125217,-80.00
2025-06-26 14:26:58.979947,599618652980125217,-80.00
2025-06-26 14:26:58.979947,599618652980125217,-78.00
2025-06-26 14:26:58.979947,599618652980125217,-78.00
2025-06-26 14:26:58.979947,599618652980125217,-83.00
2025-06-26 14:26:58.979947,599618652980125217,-93.00
2025-06-26 14:26:58.979947,599618652980125217,-46.00
2025-06-26 14:26:58.979947,599618652980125217,142.00
2025-06-26 14:26:58.979947,599618652980125217,462.00
2025-06-26 14:26:58.979947,599618652980125217,747.00
2025-06-26 14:26:58.979947,599618652980125217,720.00
2025-06-26 14:26:58.979947,599618652980125217,213.00
2025-06-26 14:26:58.979947,599618652980125217,-308.00
2025-06-26 14:26:58.979947,599618652980125217,-254.00
2025-06-26 14:26:58.979947,599618652980125217,-26.00
2025-06-26 14:26:58.979947,599618652980125217,-115.00
2025-06-26 14:26:58.979947,599618652980125217,-195.00
2025-06-26 14:26:58.979947,599618652980125217,-117.00
2025-06-26 14:26:58.979947,599618652980125217,-102.00
2025-06-26 14:26:58.979947,599618652980125217,-132.00
2025-06-26 14:26:58.979947,599618652980125217,-107.00
2025-06-26 14:26:58.979947,599618652980125217,-85.00
2025-06-26 14:26:58.979947,599618652980125217,-90.00
2025-06-26 14:26:58.979947,599618652980125217,-78.00
2025-06-26 14:26:58.979947,599618652980125217,-66.00
2025-06-26 14:26:58.979947,599618652980125217,-66.00
2025-06-26 14:26:58.979947,599618652980125217,-56.00
2025-06-26 14:26:58.979947,599618652980125217,-44.00
2025-06-26 14:26:58.979947,599618652980125217,-36.00
2025-06-26 14:26:58.979947,599618652980125217,-26.00
2025-06-26 14:26:58.979947,599618652980125217,-12.00
2025-06-26 14:26:58.979947,599618652980125217,2.00
2025-06-26 14:26:59.522781,599618653540852776,14.00
2025-06-26 14:26:59.522781,599618653540852776,29.00
2025-06-26 14:26:59.522781,599618653540852776,46.00
2025-06-26 14:26:59.522781,599618653540852776,53.00
2025-06-26 14:26:59.522781,599618653540852776,61.00
2025-06-26 14:26:59.522781,599618653540852776,73.00
2025-06-26 14:26:59.522781,599618653540852776,75.00
2025-06-26 14:26:59.522781,599618653540852776,66.00
2025-06-26 14:26:59.522781,599618653540852776,56.00
2025-06-26 14:26:59.522781,599618653540852776,29.00
2025-06-26 14:26:59.522781,599618653540852776,-9.00
2025-06-26 14:26:59.522781,599618653540852776,-51.00
2025-06-26 14:26:59.522781,599618653540852776,-88.00
2025-06-26 14:26:59.522781,599618653540852776,-120.00
2025-06-26 14:26:59.522781,599618653540852776,-144.00
2025-06-26 14:26:59.522781,599618653540852776,-156.00
2025-06-26 14:26:59.522781,599618653540852776,-159.00
2025-06-26 14:26:59.522781,599618653540852776,-161.00
2025-06-26 14:26:59.522781,599618653540852776,-156.00
2025-06-26 14:26:59.522781,599618653540852776,-151.00
2025-06-26 14:26:59.522781,599618653540852776,-146.00
2025-06-26 14:26:59.522781,599618653540852776,-139.00
2025-06-26 14:26:59.522781,599618653540852776,-134.00
2025-06-26 14:26:59.522781,599618653540852776,-129.00
2025-06-26 14:26:59.522781,599618653540852776,-124.00
2025-06-26 14:26:59.522781,599618653540852776,-117.00
2025-06-26 14:26:59.522781,599618653540852776,-115.00
2025-06-26 14:26:59.522781,599618653540852776,-110.00
2025-06-26 14:26:59.522781,599618653540852776,-105.00
2025-06-26 14:26:59.522781,599618653540852776,-97.00
2025-06-26 14:26:59.522781,599618653540852776,-95.00
2025-06-26 14:26:59.522781,599618653540852776,-93.00
2025-06-26 14:26:59.522781,599618653540852776,-93.00
2025-06-26 14:26:59.522781,599618653540852776,-88.00
2025-06-26 14:26:59.522781,599618653540852776,-88.00
2025-06-26 14:26:59.522781,599618653540852776,-88.00
2025-06-26 14:26:59.522781,599618653540852776,-88.00
2025-06-26 14:26:59.522781,599618653540852776,-85.00
2025-06-26 14:26:59.522781,599618653540852776,-85.00
2025-06-26 14:26:59.522781,599618653540852776,-85.00
2025-06-26 14:26:59.522781,599618653540852776,-83.00
2025-06-26 14:26:59.522781,599618653540852776,-83.00
2025-06-26 14:26:59.522781,599618653540852776,-83.00
2025-06-26 14:26:59.522781,599618653540852776,-80.00
2025-06-26 14:26:59.522781,599618653540852776,-78.00
2025-06-26 14:26:59.522781,599618653540852776,-78.00
2025-06-26 14:26:59.522781,599618653540852776,-78.00
2025-06-26 14:26:59.522781,599618653540852776,-75.00
2025-06-26 14:26:59.522781,599618653540852776,-73.00
2025-06-26 14:26:59.522781,599618653540852776,-73.00
2025-06-26 14:26:59.522781,599618653540852776,-71.00
2025-06-26 14:26:59.522781,599618653540852776,-71.00
2025-06-26 14:26:59.522781,599618653540852776,-68.00
2025-06-26 14:26:59.522781,599618653540852776,-71.00
2025-06-26 14:26:59.522781,599618653540852776,-73.00
2025-06-26 14:26:59.522781,599618653540852776,-73.00
2025-06-26 14:26:59.522781,599618653540852776,-66.00
2025-06-26 14:26:59.522781,599618653540852776,-51.00
2025-06-26 14:26:59.522781,599618653540852776,-31.00
2025-06-26 14:26:59.522781,599618653540852776,-22.00
2025-06-26 14:26:59.522781,599618653540852776,-31.00
2025-06-26 14:26:59.522781,599618653540852776,-39.00
2025-06-26 14:26:59.522781,599618653540852776,-39.00
2025-06-26 14:26:59.522781,599618653540852776,-44.00
2025-06-26 14:26:59.522781,599618653540852776,-53.00
2025-06-26 14:26:59.522781,599618653540852776,-58.00
2025-06-26 14:26:59.522781,599618653540852776,-61.00
2025-06-26 14:26:59.522781,599618653540852776,-61.00
2025-06-26 14:26:59.522781,599618653540852776,-58.00
2025-06-26 14:26:59.522781,599618653540852776,-58.00
2025-06-26 14:26:59.522781,599618653540852776,-66.00
2025-06-26 14:26:59.522781,599618653540852776,-71.00
2025-06-26 14:26:59.522781,599618653540852776,-7.00
2025-06-26 14:27:00.149655,599618654101549817,191.00
2025-06-26 14:27:00.149655,599618654101549817,494.00
2025-06-26 14:27:00.149655,599618654101549817,737.00
2025-06-26 14:27:00.149655,599618654101549817,629.00
2025-06-26 14:27:00.149655,599618654101549817,97.00
2025-06-26 14:27:00.149655,599618654101549817,-296.00
2025-06-26 14:27:00.149655,599618654101549817,-159.00
2025-06-26 14:27:00.149655,599618654101549817,-2.00
2025-06-26 14:27:00.149655,599618654101549817,-112.00
2025-06-26 14:27:00.149655,599618654101549817,-146.00
2025-06-26 14:27:00.149655,599618654101549817,-80.00
2025-06-26 14:27:00.149655,599618654101549817,-90.00
2025-06-26 14:27:00.149655,599618654101549817,-105.00
2025-06-26 14:27:00.149655,599618654101549817,-78.00
2025-06-26 14:27:00.149655,599618654101549817,-68.00
2025-06-26 14:27:00.149655,599618654101549817,-71.00
2025-06-26 14:27:00.149655,599618654101549817,-58.00
2025-06-26 14:27:00.149655,599618654101549817,-48.00
2025-06-26 14:27:00.149655,599618654101549817,-44.00
2025-06-26 14:27:00.149655,599618654101549817,-34.00
2025-06-26 14:27:00.149655,599618654101549817,-24.00
2025-06-26 14:27:00.149655,599618654101549817,-14.00
2025-06-26 14:27:00.149655,599618654101549817,-4.00
2025-06-26 14:27:00.149655,599618654101549817,7.00
2025-06-26 14:27:00.149655,599618654101549817,19.00
2025-06-26 14:27:00.149655,599618654101549817,31.00
2025-06-26 14:27:00.149655,599618654101549817,46.00
2025-06-26 14:27:00.149655,599618654101549817,58.00
2025-06-26 14:27:00.149655,599618654101549817,68.00
2025-06-26 14:27:00.149655,599618654101549817,78.00
2025-06-26 14:27:00.149655,599618654101549817,83.00
2025-06-26 14:27:00.149655,599618654101549817,85.00
2025-06-26 14:27:00.149655,599618654101549817,83.00
2025-06-26 14:27:00.149655,599618654101549817,66.00
2025-06-26 14:27:00.149655,599618654101549817,36.00
2025-06-26 14:27:00.149655,599618654101549817,-2.00
2025-06-26 14:27:00.149655,599618654101549817,-51.00
2025-06-26 14:27:00.149655,599618654101549817,-93.00
2025-06-26 14:27:00.149655,599618654101549817,-124.00
2025-06-26 14:27:00.149655,599618654101549817,-146.00
2025-06-26 14:27:00.149655,599618654101549817,-159.00
2025-06-26 14:27:00.149655,599618654101549817,-164.00
2025-06-26 14:27:00.149655,599618654101549817,-164.00
2025-06-26 14:27:00.149655,599618654101549817,-161.00
2025-06-26 14:27:00.149655,599618654101549817,-159.00
2025-06-26 14:27:00.149655,599618654101549817,-154.00
2025-06-26 14:27:00.149655,599618654101549817,-149.00
2025-06-26 14:27:00.149655,599618654101549817,-142.00
2025-06-26 14:27:00.149655,599618654101549817,-137.00
2025-06-26 14:27:00.149655,599618654101549817,-132.00
2025-06-26 14:27:00.149655,599618654101549817,-127.00
2025-06-26 14:27:00.149655,599618654101549817,-122.00
2025-06-26 14:27:00.149655,599618654101549817,-120.00
2025-06-26 14:27:00.149655,599618654101549817,-117.00
2025-06-26 14:27:00.149655,599618654101549817,-115.00
2025-06-26 14:27:00.149655,599618654101549817,-112.00
2025-06-26 14:27:00.149655,599618654101549817,-112.00
2025-06-26 14:27:00.149655,599618654101549817,-110.00
2025-06-26 14:27:00.149655,599618654101549817,-107.00
2025-06-26 14:27:00.149655,599618654101549817,-107.00
2025-06-26 14:27:00.149655,599618654101549817,-107.00
2025-06-26 14:27:00.149655,599618654101549817,-105.00
2025-06-26 14:27:00.149655,599618654101549817,-105.00
2025-06-26 14:27:00.149655,599618654101549817,-102.00
2025-06-26 14:27:00.149655,599618654101549817,-100.00
2025-06-26 14:27:00.149655,599618654101549817,-100.00
2025-06-26 14:27:00.149655,599618654101549817,-100.00
2025-06-26 14:27:00.149655,599618654101549817,-100.00
2025-06-26 14:27:00.149655,599618654101549817,-95.00
2025-06-26 14:27:00.149655,599618654101549817,-93.00
2025-06-26 14:27:00.149655,599618654101549817,-90.00
2025-06-26 14:27:00.149655,599618654101549817,-90.00
2025-06-26 14:27:00.149655,599618654101549817,-88.00
2025-06-26 14:27:00.630481,599618654662246858,-85.00
2025-06-26 14:27:00.630481,599618654662246858,-85.00
2025-06-26 14:27:00.630481,599618654662246858,-85.00
2025-06-26 14:27:00.630481,599618654662246858,-83.00
2025-06-26 14:27:00.630481,599618654662246858,-80.00
2025-06-26 14:27:00.630481,599618654662246858,-78.00
2025-06-26 14:27:00.630481,599618654662246858,-78.00
2025-06-26 14:27:00.630481,599618654662246858,-75.00
2025-06-26 14:27:00.630481,599618654662246858,-68.00
2025-06-26 14:27:00.630481,599618654662246858,-68.00
2025-06-26 14:27:00.630481,599618654662246858,-68.00
2025-06-26 14:27:00.630481,599618654662246858,-66.00
2025-06-26 14:27:00.630481,599618654662246858,-68.00
2025-06-26 14:27:00.630481,599618654662246858,-68.00
2025-06-26 14:27:00.630481,599618654662246858,-68.00
2025-06-26 14:27:00.630481,599618654662246858,-73.00
2025-06-26 14:27:00.630481,599618654662246858,-71.00
2025-06-26 14:27:00.630481,599618654662246858,-58.00
2025-06-26 14:27:00.630481,599618654662246858,-36.00
2025-06-26 14:27:00.630481,599618654662246858,-22.00
2025-06-26 14:27:00.630481,599618654662246858,-31.00
2025-06-26 14:27:00.630481,599618654662246858,-46.00
2025-06-26 14:27:00.630481,599618654662246858,-46.00
2025-06-26 14:27:00.630481,599618654662246858,-48.00
2025-06-26 14:27:00.630481,599618654662246858,-63.00
2025-06-26 14:27:00.630481,599618654662246858,-66.00
2025-06-26 14:27:00.630481,599618654662246858,-68.00
2025-06-26 14:27:00.630481,599618654662246858,-68.00
2025-06-26 14:27:00.630481,599618654662246858,-66.00
2025-06-26 14:27:00.630481,599618654662246858,-63.00
2025-06-26 14:27:00.630481,599618654662246858,-68.00
2025-06-26 14:27:00.630481,599618654662246858,-78.00
2025-06-26 14:27:00.630481,599618654662246858,-46.00
2025-06-26 14:27:00.630481,599618654662246858,105.00
2025-06-26 14:27:00.630481,599618654662246858,379.00
2025-06-26 14:27:00.630481,599618654662246858,649.00
2025-06-26 14:27:00.630481,599618654662246858,656.00
2025-06-26 14:27:00.630481,599618654662246858,227.00
2025-06-26 14:27:00.630481,599618654662246858,-240.00
2025-06-26 14:27:00.630481,599618654662246858,-222.00
2025-06-26 14:27:00.630481,599618654662246858,-26.00
2025-06-26 14:27:00.630481,599618654662246858,-85.00
2025-06-26 14:27:00.630481,599618654662246858,-156.00
2025-06-26 14:27:00.630481,599618654662246858,-102.00
2025-06-26 14:27:00.630481,599618654662246858,-90.00
2025-06-26 14:27:00.630481,599618654662246858,-112.00
2025-06-26 14:27:00.630481,599618654662246858,-93.00
2025-06-26 14:27:00.630481,599618654662246858,-73.00
2025-06-26 14:27:00.630481,599618654662246858,-75.00
2025-06-26 14:27:00.630481,599618654662246858,-68.00
2025-06-26 14:27:00.630481,599618654662246858,-56.00
2025-06-26 14:27:00.630481,599618654662246858,-48.00
2025-06-26 14:27:00.630481,599618654662246858,-41.00
2025-06-26 14:27:00.630481,599618654662246858,-31.00
2025-06-26 14:27:00.630481,599618654662246858,-22.00
2025-06-26 14:27:00.630481,599618654662246858,-12.00
2025-06-26 14:27:00.630481,599618654662246858,-4.00
2025-06-26 14:27:00.630481,599618654662246858,7.00
2025-06-26 14:27:00.630481,599618654662246858,24.00
2025-06-26 14:27:00.630481,599618654662246858,36.00
2025-06-26 14:27:00.630481,599618654662246858,46.00
2025-06-26 14:27:00.630481,599618654662246858,58.00
2025-06-26 14:27:00.630481,599618654662246858,71.00
2025-06-26 14:27:00.630481,599618654662246858,75.00
2025-06-26 14:27:00.630481,599618654662246858,78.00
2025-06-26 14:27:00.630481,599618654662246858,80.00
2025-06-26 14:27:00.630481,599618654662246858,73.00
2025-06-26 14:27:00.630481,599618654662246858,53.00
2025-06-26 14:27:00.630481,599618654662246858,19.00
2025-06-26 14:27:00.630481,599618654662246858,-22.00
2025-06-26 14:27:00.630481,599618654662246858,-61.00
2025-06-26 14:27:00.630481,599618654662246858,-97.00
2025-06-26 14:27:00.630481,599618654662246858,-124.00
2025-06-26 14:27:01.230982,599618655222974419,-144.00
2025-06-26 14:27:01.230982,599618655222974419,-154.00
2025-06-26 14:27:01.230982,599618655222974419,-156.00
2025-06-26 14:27:01.230982,599618655222974419,-156.00
2025-06-26 14:27:01.230982,599618655222974419,-154.00
2025-06-26 14:27:01.230982,599618655222974419,-146.00
2025-06-26 14:27:01.230982,599618655222974419,-142.00
2025-06-26 14:27:01.230982,599618655222974419,-137.00
2025-06-26 14:27:01.230982,599618655222974419,-132.00
2025-06-26 14:27:01.230982,599618655222974419,-127.00
2025-06-26 14:27:01.230982,599618655222974419,-124.00
2025-06-26 14:27:01.230982,599618655222974419,-120.00
2025-06-26 14:27:01.230982,599618655222974419,-117.00
2025-06-26 14:27:01.230982,599618655222974419,-115.00
2025-06-26 14:27:01.230982,599618655222974419,-112.00
2025-06-26 14:27:01.230982,599618655222974419,-112.00
2025-06-26 14:27:01.230982,599618655222974419,-110.00
2025-06-26 14:27:01.230982,599618655222974419,-107.00
2025-06-26 14:27:01.230982,599618655222974419,-107.00
2025-06-26 14:27:01.230982,599618655222974419,-107.00
2025-06-26 14:27:01.230982,599618655222974419,-105.00
2025-06-26 14:27:01.230982,599618655222974419,-105.00
2025-06-26 14:27:01.230982,599618655222974419,-102.00
2025-06-26 14:27:01.230982,599618655222974419,-102.00
2025-06-26 14:27:01.230982,599618655222974419,-102.00
2025-06-26 14:27:01.230982,599618655222974419,-102.00
2025-06-26 14:27:01.230982,599618655222974419,-100.00
2025-06-26 14:27:01.230982,599618655222974419,-102.00
2025-06-26 14:27:01.230982,599618655222974419,-100.00
2025-06-26 14:27:01.230982,599618655222974419,-100.00
2025-06-26 14:27:01.230982,599618655222974419,-100.00
2025-06-26 14:27:01.230982,599618655222974419,-97.00
2025-06-26 14:27:01.230982,599618655222974419,-97.00
2025-06-26 14:27:01.230982,599618655222974419,-95.00
2025-06-26 14:27:01.230982,599618655222974419,-93.00
2025-06-26 14:27:01.230982,599618655222974419,-93.00
2025-06-26 14:27:01.230982,599618655222974419,-93.00
2025-06-26 14:27:01.230982,599618655222974419,-90.00
2025-06-26 14:27:01.230982,599618655222974419,-85.00
2025-06-26 14:27:01.230982,599618655222974419,-85.00
2025-06-26 14:27:01.230982,599618655222974419,-83.00
2025-06-26 14:27:01.230982,599618655222974419,-83.00
2025-06-26 14:27:01.230982,599618655222974419,-83.00
2025-06-26 14:27:01.230982,599618655222974419,-83.00
2025-06-26 14:27:01.230982,599618655222974419,-83.00
2025-06-26 14:27:01.230982,599618655222974419,-83.00
2025-06-26 14:27:01.230982,599618655222974419,-85.00
2025-06-26 14:27:01.230982,599618655222974419,-85.00
2025-06-26 14:27:01.230982,599618655222974419,-73.00
2025-06-26 14:27:01.230982,599618655222974419,-51.00
2025-06-26 14:27:01.230982,599618655222974419,-31.00
2025-06-26 14:27:01.230982,599618655222974419,-36.00
2025-06-26 14:27:01.230982,599618655222974419,-53.00
2025-06-26 14:27:01.230982,599618655222974419,-56.00
2025-06-26 14:27:01.230982,599618655222974419,-56.00
2025-06-26 14:27:01.230982,599618655222974419,-66.00
2025-06-26 14:27:01.230982,599618655222974419,-73.00
2025-06-26 14:27:01.230982,599618655222974419,-73.00
2025-06-26 14:27:01.230982,599618655222974419,-75.00
2025-06-26 14:27:01.230982,599618655222974419,-75.00
2025-06-26 14:27:01.230982,599618655222974419,-71.00
2025-06-26 14:27:01.230982,599618655222974419,-73.00
2025-06-26 14:27:01.230982,599618655222974419,-85.00
2025-06-26 14:27:01.230982,599618655222974419,-63.00
2025-06-26 14:27:01.230982,599618655222974419,66.00
2025-06-26 14:27:01.230982,599618655222974419,320.00
2025-06-26 14:27:01.230982,599618655222974419,595.00
2025-06-26 14:27:01.230982,599618655222974419,646.00
2025-06-26 14:27:01.230982,599618655222974419,279.00
2025-06-26 14:27:01.230982,599618655222974419,-198.00
2025-06-26 14:27:01.230982,599618655222974419,-252.00
2025-06-26 14:27:01.230982,599618655222974419,-51.00
2025-06-26 14:27:01.230982,599618655222974419,-63.00
2025-06-26 14:27:01.770454,599618655783671460,-149.00
2025-06-26 14:27:01.770454,599618655783671460,-110.00
2025-06-26 14:27:01.770454,599618655783671460,-83.00
2025-06-26 14:27:01.770454,599618655783671460,-105.00
2025-06-26 14:27:01.770454,599618655783671460,-93.00
2025-06-26 14:27:01.770454,599618655783671460,-71.00
2025-06-26 14:27:01.770454,599618655783671460,-68.00
2025-06-26 14:27:01.770454,599618655783671460,-61.00
2025-06-26 14:27:01.770454,599618655783671460,-46.00
2025-06-26 14:27:01.770454,599618655783671460,-39.00
2025-06-26 14:27:01.770454,599618655783671460,-29.00
2025-06-26 14:27:01.770454,599618655783671460,-19.00
2025-06-26 14:27:01.770454,599618655783671460,-12.00
2025-06-26 14:27:01.770454,599618655783671460,-2.00
2025-06-26 14:27:01.770454,599618655783671460,9.00
2025-06-26 14:27:01.770454,599618655783671460,19.00
2025-06-26 14:27:01.770454,599618655783671460,29.00
2025-06-26 14:27:01.770454,599618655783671460,41.00
2025-06-26 14:27:01.770454,599618655783671460,51.00
2025-06-26 14:27:01.770454,599618655783671460,63.00
2025-06-26 14:27:01.770454,599618655783671460,71.00
2025-06-26 14:27:01.770454,599618655783671460,75.00
2025-06-26 14:27:01.770454,599618655783671460,80.00
2025-06-26 14:27:01.770454,599618655783671460,80.00
2025-06-26 14:27:01.770454,599618655783671460,71.00
2025-06-26 14:27:01.770454,599618655783671460,53.00
2025-06-26 14:27:01.770454,599618655783671460,24.00
2025-06-26 14:27:01.770454,599618655783671460,-17.00
2025-06-26 14:27:01.770454,599618655783671460,-61.00
2025-06-26 14:27:01.770454,599618655783671460,-95.00
2025-06-26 14:27:01.770454,599618655783671460,-122.00
2025-06-26 14:27:01.770454,599618655783671460,-139.00
2025-06-26 14:27:01.770454,599618655783671460,-149.00
2025-06-26 14:27:01.770454,599618655783671460,-151.00
2025-06-26 14:27:01.770454,599618655783671460,-151.00
2025-06-26 14:27:01.770454,599618655783671460,-149.00
2025-06-26 14:27:01.770454,599618655783671460,-146.00
2025-06-26 14:27:01.770454,599618655783671460,-142.00
2025-06-26 14:27:01.770454,599618655783671460,-134.00
2025-06-26 14:27:01.770454,599618655783671460,-129.00
2025-06-26 14:27:01.770454,599618655783671460,-124.00
2025-06-26 14:27:01.770454,599618655783671460,-120.00
2025-06-26 14:27:01.770454,599618655783671460,-115.00
2025-06-26 14:27:01.770454,599618655783671460,-112.00
2025-06-26 14:27:01.770454,599618655783671460,-110.00
2025-06-26 14:27:01.770454,599618655783671460,-107.00
2025-06-26 14:27:01.770454,599618655783671460,-107.00
2025-06-26 14:27:01.770454,599618655783671460,-105.00
2025-06-26 14:27:01.770454,599618655783671460,-100.00
2025-06-26 14:27:01.770454,599618655783671460,-100.00
2025-06-26 14:27:01.770454,599618655783671460,-100.00
2025-06-26 14:27:01.770454,599618655783671460,-97.00
2025-06-26 14:27:01.770454,599618655783671460,-97.00
2025-06-26 14:27:01.770454,599618655783671460,-95.00
2025-06-26 14:27:01.770454,599618655783671460,-95.00
2025-06-26 14:27:01.770454,599618655783671460,-97.00
2025-06-26 14:27:01.770454,599618655783671460,-95.00
2025-06-26 14:27:01.770454,599618655783671460,-95.00
2025-06-26 14:27:01.770454,599618655783671460,-93.00
2025-06-26 14:27:01.770454,599618655783671460,-90.00
2025-06-26 14:27:01.770454,599618655783671460,-93.00
2025-06-26 14:27:01.770454,599618655783671460,-93.00
2025-06-26 14:27:01.770454,599618655783671460,-90.00
2025-06-26 14:27:01.770454,599618655783671460,-90.00
2025-06-26 14:27:01.770454,599618655783671460,-90.00
2025-06-26 14:27:01.770454,599618655783671460,-90.00
2025-06-26 14:27:01.770454,599618655783671460,-88.00
2025-06-26 14:27:01.770454,599618655783671460,-88.00
2025-06-26 14:27:01.770454,599618655783671460,-80.00
2025-06-26 14:27:01.770454,599618655783671460,-80.00
2025-06-26 14:27:01.770454,599618655783671460,-85.00
2025-06-26 14:27:01.770454,599618655783671460,-88.00
2025-06-26 14:27:01.770454,599618655783671460,-85.00
2025-06-26 14:27:02.340211,599618656344368501,-88.00
2025-06-26 14:27:02.340211,599618656344368501,-90.00
2025-06-26 14:27:02.340211,599618656344368501,-93.00
2025-06-26 14:27:02.340211,599618656344368501,-90.00
2025-06-26 14:27:02.340211,599618656344368501,-83.00
2025-06-26 14:27:02.340211,599618656344368501,-66.00
2025-06-26 14:27:02.340211,599618656344368501,-46.00
2025-06-26 14:27:02.340211,599618656344368501,-48.00
2025-06-26 14:27:02.340211,599618656344368501,-66.00
2025-06-26 14:27:02.340211,599618656344368501,-75.00
2025-06-26 14:27:02.340211,599618656344368501,-80.00
2025-06-26 14:27:02.340211,599618656344368501,-88.00
2025-06-26 14:27:02.340211,599618656344368501,-95.00
2025-06-26 14:27:02.340211,599618656344368501,-93.00
2025-06-26 14:27:02.340211,599618656344368501,-90.00
2025-06-26 14:27:02.340211,599618656344368501,-97.00
2025-06-26 14:27:02.340211,599618656344368501,-97.00
2025-06-26 14:27:02.340211,599618656344368501,-93.00
2025-06-26 14:27:02.340211,599618656344368501,-102.00
2025-06-26 14:27:02.340211,599618656344368501,-83.00
2025-06-26 14:27:02.340211,599618656344368501,46.00
2025-06-26 14:27:02.340211,599618656344368501,291.00
2025-06-26 14:27:02.340211,599618656344368501,556.00
2025-06-26 14:27:02.340211,599618656344368501,617.00
2025-06-26 14:27:02.340211,599618656344368501,291.00
2025-06-26 14:27:02.340211,599618656344368501,-191.00
2025-06-26 14:27:02.340211,599618656344368501,-311.00
2025-06-26 14:27:02.340211,599618656344368501,-112.00
2025-06-26 14:27:02.340211,599618656344368501,-75.00
2025-06-26 14:27:02.340211,599618656344368501,-166.00
2025-06-26 14:27:02.340211,599618656344368501,-144.00
2025-06-26 14:27:02.340211,599618656344368501,-105.00
2025-06-26 14:27:02.340211,599618656344368501,-122.00
2025-06-26 14:27:02.340211,599618656344368501,-122.00
2025-06-26 14:27:02.340211,599618656344368501,-100.00
2025-06-26 14:27:02.340211,599618656344368501,-85.00
2025-06-26 14:27:02.340211,599618656344368501,-78.00
2025-06-26 14:27:02.340211,599618656344368501,-68.00
2025-06-26 14:27:02.340211,599618656344368501,-61.00
2025-06-26 14:27:02.340211,599618656344368501,-53.00
2025-06-26 14:27:02.340211,599618656344368501,-44.00
2025-06-26 14:27:02.340211,599618656344368501,-31.00
2025-06-26 14:27:02.340211,599618656344368501,-19.00
2025-06-26 14:27:02.340211,599618656344368501,-9.00
2025-06-26 14:27:02.340211,599618656344368501,2.00
2025-06-26 14:27:02.340211,599618656344368501,14.00
2025-06-26 14:27:02.340211,599618656344368501,24.00
2025-06-26 14:27:02.340211,599618656344368501,36.00
2025-06-26 14:27:02.340211,599618656344368501,46.00
2025-06-26 14:27:02.340211,599618656344368501,53.00
2025-06-26 14:27:02.340211,599618656344368501,58.00
2025-06-26 14:27:02.340211,599618656344368501,61.00
2025-06-26 14:27:02.340211,599618656344368501,61.00
2025-06-26 14:27:02.340211,599618656344368501,53.00
2025-06-26 14:27:02.340211,599618656344368501,34.00
2025-06-26 14:27:02.340211,599618656344368501,0.00
2025-06-26 14:27:02.340211,599618656344368501,-39.00
2025-06-26 14:27:02.340211,599618656344368501,-78.00
2025-06-26 14:27:02.340211,599618656344368501,-110.00
2025-06-26 14:27:02.340211,599618656344368501,-129.00
2025-06-26 14:27:02.340211,599618656344368501,-144.00
2025-06-26 14:27:02.340211,599618656344368501,-146.00
2025-06-26 14:27:02.340211,599618656344368501,-146.00
2025-06-26 14:27:02.340211,599618656344368501,-144.00
2025-06-26 14:27:02.340211,599618656344368501,-139.00
2025-06-26 14:27:02.340211,599618656344368501,-132.00
2025-06-26 14:27:02.340211,599618656344368501,-124.00
2025-06-26 14:27:02.340211,599618656344368501,-115.00
2025-06-26 14:27:02.340211,599618656344368501,-107.00
2025-06-26 14:27:02.340211,599618656344368501,-100.00
2025-06-26 14:27:02.340211,599618656344368501,-95.00
2025-06-26 14:27:02.340211,599618656344368501,-88.00
2025-06-26 14:27:02.340211,599618656344368501,-83.00
2025-06-26 14:27:02.881110,599618656905065542,-80.00
2025-06-26 14:27:02.881110,599618656905065542,-78.00
2025-06-26 14:27:02.881110,599618656905065542,-75.00
2025-06-26 14:27:02.881110,599618656905065542,-71.00
2025-06-26 14:27:02.881110,599618656905065542,-68.00
2025-06-26 14:27:02.881110,599618656905065542,-71.00
2025-06-26 14:27:02.881110,599618656905065542,-71.00
2025-06-26 14:27:02.881110,599618656905065542,-68.00
2025-06-26 14:27:02.881110,599618656905065542,-68.00
2025-06-26 14:27:02.881110,599618656905065542,-68.00
2025-06-26 14:27:02.881110,599618656905065542,-71.00
2025-06-26 14:27:02.881110,599618656905065542,-71.00
2025-06-26 14:27:02.881110,599618656905065542,-71.00
2025-06-26 14:27:02.881110,599618656905065542,-71.00
2025-06-26 14:27:02.881110,599618656905065542,-71.00
2025-06-26 14:27:02.881110,599618656905065542,-73.00
2025-06-26 14:27:02.881110,599618656905065542,-71.00
2025-06-26 14:27:02.881110,599618656905065542,-71.00
2025-06-26 14:27:02.881110,599618656905065542,-73.00
2025-06-26 14:27:02.881110,599618656905065542,-71.00
2025-06-26 14:27:02.881110,599618656905065542,-71.00
2025-06-26 14:27:02.881110,599618656905065542,-71.00
2025-06-26 14:27:02.881110,599618656905065542,-73.00
2025-06-26 14:27:02.881110,599618656905065542,-78.00
2025-06-26 14:27:02.881110,599618656905065542,-78.00
2025-06-26 14:27:02.881110,599618656905065542,-66.00
2025-06-26 14:27:02.881110,599618656905065542,-41.00
2025-06-26 14:27:02.881110,599618656905065542,-24.00
2025-06-26 14:27:02.881110,599618656905065542,-31.00
2025-06-26 14:27:02.881110,599618656905065542,-44.00
2025-06-26 14:27:02.881110,599618656905065542,-46.00
2025-06-26 14:27:02.881110,599618656905065542,-48.00
2025-06-26 14:27:02.881110,599618656905065542,-56.00
2025-06-26 14:27:02.881110,599618656905065542,-61.00
2025-06-26 14:27:02.881110,599618656905065542,-63.00
2025-06-26 14:27:02.881110,599618656905065542,-66.00
2025-06-26 14:27:02.881110,599618656905065542,-61.00
2025-06-26 14:27:02.881110,599618656905065542,-56.00
2025-06-26 14:27:02.881110,599618656905065542,-61.00
2025-06-26 14:27:02.881110,599618656905065542,-75.00
2025-06-26 14:27:02.881110,599618656905065542,-48.00
2025-06-26 14:27:02.881110,599618656905065542,105.00
2025-06-26 14:27:02.881110,599618656905065542,396.00
2025-06-26 14:27:02.881110,599618656905065542,698.00
2025-06-26 14:27:02.881110,599618656905065542,739.00
2025-06-26 14:27:02.881110,599618656905065542,303.00
2025-06-26 14:27:02.881110,599618656905065542,-240.00
2025-06-26 14:27:02.881110,599618656905065542,-264.00
2025-06-26 14:27:02.881110,599618656905065542,-24.00
2025-06-26 14:27:02.881110,599618656905065542,-53.00
2025-06-26 14:27:02.881110,599618656905065542,-144.00
2025-06-26 14:27:02.881110,599618656905065542,-90.00
2025-06-26 14:27:02.881110,599618656905065542,-66.00
2025-06-26 14:27:02.881110,599618656905065542,-93.00
2025-06-26 14:27:02.881110,599618656905065542,-75.00
2025-06-26 14:27:02.881110,599618656905065542,-51.00
2025-06-26 14:27:02.881110,599618656905065542,-48.00
2025-06-26 14:27:02.881110,599618656905065542,-41.00
2025-06-26 14:27:02.881110,599618656905065542,-26.00
2025-06-26 14:27:02.881110,599618656905065542,-19.00
2025-06-26 14:27:02.881110,599618656905065542,-12.00
2025-06-26 14:27:02.881110,599618656905065542,0.00
2025-06-26 14:27:02.881110,599618656905065542,9.00
2025-06-26 14:27:02.881110,599618656905065542,17.00
2025-06-26 14:27:02.881110,599618656905065542,29.00
2025-06-26 14:27:02.881110,599618656905065542,46.00
2025-06-26 14:27:02.881110,599618656905065542,58.00
2025-06-26 14:27:02.881110,599618656905065542,68.00
2025-06-26 14:27:02.881110,599618656905065542,80.00
2025-06-26 14:27:02.881110,599618656905065542,90.00
2025-06-26 14:27:02.881110,599618656905065542,97.00
2025-06-26 14:27:02.881110,599618656905065542,102.00
2025-06-26 14:27:02.881110,599618656905065542,102.00
2025-06-26 14:27:03.481543,599618657465793101,97.00
2025-06-26 14:27:03.481543,599618657465793101,83.00
2025-06-26 14:27:03.481543,599618657465793101,53.00
2025-06-26 14:27:03.481543,599618657465793101,12.00
2025-06-26 14:27:03.481543,599618657465793101,-34.00
2025-06-26 14:27:03.481543,599618657465793101,-73.00
2025-06-26 14:27:03.481543,599618657465793101,-105.00
2025-06-26 14:27:03.481543,599618657465793101,-129.00
2025-06-26 14:27:03.481543,599618657465793101,-144.00
2025-06-26 14:27:03.481543,599618657465793101,-151.00
2025-06-26 14:27:03.481543,599618657465793101,-151.00
2025-06-26 14:27:03.481543,599618657465793101,-151.00
2025-06-26 14:27:03.481543,599618657465793101,-146.00
2025-06-26 14:27:03.481543,599618657465793101,-142.00
2025-06-26 14:27:03.481543,599618657465793101,-137.00
2025-06-26 14:27:03.481543,599618657465793101,-129.00
2025-06-26 14:27:03.481543,599618657465793101,-122.00
2025-06-26 14:27:03.481543,599618657465793101,-117.00
2025-06-26 14:27:03.481543,599618657465793101,-110.00
2025-06-26 14:27:03.481543,599618657465793101,-105.00
2025-06-26 14:27:03.481543,599618657465793101,-100.00
2025-06-26 14:27:03.481543,599618657465793101,-95.00
2025-06-26 14:27:03.481543,599618657465793101,-93.00
2025-06-26 14:27:03.481543,599618657465793101,-93.00
2025-06-26 14:27:03.481543,599618657465793101,-90.00
2025-06-26 14:27:03.481543,599618657465793101,-85.00
2025-06-26 14:27:03.481543,599618657465793101,-80.00
2025-06-26 14:27:03.481543,599618657465793101,-80.00
2025-06-26 14:27:03.481543,599618657465793101,-83.00
2025-06-26 14:27:03.481543,599618657465793101,-80.00
2025-06-26 14:27:03.481543,599618657465793101,-78.00
2025-06-26 14:27:03.481543,599618657465793101,-80.00
2025-06-26 14:27:03.481543,599618657465793101,-78.00
2025-06-26 14:27:03.481543,599618657465793101,-78.00
2025-06-26 14:27:03.481543,599618657465793101,-78.00
2025-06-26 14:27:03.481543,599618657465793101,-78.00
2025-06-26 14:27:03.481543,599618657465793101,-78.00
2025-06-26 14:27:03.481543,599618657465793101,-75.00
2025-06-26 14:27:03.481543,599618657465793101,-75.00
2025-06-26 14:27:03.481543,599618657465793101,-78.00
2025-06-26 14:27:03.481543,599618657465793101,-83.00
2025-06-26 14:27:03.481543,599618657465793101,-85.00
2025-06-26 14:27:03.481543,599618657465793101,-78.00
2025-06-26 14:27:03.481543,599618657465793101,-61.00
2025-06-26 14:27:03.481543,599618657465793101,-36.00
2025-06-26 14:27:03.481543,599618657465793101,-29.00
2025-06-26 14:27:03.481543,599618657465793101,-46.00
2025-06-26 14:27:03.481543,599618657465793101,-48.00
2025-06-26 14:27:03.481543,599618657465793101,-46.00
2025-06-26 14:27:03.481543,599618657465793101,-58.00
2025-06-26 14:27:03.481543,599618657465793101,-66.00
2025-06-26 14:27:03.481543,599618657465793101,-66.00
2025-06-26 14:27:03.481543,599618657465793101,-66.00
2025-06-26 14:27:03.481543,599618657465793101,-63.00
2025-06-26 14:27:03.481543,599618657465793101,-58.00
2025-06-26 14:27:03.481543,599618657465793101,-61.00
2025-06-26 14:27:03.481543,599618657465793101,-73.00
2025-06-26 14:27:03.481543,599618657465793101,-51.00
2025-06-26 14:27:03.481543,599618657465793101,97.00
2025-06-26 14:27:03.481543,599618657465793101,387.00
2025-06-26 14:27:03.481543,599618657465793101,688.00
2025-06-26 14:27:03.481543,599618657465793101,722.00
2025-06-26 14:27:03.481543,599618657465793101,284.00
2025-06-26 14:27:03.481543,599618657465793101,-244.00
2025-06-26 14:27:03.481543,599618657465793101,-262.00
2025-06-26 14:27:03.481543,599618657465793101,-26.00
2025-06-26 14:27:03.481543,599618657465793101,-56.00
2025-06-26 14:27:03.481543,599618657465793101,-146.00
2025-06-26 14:27:03.481543,599618657465793101,-93.00
2025-06-26 14:27:03.481543,599618657465793101,-68.00
2025-06-26 14:27:03.481543,599618657465793101,-95.00
2025-06-26 14:27:03.481543,599618657465793101,-78.00
2025-06-26 14:27:03.481543,599618657465793101,-53.00
2025-06-26 14:27:03.991296,599618658026490142,-51.00
2025-06-26 14:27:03.991296,599618658026490142,-41.00
2025-06-26 14:27:03.991296,599618658026490142,-26.00
2025-06-26 14:27:03.991296,599618658026490142,-17.00
2025-06-26 14:27:03.991296,599618658026490142,-7.00
2025-06-26 14:27:03.991296,599618658026490142,2.00
2025-06-26 14:27:03.991296,599618658026490142,12.00
2025-06-26 14:27:03.991296,599618658026490142,24.00
2025-06-26 14:27:03.991296,599618658026490142,36.00
2025-06-26 14:27:03.991296,599618658026490142,46.00
2025-06-26 14:27:03.991296,599618658026490142,61.00
2025-06-26 14:27:03.991296,599618658026490142,75.00
2025-06-26 14:27:03.991296,599618658026490142,85.00
2025-06-26 14:27:03.991296,599618658026490142,95.00
2025-06-26 14:27:03.991296,599618658026490142,102.00
2025-06-26 14:27:03.991296,599618658026490142,107.00
2025-06-26 14:27:03.991296,599618658026490142,110.00
2025-06-26 14:27:03.991296,599618658026490142,105.00
2025-06-26 14:27:03.991296,599618658026490142,93.00
2025-06-26 14:27:03.991296,599618658026490142,63.00
2025-06-26 14:27:03.991296,599618658026490142,19.00
2025-06-26 14:27:03.991296,599618658026490142,-29.00
2025-06-26 14:27:03.991296,599618658026490142,-73.00
2025-06-26 14:27:03.991296,599618658026490142,-107.00
2025-06-26 14:27:03.991296,599618658026490142,-132.00
2025-06-26 14:27:03.991296,599618658026490142,-144.00
2025-06-26 14:27:03.991296,599618658026490142,-149.00
2025-06-26 14:27:03.991296,599618658026490142,-149.00
2025-06-26 14:27:03.991296,599618658026490142,-149.00
2025-06-26 14:27:03.991296,599618658026490142,-146.00
2025-06-26 14:27:03.991296,599618658026490142,-142.00
2025-06-26 14:27:03.991296,599618658026490142,-134.00
2025-06-26 14:27:03.991296,599618658026490142,-127.00
2025-06-26 14:27:03.991296,599618658026490142,-122.00
2025-06-26 14:27:03.991296,599618658026490142,-117.00
2025-06-26 14:27:03.991296,599618658026490142,-110.00
2025-06-26 14:27:03.991296,599618658026490142,-107.00
2025-06-26 14:27:03.991296,599618658026490142,-105.00
2025-06-26 14:27:03.991296,599618658026490142,-100.00
2025-06-26 14:27:03.991296,599618658026490142,-97.00
2025-06-26 14:27:03.991296,599618658026490142,-95.00
2025-06-26 14:27:03.991296,599618658026490142,-95.00
2025-06-26 14:27:03.991296,599618658026490142,-93.00
2025-06-26 14:27:03.991296,599618658026490142,-93.00
2025-06-26 14:27:03.991296,599618658026490142,-93.00
2025-06-26 14:27:03.991296,599618658026490142,-93.00
2025-06-26 14:27:03.991296,599618658026490142,-90.00
2025-06-26 14:27:03.991296,599618658026490142,-90.00
2025-06-26 14:27:03.991296,599618658026490142,-90.00
2025-06-26 14:27:03.991296,599618658026490142,-88.00
2025-06-26 14:27:03.991296,599618658026490142,-88.00
2025-06-26 14:27:03.991296,599618658026490142,-88.00
2025-06-26 14:27:03.991296,599618658026490142,-88.00
2025-06-26 14:27:03.991296,599618658026490142,-85.00
2025-06-26 14:27:03.991296,599618658026490142,-83.00
2025-06-26 14:27:03.991296,599618658026490142,-80.00
2025-06-26 14:27:03.991296,599618658026490142,-80.00
2025-06-26 14:27:03.991296,599618658026490142,-85.00
2025-06-26 14:27:03.991296,599618658026490142,-90.00
2025-06-26 14:27:03.991296,599618658026490142,-93.00
2025-06-26 14:27:03.991296,599618658026490142,-83.00
2025-06-26 14:27:03.991296,599618658026490142,-58.00
2025-06-26 14:27:03.991296,599618658026490142,-39.00
2025-06-26 14:27:03.991296,599618658026490142,-41.00
2025-06-26 14:27:03.991296,599618658026490142,-51.00
2025-06-26 14:27:03.991296,599618658026490142,-48.00
2025-06-26 14:27:03.991296,599618658026490142,-53.00
2025-06-26 14:27:03.991296,599618658026490142,-63.00
2025-06-26 14:27:03.991296,599618658026490142,-66.00
2025-06-26 14:27:03.991296,599618658026490142,-66.00
2025-06-26 14:27:03.991296,599618658026490142,-63.00
2025-06-26 14:27:03.991296,599618658026490142,-61.00
2025-06-26 14:27:03.991296,599618658026490142,-58.00
2025-06-26 14:27:04.592645,599618658587192271,-68.00
2025-06-26 14:27:04.592645,599618658587192271,-63.00
2025-06-26 14:27:04.592645,599618658587192271,41.00
2025-06-26 14:27:04.592645,599618658587192271,298.00
2025-06-26 14:27:04.592645,599618658587192271,622.00
2025-06-26 14:27:04.592645,599618658587192271,754.00
2025-06-26 14:27:04.592645,599618658587192271,423.00
2025-06-26 14:27:04.592645,599618658587192271,-146.00
2025-06-26 14:27:04.592645,599618658587192271,-313.00
2025-06-26 14:27:04.592645,599618658587192271,-73.00
2025-06-26 14:27:04.592645,599618658587192271,-22.00
2025-06-26 14:27:04.592645,599618658587192271,-134.00
2025-06-26 14:27:04.592645,599618658587192271,-110.00
2025-06-26 14:27:04.592645,599618658587192271,-63.00
2025-06-26 14:27:04.592645,599618658587192271,-88.00
2025-06-26 14:27:04.592645,599618658587192271,-83.00
2025-06-26 14:27:04.592645,599618658587192271,-58.00
2025-06-26 14:27:04.592645,599618658587192271,-56.00
2025-06-26 14:27:04.592645,599618658587192271,-51.00
2025-06-26 14:27:04.592645,599618658587192271,-36.00
2025-06-26 14:27:04.592645,599618658587192271,-26.00
2025-06-26 14:27:04.592645,599618658587192271,-22.00
2025-06-26 14:27:04.592645,599618658587192271,-9.00
2025-06-26 14:27:04.592645,599618658587192271,0.00
2025-06-26 14:27:04.592645,599618658587192271,7.00
2025-06-26 14:27:04.592645,599618658587192271,17.00
2025-06-26 14:27:04.592645,599618658587192271,29.00
2025-06-26 14:27:04.592645,599618658587192271,41.00
2025-06-26 14:27:04.592645,599618658587192271,53.00
2025-06-26 14:27:04.592645,599618658587192271,66.00
2025-06-26 14:27:04.592645,599618658587192271,75.00
2025-06-26 14:27:04.592645,599618658587192271,83.00
2025-06-26 14:27:04.592645,599618658587192271,88.00
2025-06-26 14:27:04.592645,599618658587192271,90.00
2025-06-26 14:27:04.592645,599618658587192271,90.00
2025-06-26 14:27:04.592645,599618658587192271,80.00
2025-06-26 14:27:04.592645,599618658587192271,58.00
2025-06-26 14:27:04.592645,599618658587192271,19.00
2025-06-26 14:27:04.592645,599618658587192271,-24.00
2025-06-26 14:27:04.592645,599618658587192271,-68.00
2025-06-26 14:27:04.592645,599618658587192271,-107.00
2025-06-26 14:27:04.592645,599618658587192271,-137.00
2025-06-26 14:27:04.592645,599618658587192271,-151.00
2025-06-26 14:27:04.592645,599618658587192271,-156.00
2025-06-26 14:27:04.592645,599618658587192271,-159.00
2025-06-26 14:27:04.592645,599618658587192271,-156.00
2025-06-26 14:27:04.592645,599618658587192271,-151.00
2025-06-26 14:27:04.592645,599618658587192271,-146.00
2025-06-26 14:27:04.592645,599618658587192271,-139.00
2025-06-26 14:27:04.592645,599618658587192271,-132.00
2025-06-26 14:27:04.592645,599618658587192271,-124.00
2025-06-26 14:27:04.592645,599618658587192271,-120.00
2025-06-26 14:27:04.592645,599618658587192271,-112.00
2025-06-26 14:27:04.592645,599618658587192271,-110.00
2025-06-26 14:27:04.592645,599618658587192271,-110.00
2025-06-26 14:27:04.592645,599618658587192271,-105.00
2025-06-26 14:27:04.592645,599618658587192271,-102.00
2025-06-26 14:27:04.592645,599618658587192271,-100.00
2025-06-26 14:27:04.592645,599618658587192271,-100.00
2025-06-26 14:27:04.592645,599618658587192271,-97.00
2025-06-26 14:27:04.592645,599618658587192271,-95.00
2025-06-26 14:27:04.592645,599618658587192271,-95.00
2025-06-26 14:27:04.592645,599618658587192271,-95.00
2025-06-26 14:27:04.592645,599618658587192271,-93.00
2025-06-26 14:27:04.592645,599618658587192271,-93.00
2025-06-26 14:27:04.592645,599618658587192271,-90.00
2025-06-26 14:27:04.592645,599618658587192271,-90.00
2025-06-26 14:27:04.592645,599618658587192271,-90.00
2025-06-26 14:27:04.592645,599618658587192271,-88.00
2025-06-26 14:27:04.592645,599618658587192271,-88.00
2025-06-26 14:27:04.592645,599618658587192271,-85.00
2025-06-26 14:27:04.592645,599618658587192271,-85.00
2025-06-26 14:27:04.592645,599618658587192271,-83.00
2025-06-26 14:27:05.221428,599618659147914744,-83.00
2025-06-26 14:27:05.221428,599618659147914744,-80.00
2025-06-26 14:27:05.221428,599618659147914744,-80.00
2025-06-26 14:27:05.221428,599618659147914744,-78.00
2025-06-26 14:27:05.221428,599618659147914744,-75.00
2025-06-26 14:27:05.221428,599618659147914744,-83.00
2025-06-26 14:27:05.221428,599618659147914744,-88.00
2025-06-26 14:27:05.221428,599618659147914744,-85.00
2025-06-26 14:27:05.221428,599618659147914744,-68.00
2025-06-26 14:27:05.221428,599618659147914744,-41.00
2025-06-26 14:27:05.221428,599618659147914744,-31.00
2025-06-26 14:27:05.221428,599618659147914744,-44.00
2025-06-26 14:27:05.221428,599618659147914744,-48.00
2025-06-26 14:27:05.221428,599618659147914744,-46.00
2025-06-26 14:27:05.221428,599618659147914744,-58.00
2025-06-26 14:27:05.221428,599618659147914744,-68.00
2025-06-26 14:27:05.221428,599618659147914744,-68.00
2025-06-26 14:27:05.221428,599618659147914744,-66.00
2025-06-26 14:27:05.221428,599618659147914744,-66.00
2025-06-26 14:27:05.221428,599618659147914744,-63.00
2025-06-26 14:27:05.221428,599618659147914744,-66.00
2025-06-26 14:27:05.221428,599618659147914744,-71.00
2025-06-26 14:27:05.221428,599618659147914744,-12.00
2025-06-26 14:27:05.221428,599618659147914744,188.00
2025-06-26 14:27:05.221428,599618659147914744,499.00
2025-06-26 14:27:05.221428,599618659147914744,732.00
2025-06-26 14:27:05.221428,599618659147914744,582.00
2025-06-26 14:27:05.221428,599618659147914744,34.00
2025-06-26 14:27:05.221428,599618659147914744,-330.00
2025-06-26 14:27:05.221428,599618659147914744,-166.00
2025-06-26 14:27:05.221428,599618659147914744,-7.00
2025-06-26 14:27:05.221428,599618659147914744,-112.00
2025-06-26 14:27:05.221428,599618659147914744,-139.00
2025-06-26 14:27:05.221428,599618659147914744,-75.00
2025-06-26 14:27:05.221428,599618659147914744,-88.00
2025-06-26 14:27:05.221428,599618659147914744,-100.00
2025-06-26 14:27:05.221428,599618659147914744,-73.00
2025-06-26 14:27:05.221428,599618659147914744,-58.00
2025-06-26 14:27:05.221428,599618659147914744,-58.00
2025-06-26 14:27:05.221428,599618659147914744,-44.00
2025-06-26 14:27:05.221428,599618659147914744,-34.00
2025-06-26 14:27:05.221428,599618659147914744,-29.00
2025-06-26 14:27:05.221428,599618659147914744,-19.00
2025-06-26 14:27:05.221428,599618659147914744,-9.00
2025-06-26 14:27:05.221428,599618659147914744,0.00
2025-06-26 14:27:05.221428,599618659147914744,9.00
2025-06-26 14:27:05.221428,599618659147914744,17.00
2025-06-26 14:27:05.221428,599618659147914744,26.00
2025-06-26 14:27:05.221428,599618659147914744,36.00
2025-06-26 14:27:05.221428,599618659147914744,48.00
2025-06-26 14:27:05.221428,599618659147914744,58.00
2025-06-26 14:27:05.221428,599618659147914744,66.00
2025-06-26 14:27:05.221428,599618659147914744,73.00
2025-06-26 14:27:05.221428,599618659147914744,78.00
2025-06-26 14:27:05.221428,599618659147914744,78.00
2025-06-26 14:27:05.221428,599618659147914744,75.00
2025-06-26 14:27:05.221428,599618659147914744,63.00
2025-06-26 14:27:05.221428,599618659147914744,34.00
2025-06-26 14:27:05.221428,599618659147914744,-4.00
2025-06-26 14:27:05.221428,599618659147914744,-48.00
2025-06-26 14:27:05.221428,599618659147914744,-88.00
2025-06-26 14:27:05.221428,599618659147914744,-117.00
2025-06-26 14:27:05.221428,599618659147914744,-137.00
2025-06-26 14:27:05.221428,599618659147914744,-149.00
2025-06-26 14:27:05.221428,599618659147914744,-151.00
2025-06-26 14:27:05.221428,599618659147914744,-151.00
2025-06-26 14:27:05.221428,599618659147914744,-146.00
2025-06-26 14:27:05.221428,599618659147914744,-142.00
2025-06-26 14:27:05.221428,599618659147914744,-132.00
2025-06-26 14:27:05.221428,599618659147914744,-122.00
2025-06-26 14:27:05.221428,599618659147914744,-115.00
2025-06-26 14:27:05.221428,599618659147914744,-110.00
2025-06-26 14:27:05.221428,599618659147914744,-105.00
2025-06-26 14:27:05.700995,599618659708611785,-100.00
2025-06-26 14:27:05.700995,599618659708611785,-97.00
2025-06-26 14:27:05.700995,599618659708611785,-97.00
2025-06-26 14:27:05.700995,599618659708611785,-95.00
2025-06-26 14:27:05.700995,599618659708611785,-93.00
2025-06-26 14:27:05.700995,599618659708611785,-93.00
2025-06-26 14:27:05.700995,599618659708611785,-90.00
2025-06-26 14:27:05.700995,599618659708611785,-88.00
2025-06-26 14:27:05.700995,599618659708611785,-88.00
2025-06-26 14:27:05.700995,599618659708611785,-88.00
2025-06-26 14:27:05.700995,599618659708611785,-85.00
2025-06-26 14:27:05.700995,599618659708611785,-83.00
2025-06-26 14:27:05.700995,599618659708611785,-83.00
2025-06-26 14:27:05.700995,599618659708611785,-83.00
2025-06-26 14:27:05.700995,599618659708611785,-78.00
2025-06-26 14:27:05.700995,599618659708611785,-75.00
2025-06-26 14:27:05.700995,599618659708611785,-75.00
2025-06-26 14:27:05.700995,599618659708611785,-75.00
2025-06-26 14:27:05.700995,599618659708611785,-73.00
2025-06-26 14:27:05.700995,599618659708611785,-68.00
2025-06-26 14:27:05.700995,599618659708611785,-68.00
2025-06-26 14:27:05.700995,599618659708611785,-68.00
2025-06-26 14:27:05.700995,599618659708611785,-66.00
2025-06-26 14:27:05.700995,599618659708611785,-66.00
2025-06-26 14:27:05.700995,599618659708611785,-63.00
2025-06-26 14:27:05.700995,599618659708611785,-63.00
2025-06-26 14:27:05.700995,599618659708611785,-63.00
2025-06-26 14:27:05.700995,599618659708611785,-61.00
2025-06-26 14:27:05.700995,599618659708611785,-63.00
2025-06-26 14:27:05.700995,599618659708611785,-71.00
2025-06-26 14:27:05.700995,599618659708611785,-75.00
2025-06-26 14:27:05.700995,599618659708611785,-68.00
2025-06-26 14:27:05.700995,599618659708611785,-51.00
2025-06-26 14:27:05.700995,599618659708611785,-29.00
2025-06-26 14:27:05.700995,599618659708611785,-19.00
2025-06-26 14:27:05.700995,599618659708611785,-29.00
2025-06-26 14:27:05.700995,599618659708611785,-34.00
2025-06-26 14:27:05.700995,599618659708611785,-36.00
2025-06-26 14:27:05.700995,599618659708611785,-48.00
2025-06-26 14:27:05.700995,599618659708611785,-56.00
2025-06-26 14:27:05.700995,599618659708611785,-56.00
2025-06-26 14:27:05.700995,599618659708611785,-58.00
2025-06-26 14:27:05.700995,599618659708611785,-56.00
2025-06-26 14:27:05.700995,599618659708611785,-51.00
2025-06-26 14:27:05.700995,599618659708611785,-58.00
2025-06-26 14:27:05.700995,599618659708611785,-63.00
2025-06-26 14:27:05.700995,599618659708611785,7.00
2025-06-26 14:27:05.700995,599618659708611785,218.00
2025-06-26 14:27:05.700995,599618659708611785,526.00
2025-06-26 14:27:05.700995,599618659708611785,712.00
2025-06-26 14:27:05.700995,599618659708611785,504.00
2025-06-26 14:27:05.700995,599618659708611785,-31.00
2025-06-26 14:27:05.700995,599618659708611785,-311.00
2025-06-26 14:27:05.700995,599618659708611785,-122.00
2025-06-26 14:27:05.700995,599618659708611785,-4.00
2025-06-26 14:27:05.700995,599618659708611785,-107.00
2025-06-26 14:27:05.700995,599618659708611785,-115.00
2025-06-26 14:27:05.700995,599618659708611785,-63.00
2025-06-26 14:27:05.700995,599618659708611785,-75.00
2025-06-26 14:27:05.700995,599618659708611785,-80.00
2025-06-26 14:27:05.700995,599618659708611785,-53.00
2025-06-26 14:27:05.700995,599618659708611785,-46.00
2025-06-26 14:27:05.700995,599618659708611785,-41.00
2025-06-26 14:27:05.700995,599618659708611785,-31.00
2025-06-26 14:27:05.700995,599618659708611785,-22.00
2025-06-26 14:27:05.700995,599618659708611785,-17.00
2025-06-26 14:27:05.700995,599618659708611785,-7.00
2025-06-26 14:27:05.700995,599618659708611785,0.00
2025-06-26 14:27:05.700995,599618659708611785,7.00
2025-06-26 14:27:05.700995,599618659708611785,14.00
2025-06-26 14:27:05.700995,599618659708611785,24.00
2025-06-26 14:27:05.700995,599618659708611785,31.00
2025-06-26 14:27:05.700995,599618659708611785,41.00
2025-06-26 14:27:06.330599,599618660269308826,51.00
2025-06-26 14:27:06.330599,599618660269308826,56.00
2025-06-26 14:27:06.330599,599618660269308826,63.00
2025-06-26 14:27:06.330599,599618660269308826,71.00
2025-06-26 14:27:06.330599,599618660269308826,71.00
2025-06-26 14:27:06.330599,599618660269308826,71.00
2025-06-26 14:27:06.330599,599618660269308826,68.00
2025-06-26 14:27:06.330599,599618660269308826,58.00
2025-06-26 14:27:06.330599,599618660269308826,34.00
2025-06-26 14:27:06.330599,599618660269308826,-2.00
2025-06-26 14:27:06.330599,599618660269308826,-44.00
2025-06-26 14:27:06.330599,599618660269308826,-80.00
2025-06-26 14:27:06.330599,599618660269308826,-107.00
2025-06-26 14:27:06.330599,599618660269308826,-129.00
2025-06-26 14:27:06.330599,599618660269308826,-142.00
2025-06-26 14:27:06.330599,599618660269308826,-144.00
2025-06-26 14:27:06.330599,599618660269308826,-144.00
2025-06-26 14:27:06.330599,599618660269308826,-142.00
2025-06-26 14:27:06.330599,599618660269308826,-134.00
2025-06-26 14:27:06.330599,599618660269308826,-127.00
2025-06-26 14:27:06.330599,599618660269308826,-120.00
2025-06-26 14:27:06.330599,599618660269308826,-115.00
2025-06-26 14:27:06.330599,599618660269308826,-110.00
2025-06-26 14:27:06.330599,599618660269308826,-105.00
2025-06-26 14:27:06.330599,599618660269308826,-100.00
2025-06-26 14:27:06.330599,599618660269308826,-97.00
2025-06-26 14:27:06.330599,599618660269308826,-95.00
2025-06-26 14:27:06.330599,599618660269308826,-95.00
2025-06-26 14:27:06.330599,599618660269308826,-90.00
2025-06-26 14:27:06.330599,599618660269308826,-88.00
2025-06-26 14:27:06.330599,599618660269308826,-90.00
2025-06-26 14:27:06.330599,599618660269308826,-90.00
2025-06-26 14:27:06.330599,599618660269308826,-85.00
2025-06-26 14:27:06.330599,599618660269308826,-85.00
2025-06-26 14:27:06.330599,599618660269308826,-85.00
2025-06-26 14:27:06.330599,599618660269308826,-83.00
2025-06-26 14:27:06.330599,599618660269308826,-83.00
2025-06-26 14:27:06.330599,599618660269308826,-80.00
2025-06-26 14:27:06.330599,599618660269308826,-80.00
2025-06-26 14:27:06.330599,599618660269308826,-80.00
2025-06-26 14:27:06.330599,599618660269308826,-78.00
2025-06-26 14:27:06.330599,599618660269308826,-75.00
2025-06-26 14:27:06.330599,599618660269308826,-75.00
2025-06-26 14:27:06.330599,599618660269308826,-73.00
2025-06-26 14:27:06.330599,599618660269308826,-73.00
2025-06-26 14:27:06.330599,599618660269308826,-71.00
2025-06-26 14:27:06.330599,599618660269308826,-68.00
2025-06-26 14:27:06.330599,599618660269308826,-68.00
2025-06-26 14:27:06.330599,599618660269308826,-68.00
2025-06-26 14:27:06.330599,599618660269308826,-68.00
2025-06-26 14:27:06.330599,599618660269308826,-68.00
2025-06-26 14:27:06.330599,599618660269308826,-66.00
2025-06-26 14:27:06.330599,599618660269308826,-66.00
2025-06-26 14:27:06.330599,599618660269308826,-68.00
2025-06-26 14:27:06.330599,599618660269308826,-73.00
2025-06-26 14:27:06.330599,599618660269308826,-71.00
2025-06-26 14:27:06.330599,599618660269308826,-58.00
2025-06-26 14:27:06.330599,599618660269308826,-34.00
2025-06-26 14:27:06.330599,599618660269308826,-17.00
2025-06-26 14:27:06.330599,599618660269308826,-24.00
2025-06-26 14:27:06.330599,599618660269308826,-39.00
2025-06-26 14:27:06.330599,599618660269308826,-46.00
2025-06-26 14:27:06.330599,599618660269308826,-51.00
2025-06-26 14:27:06.330599,599618660269308826,-51.00
2025-06-26 14:27:06.330599,599618660269308826,-56.00
2025-06-26 14:27:06.330599,599618660269308826,-63.00
2025-06-26 14:27:06.330599,599618660269308826,-56.00
2025-06-26 14:27:06.330599,599618660269308826,-51.00
2025-06-26 14:27:06.330599,599618660269308826,-58.00
2025-06-26 14:27:06.330599,599618660269308826,-66.00
2025-06-26 14:27:06.330599,599618660269308826,-7.00
2025-06-26 14:27:06.330599,599618660269308826,178.00
2025-06-26 14:27:06.330599,599618660269308826,472.00
2025-06-26 14:27:06.899806,599618660830005867,690.00
2025-06-26 14:27:06.899806,599618660830005867,556.00
2025-06-26 14:27:06.899806,599618660830005867,46.00
2025-06-26 14:27:06.899806,599618660830005867,-303.00
2025-06-26 14:27:06.899806,599618660830005867,-164.00
2025-06-26 14:27:06.899806,599618660830005867,-9.00
2025-06-26 14:27:06.899806,599618660830005867,-93.00
2025-06-26 14:27:06.899806,599618660830005867,-122.00
2025-06-26 14:27:06.899806,599618660830005867,-71.00
2025-06-26 14:27:06.899806,599618660830005867,-73.00
2025-06-26 14:27:06.899806,599618660830005867,-80.00
2025-06-26 14:27:06.899806,599618660830005867,-58.00
2025-06-26 14:27:06.899806,599618660830005867,-46.00
2025-06-26 14:27:06.899806,599618660830005867,-41.00
2025-06-26 14:27:06.899806,599618660830005867,-31.00
2025-06-26 14:27:06.899806,599618660830005867,-22.00
2025-06-26 14:27:06.899806,599618660830005867,-17.00
2025-06-26 14:27:06.899806,599618660830005867,-4.00
2025-06-26 14:27:06.899806,599618660830005867,4.00
2025-06-26 14:27:06.899806,599618660830005867,12.00
2025-06-26 14:27:06.899806,599618660830005867,19.00
2025-06-26 14:27:06.899806,599618660830005867,31.00
2025-06-26 14:27:06.899806,599618660830005867,36.00
2025-06-26 14:27:06.899806,599618660830005867,46.00
2025-06-26 14:27:06.899806,599618660830005867,56.00
2025-06-26 14:27:06.899806,599618660830005867,63.00
2025-06-26 14:27:06.899806,599618660830005867,68.00
2025-06-26 14:27:06.899806,599618660830005867,71.00
2025-06-26 14:27:06.899806,599618660830005867,73.00
2025-06-26 14:27:06.899806,599618660830005867,75.00
2025-06-26 14:27:06.899806,599618660830005867,73.00
2025-06-26 14:27:06.899806,599618660830005867,63.00
2025-06-26 14:27:06.899806,599618660830005867,39.00
2025-06-26 14:27:06.899806,599618660830005867,2.00
2025-06-26 14:27:06.899806,599618660830005867,-36.00
2025-06-26 14:27:06.899806,599618660830005867,-73.00
2025-06-26 14:27:06.899806,599618660830005867,-102.00
2025-06-26 14:27:06.899806,599618660830005867,-122.00
2025-06-26 14:27:06.899806,599618660830005867,-134.00
2025-06-26 14:27:06.899806,599618660830005867,-142.00
2025-06-26 14:27:06.899806,599618660830005867,-139.00
2025-06-26 14:27:06.899806,599618660830005867,-137.00
2025-06-26 14:27:06.899806,599618660830005867,-132.00
2025-06-26 14:27:06.899806,599618660830005867,-122.00
2025-06-26 14:27:06.899806,599618660830005867,-115.00
2025-06-26 14:27:06.899806,599618660830005867,-107.00
2025-06-26 14:27:06.899806,599618660830005867,-105.00
2025-06-26 14:27:06.899806,599618660830005867,-97.00
2025-06-26 14:27:06.899806,599618660830005867,-93.00
2025-06-26 14:27:06.899806,599618660830005867,-88.00
2025-06-26 14:27:06.899806,599618660830005867,-88.00
2025-06-26 14:27:06.899806,599618660830005867,-85.00
2025-06-26 14:27:06.899806,599618660830005867,-83.00
2025-06-26 14:27:06.899806,599618660830005867,-83.00
2025-06-26 14:27:06.899806,599618660830005867,-83.00
2025-06-26 14:27:06.899806,599618660830005867,-80.00
2025-06-26 14:27:06.899806,599618660830005867,-78.00
2025-06-26 14:27:06.899806,599618660830005867,-78.00
2025-06-26 14:27:06.899806,599618660830005867,-75.00
2025-06-26 14:27:06.899806,599618660830005867,-75.00
2025-06-26 14:27:06.899806,599618660830005867,-73.00
2025-06-26 14:27:06.899806,599618660830005867,-73.00
2025-06-26 14:27:06.899806,599618660830005867,-73.00
2025-06-26 14:27:06.899806,599618660830005867,-73.00
2025-06-26 14:27:06.899806,599618660830005867,-71.00
2025-06-26 14:27:06.899806,599618660830005867,-68.00
2025-06-26 14:27:06.899806,599618660830005867,-68.00
2025-06-26 14:27:06.899806,599618660830005867,-66.00
2025-06-26 14:27:06.899806,599618660830005867,-66.00
2025-06-26 14:27:06.899806,599618660830005867,-63.00
2025-06-26 14:27:06.899806,599618660830005867,-61.00
2025-06-26 14:27:06.899806,599618660830005867,-58.00
2025-06-26 14:27:06.899806,599618660830005867,-58.00
2025-06-26 14:27:07.439999,599618661390733426,-58.00
2025-06-26 14:27:07.439999,599618661390733426,-58.00
2025-06-26 14:27:07.439999,599618661390733426,-63.00
2025-06-26 14:27:07.439999,599618661390733426,-68.00
2025-06-26 14:27:07.439999,599618661390733426,-58.00
2025-06-26 14:27:07.439999,599618661390733426,-39.00
2025-06-26 14:27:07.439999,599618661390733426,-17.00
2025-06-26 14:27:07.439999,599618661390733426,-14.00
2025-06-26 14:27:07.439999,599618661390733426,-26.00
2025-06-26 14:27:07.439999,599618661390733426,-29.00
2025-06-26 14:27:07.439999,599618661390733426,-31.00
2025-06-26 14:27:07.439999,599618661390733426,-41.00
2025-06-26 14:27:07.439999,599618661390733426,-48.00
2025-06-26 14:27:07.439999,599618661390733426,-51.00
2025-06-26 14:27:07.439999,599618661390733426,-48.00
2025-06-26 14:27:07.439999,599618661390733426,-44.00
2025-06-26 14:27:07.439999,599618661390733426,-44.00
2025-06-26 14:27:07.439999,599618661390733426,-53.00
2025-06-26 14:27:07.439999,599618661390733426,-36.00
2025-06-26 14:27:07.439999,599618661390733426,93.00
2025-06-26 14:27:07.439999,599618661390733426,357.00
2025-06-26 14:27:07.439999,599618661390733426,634.00
2025-06-26 14:27:07.439999,599618661390733426,673.00
2025-06-26 14:27:07.439999,599618661390733426,284.00
2025-06-26 14:27:07.439999,599618661390733426,-198.00
2025-06-26 14:27:07.439999,599618661390733426,-240.00
2025-06-26 14:27:07.439999,599618661390733426,-29.00
2025-06-26 14:27:07.439999,599618661390733426,-29.00
2025-06-26 14:27:07.439999,599618661390733426,-110.00
2025-06-26 14:27:07.439999,599618661390733426,-75.00
2025-06-26 14:27:07.439999,599618661390733426,-56.00
2025-06-26 14:27:07.439999,599618661390733426,-73.00
2025-06-26 14:27:07.439999,599618661390733426,-61.00
2025-06-26 14:27:07.439999,599618661390733426,-39.00
2025-06-26 14:27:07.439999,599618661390733426,-36.00
2025-06-26 14:27:07.439999,599618661390733426,-31.00
2025-06-26 14:27:07.439999,599618661390733426,-17.00
2025-06-26 14:27:07.439999,599618661390733426,-12.00
2025-06-26 14:27:07.439999,599618661390733426,-4.00
2025-06-26 14:27:07.439999,599618661390733426,7.00
2025-06-26 14:27:07.439999,599618661390733426,17.00
2025-06-26 14:27:07.439999,599618661390733426,22.00
2025-06-26 14:27:07.439999,599618661390733426,31.00
2025-06-26 14:27:07.439999,599618661390733426,39.00
2025-06-26 14:27:07.439999,599618661390733426,46.00
2025-06-26 14:27:07.439999,599618661390733426,56.00
2025-06-26 14:27:07.439999,599618661390733426,66.00
2025-06-26 14:27:07.439999,599618661390733426,73.00
2025-06-26 14:27:07.439999,599618661390733426,78.00
2025-06-26 14:27:07.439999,599618661390733426,83.00
2025-06-26 14:27:07.439999,599618661390733426,83.00
2025-06-26 14:27:07.439999,599618661390733426,80.00
2025-06-26 14:27:07.439999,599618661390733426,71.00
2025-06-26 14:27:07.439999,599618661390733426,53.00
2025-06-26 14:27:07.439999,599618661390733426,22.00
2025-06-26 14:27:07.439999,599618661390733426,-19.00
2025-06-26 14:27:07.439999,599618661390733426,-58.00
2025-06-26 14:27:07.439999,599618661390733426,-88.00
2025-06-26 14:27:07.439999,599618661390733426,-112.00
2025-06-26 14:27:07.439999,599618661390733426,-129.00
2025-06-26 14:27:07.439999,599618661390733426,-134.00
2025-06-26 14:27:07.439999,599618661390733426,-134.00
2025-06-26 14:27:07.439999,599618661390733426,-134.00
2025-06-26 14:27:07.439999,599618661390733426,-129.00
2025-06-26 14:27:07.439999,599618661390733426,-124.00
2025-06-26 14:27:07.439999,599618661390733426,-117.00
2025-06-26 14:27:07.439999,599618661390733426,-110.00
2025-06-26 14:27:07.439999,599618661390733426,-107.00
2025-06-26 14:27:07.439999,599618661390733426,-105.00
2025-06-26 14:27:07.439999,599618661390733426,-100.00
2025-06-26 14:27:07.439999,599618661390733426,-97.00
2025-06-26 14:27:07.439999,599618661390733426,-97.00
2025-06-26 14:27:07.439999,599618661390733426,-95.00
2025-06-26 14:27:08.010044,599618661951430469,-95.00
2025-06-26 14:27:08.010044,599618661951430469,-93.00
2025-06-26 14:27:08.010044,599618661951430469,-90.00
2025-06-26 14:27:08.010044,599618661951430469,-90.00
2025-06-26 14:27:08.010044,599618661951430469,-88.00
2025-06-26 14:27:08.010044,599618661951430469,-88.00
2025-06-26 14:27:08.010044,599618661951430469,-90.00
2025-06-26 14:27:08.010044,599618661951430469,-88.00
2025-06-26 14:27:08.010044,599618661951430469,-85.00
2025-06-26 14:27:08.010044,599618661951430469,-85.00
2025-06-26 14:27:08.010044,599618661951430469,-85.00
2025-06-26 14:27:08.010044,599618661951430469,-85.00
2025-06-26 14:27:08.010044,599618661951430469,-83.00
2025-06-26 14:27:08.010044,599618661951430469,-80.00
2025-06-26 14:27:08.010044,599618661951430469,-80.00
2025-06-26 14:27:08.010044,599618661951430469,-75.00
2025-06-26 14:27:08.010044,599618661951430469,-73.00
2025-06-26 14:27:08.010044,599618661951430469,-75.00
2025-06-26 14:27:08.010044,599618661951430469,-75.00
2025-06-26 14:27:08.010044,599618661951430469,-73.00
2025-06-26 14:27:08.010044,599618661951430469,-75.00
2025-06-26 14:27:08.010044,599618661951430469,-78.00
2025-06-26 14:27:08.010044,599618661951430469,-85.00
2025-06-26 14:27:08.010044,599618661951430469,-85.00
2025-06-26 14:27:08.010044,599618661951430469,-73.00
2025-06-26 14:27:08.010044,599618661951430469,-51.00
2025-06-26 14:27:08.010044,599618661951430469,-36.00
2025-06-26 14:27:08.010044,599618661951430469,-41.00
2025-06-26 14:27:08.010044,599618661951430469,-48.00
2025-06-26 14:27:08.010044,599618661951430469,-48.00
2025-06-26 14:27:08.010044,599618661951430469,-53.00
2025-06-26 14:27:08.010044,599618661951430469,-68.00
2025-06-26 14:27:08.010044,599618661951430469,-68.00
2025-06-26 14:27:08.010044,599618661951430469,-63.00
2025-06-26 14:27:08.010044,599618661951430469,-63.00
2025-06-26 14:27:08.010044,599618661951430469,-61.00
2025-06-26 14:27:08.010044,599618661951430469,-61.00
2025-06-26 14:27:08.010044,599618661951430469,-71.00
2025-06-26 14:27:08.010044,599618661951430469,-29.00
2025-06-26 14:27:08.010044,599618661951430469,137.00
2025-06-26 14:27:08.010044,599618661951430469,421.00
2025-06-26 14:27:08.010044,599618661951430469,656.00
2025-06-26 14:27:08.010044,599618661951430469,573.00
2025-06-26 14:27:08.010044,599618661951430469,100.00
2025-06-26 14:27:08.010044,599618661951430469,-286.00
2025-06-26 14:27:08.010044,599618661951430469,-195.00
2025-06-26 14:27:08.010044,599618661951430469,-22.00
2025-06-26 14:27:08.010044,599618661951430469,-83.00
2025-06-26 14:27:08.010044,599618661951430469,-124.00
2025-06-26 14:27:08.010044,599618661951430469,-78.00
2025-06-26 14:27:08.010044,599618661951430469,-78.00
2025-06-26 14:27:08.010044,599618661951430469,-90.00
2025-06-26 14:27:08.010044,599618661951430469,-66.00
2025-06-26 14:27:08.010044,599618661951430469,-51.00
2025-06-26 14:27:08.010044,599618661951430469,-53.00
2025-06-26 14:27:08.010044,599618661951430469,-44.00
2025-06-26 14:27:08.010044,599618661951430469,-31.00
2025-06-26 14:27:08.010044,599618661951430469,-24.00
2025-06-26 14:27:08.010044,599618661951430469,-17.00
2025-06-26 14:27:08.010044,599618661951430469,-9.00
2025-06-26 14:27:08.010044,599618661951430469,0.00
2025-06-26 14:27:08.010044,599618661951430469,7.00
2025-06-26 14:27:08.010044,599618661951430469,17.00
2025-06-26 14:27:08.010044,599618661951430469,26.00
2025-06-26 14:27:08.010044,599618661951430469,36.00
2025-06-26 14:27:08.010044,599618661951430469,46.00
2025-06-26 14:27:08.010044,599618661951430469,53.00
2025-06-26 14:27:08.010044,599618661951430469,61.00
2025-06-26 14:27:08.010044,599618661951430469,66.00
2025-06-26 14:27:08.010044,599618661951430469,68.00
2025-06-26 14:27:08.010044,599618661951430469,71.00
2025-06-26 14:27:08.010044,599618661951430469,68.00
2025-06-26 14:27:08.010044,599618661951430469,58.00
2025-06-26 14:27:08.518966,599618662512127510,34.00
2025-06-26 14:27:08.518966,599618662512127510,-4.00
2025-06-26 14:27:08.518966,599618662512127510,-39.00
2025-06-26 14:27:08.518966,599618662512127510,-73.00
2025-06-26 14:27:08.518966,599618662512127510,-102.00
2025-06-26 14:27:08.518966,599618662512127510,-122.00
2025-06-26 14:27:08.518966,599618662512127510,-132.00
2025-06-26 14:27:08.518966,599618662512127510,-134.00
2025-06-26 14:27:08.518966,599618662512127510,-134.00
2025-06-26 14:27:08.518966,599618662512127510,-129.00
2025-06-26 14:27:08.518966,599618662512127510,-122.00
2025-06-26 14:27:08.518966,599618662512127510,-117.00
2025-06-26 14:27:08.518966,599618662512127510,-112.00
2025-06-26 14:27:08.518966,599618662512127510,-105.00
2025-06-26 14:27:08.518966,599618662512127510,-97.00
2025-06-26 14:27:08.518966,599618662512127510,-93.00
2025-06-26 14:27:08.518966,599618662512127510,-90.00
2025-06-26 14:27:08.518966,599618662512127510,-88.00
2025-06-26 14:27:08.518966,599618662512127510,-83.00
2025-06-26 14:27:08.518966,599618662512127510,-83.00
2025-06-26 14:27:08.518966,599618662512127510,-80.00
2025-06-26 14:27:08.518966,599618662512127510,-80.00
2025-06-26 14:27:08.518966,599618662512127510,-80.00
2025-06-26 14:27:08.518966,599618662512127510,-78.00
2025-06-26 14:27:08.518966,599618662512127510,-78.00
2025-06-26 14:27:08.518966,599618662512127510,-78.00
2025-06-26 14:27:08.518966,599618662512127510,-73.00
2025-06-26 14:27:08.518966,599618662512127510,-71.00
2025-06-26 14:27:08.518966,599618662512127510,-73.00
2025-06-26 14:27:08.518966,599618662512127510,-71.00
2025-06-26 14:27:08.518966,599618662512127510,-68.00
2025-06-26 14:27:08.518966,599618662512127510,-71.00
2025-06-26 14:27:08.518966,599618662512127510,-68.00
2025-06-26 14:27:08.518966,599618662512127510,-68.00
2025-06-26 14:27:08.518966,599618662512127510,-66.00
2025-06-26 14:27:08.518966,599618662512127510,-63.00
2025-06-26 14:27:08.518966,599618662512127510,-63.00
2025-06-26 14:27:08.518966,599618662512127510,-63.00
2025-06-26 14:27:08.518966,599618662512127510,-61.00
2025-06-26 14:27:08.518966,599618662512127510,-58.00
2025-06-26 14:27:08.518966,599618662512127510,-58.00
2025-06-26 14:27:08.518966,599618662512127510,-61.00
2025-06-26 14:27:08.518966,599618662512127510,-63.00
2025-06-26 14:27:08.518966,599618662512127510,-68.00
2025-06-26 14:27:08.518966,599618662512127510,-66.00
2025-06-26 14:27:08.518966,599618662512127510,-51.00
2025-06-26 14:27:08.518966,599618662512127510,-26.00
2025-06-26 14:27:08.518966,599618662512127510,-17.00
2025-06-26 14:27:08.518966,599618662512127510,-24.00
2025-06-26 14:27:08.518966,599618662512127510,-29.00
2025-06-26 14:27:08.518966,599618662512127510,-31.00
2025-06-26 14:27:08.518966,599618662512127510,-41.00
2025-06-26 14:27:08.518966,599618662512127510,-51.00
2025-06-26 14:27:08.518966,599618662512127510,-51.00
2025-06-26 14:27:08.518966,599618662512127510,-48.00
2025-06-26 14:27:08.518966,599618662512127510,-48.00
2025-06-26 14:27:08.518966,599618662512127510,-46.00
2025-06-26 14:27:08.518966,599618662512127510,-51.00
2025-06-26 14:27:08.518966,599618662512127510,-56.00
2025-06-26 14:27:08.518966,599618662512127510,4.00
2025-06-26 14:27:08.518966,599618662512127510,198.00
2025-06-26 14:27:08.518966,599618662512127510,480.00
2025-06-26 14:27:08.518966,599618662512127510,658.00
2025-06-26 14:27:08.518966,599618662512127510,475.00
2025-06-26 14:27:08.518966,599618662512127510,-9.00
2025-06-26 14:27:08.518966,599618662512127510,-284.00
2025-06-26 14:27:08.518966,599618662512127510,-132.00
2025-06-26 14:27:08.518966,599618662512127510,-17.00
2025-06-26 14:27:08.518966,599618662512127510,-105.00
2025-06-26 14:27:08.518966,599618662512127510,-120.00
2025-06-26 14:27:08.518966,599618662512127510,-73.00
2025-06-26 14:27:08.518966,599618662512127510,-83.00
2025-06-26 14:27:08.518966,599618662512127510,-90.00
2025-06-26 14:27:09.123748,599618663072824551,-68.00
2025-06-26 14:27:09.123748,599618663072824551,-58.00
2025-06-26 14:27:09.123748,599618663072824551,-58.00
2025-06-26 14:27:09.123748,599618663072824551,-46.00
2025-06-26 14:27:09.123748,599618663072824551,-36.00
2025-06-26 14:27:09.123748,599618663072824551,-34.00
2025-06-26 14:27:09.123748,599618663072824551,-26.00
2025-06-26 14:27:09.123748,599618663072824551,-17.00
2025-06-26 14:27:09.123748,599618663072824551,-12.00
2025-06-26 14:27:09.123748,599618663072824551,-4.00
2025-06-26 14:27:09.123748,599618663072824551,7.00
2025-06-26 14:27:09.123748,599618663072824551,17.00
2025-06-26 14:27:09.123748,599618663072824551,24.00
2025-06-26 14:27:09.123748,599618663072824551,34.00
2025-06-26 14:27:09.123748,599618663072824551,41.00
2025-06-26 14:27:09.123748,599618663072824551,48.00
2025-06-26 14:27:09.123748,599618663072824551,53.00
2025-06-26 14:27:09.123748,599618663072824551,58.00
2025-06-26 14:27:09.123748,599618663072824551,61.00
2025-06-26 14:27:09.123748,599618663072824551,56.00
2025-06-26 14:27:09.123748,599618663072824551,41.00
2025-06-26 14:27:09.123748,599618663072824551,19.00
2025-06-26 14:27:09.123748,599618663072824551,-14.00
2025-06-26 14:27:09.123748,599618663072824551,-51.00
2025-06-26 14:27:09.123748,599618663072824551,-83.00
2025-06-26 14:27:09.123748,599618663072824551,-107.00
2025-06-26 14:27:09.123748,599618663072824551,-122.00
2025-06-26 14:27:09.123748,599618663072824551,-132.00
2025-06-26 14:27:09.123748,599618663072824551,-137.00
2025-06-26 14:27:09.123748,599618663072824551,-137.00
2025-06-26 14:27:09.123748,599618663072824551,-132.00
2025-06-26 14:27:09.123748,599618663072824551,-127.00
2025-06-26 14:27:09.123748,599618663072824551,-120.00
2025-06-26 14:27:09.123748,599618663072824551,-115.00
2025-06-26 14:27:09.123748,599618663072824551,-107.00
2025-06-26 14:27:09.123748,599618663072824551,-102.00
2025-06-26 14:27:09.123748,599618663072824551,-100.00
2025-06-26 14:27:09.123748,599618663072824551,-97.00
2025-06-26 14:27:09.123748,599618663072824551,-95.00
2025-06-26 14:27:09.123748,599618663072824551,-93.00
2025-06-26 14:27:09.123748,599618663072824551,-90.00
2025-06-26 14:27:09.123748,599618663072824551,-88.00
2025-06-26 14:27:09.123748,599618663072824551,-88.00
2025-06-26 14:27:09.123748,599618663072824551,-85.00
2025-06-26 14:27:09.123748,599618663072824551,-85.00
2025-06-26 14:27:09.123748,599618663072824551,-85.00
2025-06-26 14:27:09.123748,599618663072824551,-83.00
2025-06-26 14:27:09.123748,599618663072824551,-83.00
2025-06-26 14:27:09.123748,599618663072824551,-83.00
2025-06-26 14:27:09.123748,599618663072824551,-80.00
2025-06-26 14:27:09.123748,599618663072824551,-80.00
2025-06-26 14:27:09.123748,599618663072824551,-80.00
2025-06-26 14:27:09.123748,599618663072824551,-78.00
2025-06-26 14:27:09.123748,599618663072824551,-78.00
2025-06-26 14:27:09.123748,599618663072824551,-75.00
2025-06-26 14:27:09.123748,599618663072824551,-73.00
2025-06-26 14:27:09.123748,599618663072824551,-71.00
2025-06-26 14:27:09.123748,599618663072824551,-71.00
2025-06-26 14:27:09.123748,599618663072824551,-68.00
2025-06-26 14:27:09.123748,599618663072824551,-68.00
2025-06-26 14:27:09.123748,599618663072824551,-73.00
2025-06-26 14:27:09.123748,599618663072824551,-75.00
2025-06-26 14:27:09.123748,599618663072824551,-73.00
2025-06-26 14:27:09.123748,599618663072824551,-58.00
2025-06-26 14:27:09.123748,599618663072824551,-34.00
2025-06-26 14:27:09.123748,599618663072824551,-24.00
2025-06-26 14:27:09.123748,599618663072824551,-34.00
2025-06-26 14:27:09.123748,599618663072824551,-39.00
2025-06-26 14:27:09.123748,599618663072824551,-41.00
2025-06-26 14:27:09.123748,599618663072824551,-48.00
2025-06-26 14:27:09.123748,599618663072824551,-61.00
2025-06-26 14:27:09.123748,599618663072824551,-61.00
2025-06-26 14:27:09.123748,599618663072824551,-58.00
2025-06-26 14:27:09.661462,599618663633552110,-56.00
2025-06-26 14:27:09.661462,599618663633552110,-53.00
2025-06-26 14:27:09.661462,599618663633552110,-58.00
2025-06-26 14:27:09.661462,599618663633552110,-61.00
2025-06-26 14:27:09.661462,599618663633552110,-12.00
2025-06-26 14:27:09.661462,599618663633552110,154.00
2025-06-26 14:27:09.661462,599618663633552110,423.00
2025-06-26 14:27:09.661462,599618663633552110,627.00
2025-06-26 14:27:09.661462,599618663633552110,514.00
2025-06-26 14:27:09.661462,599618663633552110,78.00
2025-06-26 14:27:09.661462,599618663633552110,-247.00
2025-06-26 14:27:09.661462,599618663633552110,-159.00
2025-06-26 14:27:09.661462,599618663633552110,-9.00
2025-06-26 14:27:09.661462,599618663633552110,-58.00
2025-06-26 14:27:09.661462,599618663633552110,-93.00
2025-06-26 14:27:09.661462,599618663633552110,-53.00
2025-06-26 14:27:09.661462,599618663633552110,-48.00
2025-06-26 14:27:09.661462,599618663633552110,-58.00
2025-06-26 14:27:09.661462,599618663633552110,-44.00
2025-06-26 14:27:09.661462,599618663633552110,-31.00
2025-06-26 14:27:09.661462,599618663633552110,-29.00
2025-06-26 14:27:09.661462,599618663633552110,-24.00
2025-06-26 14:27:09.661462,599618663633552110,-17.00
2025-06-26 14:27:09.661462,599618663633552110,-14.00
2025-06-26 14:27:09.661462,599618663633552110,-7.00
2025-06-26 14:27:09.661462,599618663633552110,0.00
2025-06-26 14:27:09.661462,599618663633552110,4.00
2025-06-26 14:27:09.661462,599618663633552110,9.00
2025-06-26 14:27:09.661462,599618663633552110,17.00
2025-06-26 14:27:09.661462,599618663633552110,24.00
2025-06-26 14:27:09.661462,599618663633552110,31.00
2025-06-26 14:27:09.661462,599618663633552110,39.00
2025-06-26 14:27:09.661462,599618663633552110,44.00
2025-06-26 14:27:09.661462,599618663633552110,46.00
2025-06-26 14:27:09.661462,599618663633552110,51.00
2025-06-26 14:27:09.661462,599618663633552110,56.00
2025-06-26 14:27:09.661462,599618663633552110,53.00
2025-06-26 14:27:09.661462,599618663633552110,48.00
2025-06-26 14:27:09.661462,599618663633552110,36.00
2025-06-26 14:27:09.661462,599618663633552110,12.00
2025-06-26 14:27:09.661462,599618663633552110,-24.00
2025-06-26 14:27:09.661462,599618663633552110,-61.00
2025-06-26 14:27:09.661462,599618663633552110,-93.00
2025-06-26 14:27:09.661462,599618663633552110,-117.00
2025-06-26 14:27:09.661462,599618663633552110,-137.00
2025-06-26 14:27:09.661462,599618663633552110,-144.00
2025-06-26 14:27:09.661462,599618663633552110,-146.00
2025-06-26 14:27:09.661462,599618663633552110,-144.00
2025-06-26 14:27:09.661462,599618663633552110,-142.00
2025-06-26 14:27:09.661462,599618663633552110,-134.00
2025-06-26 14:27:09.661462,599618663633552110,-127.00
2025-06-26 14:27:09.661462,599618663633552110,-122.00
2025-06-26 14:27:09.661462,599618663633552110,-117.00
2025-06-26 14:27:09.661462,599618663633552110,-112.00
2025-06-26 14:27:09.661462,599618663633552110,-110.00
2025-06-26 14:27:09.661462,599618663633552110,-107.00
2025-06-26 14:27:09.661462,599618663633552110,-105.00
2025-06-26 14:27:09.661462,599618663633552110,-102.00
2025-06-26 14:27:09.661462,599618663633552110,-97.00
2025-06-26 14:27:09.661462,599618663633552110,-95.00
2025-06-26 14:27:09.661462,599618663633552110,-97.00
2025-06-26 14:27:09.661462,599618663633552110,-95.00
2025-06-26 14:27:09.661462,599618663633552110,-93.00
2025-06-26 14:27:09.661462,599618663633552110,-90.00
2025-06-26 14:27:09.661462,599618663633552110,-93.00
2025-06-26 14:27:09.661462,599618663633552110,-93.00
2025-06-26 14:27:09.661462,599618663633552110,-90.00
2025-06-26 14:27:09.661462,599618663633552110,-90.00
2025-06-26 14:27:09.661462,599618663633552110,-93.00
2025-06-26 14:27:09.661462,599618663633552110,-90.00
2025-06-26 14:27:09.661462,599618663633552110,-90.00
2025-06-26 14:27:09.661462,599618663633552110,-90.00
2025-06-26 14:27:09.661462,599618663633552110,-88.00
2025-06-26 14:27:10.260101,599618664194274581,-85.00
2025-06-26 14:27:10.260101,599618664194274581,-85.00
2025-06-26 14:27:10.260101,599618664194274581,-83.00
2025-06-26 14:27:10.260101,599618664194274581,-78.00
2025-06-26 14:27:10.260101,599618664194274581,-75.00
2025-06-26 14:27:10.260101,599618664194274581,-75.00
2025-06-26 14:27:10.260101,599618664194274581,-73.00
2025-06-26 14:27:10.260101,599618664194274581,-73.00
2025-06-26 14:27:10.260101,599618664194274581,-78.00
2025-06-26 14:27:10.260101,599618664194274581,-78.00
2025-06-26 14:27:10.260101,599618664194274581,-71.00
2025-06-26 14:27:10.260101,599618664194274581,-56.00
2025-06-26 14:27:10.260101,599618664194274581,-34.00
2025-06-26 14:27:10.260101,599618664194274581,-24.00
2025-06-26 14:27:10.260101,599618664194274581,-36.00
2025-06-26 14:27:10.260101,599618664194274581,-41.00
2025-06-26 14:27:10.260101,599618664194274581,-41.00
2025-06-26 14:27:10.260101,599618664194274581,-51.00
2025-06-26 14:27:10.260101,599618664194274581,-61.00
2025-06-26 14:27:10.260101,599618664194274581,-63.00
2025-06-26 14:27:10.260101,599618664194274581,-61.00
2025-06-26 14:27:10.260101,599618664194274581,-61.00
2025-06-26 14:27:10.260101,599618664194274581,-58.00
2025-06-26 14:27:10.260101,599618664194274581,-63.00
2025-06-26 14:27:10.260101,599618664194274581,-66.00
2025-06-26 14:27:10.260101,599618664194274581,0.00
2025-06-26 14:27:10.260101,599618664194274581,191.00
2025-06-26 14:27:10.260101,599618664194274581,460.00
2025-06-26 14:27:10.260101,599618664194274581,619.00
2025-06-26 14:27:10.260101,599618664194274581,438.00
2025-06-26 14:27:10.260101,599618664194274581,-19.00
2025-06-26 14:27:10.260101,599618664194274581,-281.00
2025-06-26 14:27:10.260101,599618664194274581,-139.00
2025-06-26 14:27:10.260101,599618664194274581,-24.00
2025-06-26 14:27:10.260101,599618664194274581,-100.00
2025-06-26 14:27:10.260101,599618664194274581,-112.00
2025-06-26 14:27:10.260101,599618664194274581,-68.00
2025-06-26 14:27:10.260101,599618664194274581,-73.00
2025-06-26 14:27:10.260101,599618664194274581,-78.00
2025-06-26 14:27:10.260101,599618664194274581,-58.00
2025-06-26 14:27:10.260101,599618664194274581,-48.00
2025-06-26 14:27:10.260101,599618664194274581,-46.00
2025-06-26 14:27:10.260101,599618664194274581,-36.00
2025-06-26 14:27:10.260101,599618664194274581,-26.00
2025-06-26 14:27:10.260101,599618664194274581,-22.00
2025-06-26 14:27:10.260101,599618664194274581,-14.00
2025-06-26 14:27:10.260101,599618664194274581,-4.00
2025-06-26 14:27:10.260101,599618664194274581,2.00
2025-06-26 14:27:10.260101,599618664194274581,9.00
2025-06-26 14:27:10.260101,599618664194274581,17.00
2025-06-26 14:27:10.260101,599618664194274581,24.00
2025-06-26 14:27:10.260101,599618664194274581,34.00
2025-06-26 14:27:10.260101,599618664194274581,44.00
2025-06-26 14:27:10.260101,599618664194274581,48.00
2025-06-26 14:27:10.260101,599618664194274581,53.00
2025-06-26 14:27:10.260101,599618664194274581,58.00
2025-06-26 14:27:10.260101,599618664194274581,61.00
2025-06-26 14:27:10.260101,599618664194274581,63.00
2025-06-26 14:27:10.260101,599618664194274581,61.00
2025-06-26 14:27:10.260101,599618664194274581,48.00
2025-06-26 14:27:10.260101,599618664194274581,24.00
2025-06-26 14:27:10.260101,599618664194274581,-12.00
2025-06-26 14:27:10.260101,599618664194274581,-46.00
2025-06-26 14:27:10.260101,599618664194274581,-78.00
2025-06-26 14:27:10.260101,599618664194274581,-100.00
2025-06-26 14:27:10.260101,599618664194274581,-117.00
2025-06-26 14:27:10.260101,599618664194274581,-124.00
2025-06-26 14:27:10.260101,599618664194274581,-129.00
2025-06-26 14:27:10.260101,599618664194274581,-127.00
2025-06-26 14:27:10.260101,599618664194274581,-122.00
2025-06-26 14:27:10.260101,599618664194274581,-117.00
2025-06-26 14:27:10.260101,599618664194274581,-112.00
2025-06-26 14:27:10.260101,599618664194274581,-105.00
2025-06-26 14:27:10.709656,599618664754976710,-97.00
2025-06-26 14:27:10.709656,599618664754976710,-93.00
2025-06-26 14:27:10.709656,599618664754976710,-90.00
2025-06-26 14:27:10.709656,599618664754976710,-85.00
2025-06-26 14:27:10.709656,599618664754976710,-80.00
2025-06-26 14:27:10.709656,599618664754976710,-78.00
2025-06-26 14:27:10.709656,599618664754976710,-75.00
2025-06-26 14:27:10.709656,599618664754976710,-71.00
2025-06-26 14:27:10.709656,599618664754976710,-71.00
2025-06-26 14:27:10.709656,599618664754976710,-71.00
2025-06-26 14:27:10.709656,599618664754976710,-66.00
2025-06-26 14:27:10.709656,599618664754976710,-66.00
2025-06-26 14:27:10.709656,599618664754976710,-68.00
2025-06-26 14:27:10.709656,599618664754976710,-68.00
2025-06-26 14:27:10.709656,599618664754976710,-68.00
2025-06-26 14:27:10.709656,599618664754976710,-68.00
2025-06-26 14:27:10.709656,599618664754976710,-68.00
2025-06-26 14:27:10.709656,599618664754976710,-68.00
2025-06-26 14:27:10.709656,599618664754976710,-66.00
2025-06-26 14:27:10.709656,599618664754976710,-66.00
2025-06-26 14:27:10.709656,599618664754976710,-66.00
2025-06-26 14:27:10.709656,599618664754976710,-66.00
2025-06-26 14:27:10.709656,599618664754976710,-66.00
2025-06-26 14:27:10.709656,599618664754976710,-66.00
2025-06-26 14:27:10.709656,599618664754976710,-66.00
2025-06-26 14:27:10.709656,599618664754976710,-63.00
2025-06-26 14:27:10.709656,599618664754976710,-63.00
2025-06-26 14:27:10.709656,599618664754976710,-63.00
2025-06-26 14:27:10.709656,599618664754976710,-61.00
2025-06-26 14:27:10.709656,599618664754976710,-58.00
2025-06-26 14:27:10.709656,599618664754976710,-63.00
2025-06-26 14:27:10.709656,599618664754976710,-71.00
2025-06-26 14:27:10.709656,599618664754976710,-73.00
2025-06-26 14:27:10.709656,599618664754976710,-68.00
2025-06-26 14:27:10.709656,599618664754976710,-51.00
2025-06-26 14:27:10.709656,599618664754976710,-34.00
2025-06-26 14:27:10.709656,599618664754976710,-29.00
2025-06-26 14:27:10.709656,599618664754976710,-41.00
2025-06-26 14:27:10.709656,599618664754976710,-46.00
2025-06-26 14:27:10.709656,599618664754976710,-48.00
2025-06-26 14:27:10.709656,599618664754976710,-56.00
2025-06-26 14:27:10.709656,599618664754976710,-66.00
2025-06-26 14:27:10.709656,599618664754976710,-68.00
2025-06-26 14:27:10.709656,599618664754976710,-68.00
2025-06-26 14:27:10.709656,599618664754976710,-66.00
2025-06-26 14:27:10.709656,599618664754976710,-63.00
2025-06-26 14:27:10.709656,599618664754976710,-71.00
2025-06-26 14:27:10.709656,599618664754976710,-73.00
2025-06-26 14:27:10.709656,599618664754976710,0.00
2025-06-26 14:27:10.709656,599618664754976710,200.00
2025-06-26 14:27:10.709656,599618664754976710,470.00
2025-06-26 14:27:10.709656,599618664754976710,609.00
2025-06-26 14:27:10.709656,599618664754976710,399.00
2025-06-26 14:27:10.709656,599618664754976710,-58.00
2025-06-26 14:27:10.709656,599618664754976710,-286.00
2025-06-26 14:27:10.709656,599618664754976710,-127.00
2025-06-26 14:27:10.709656,599618664754976710,-29.00
2025-06-26 14:27:10.709656,599618664754976710,-110.00
2025-06-26 14:27:10.709656,599618664754976710,-115.00
2025-06-26 14:27:10.709656,599618664754976710,-71.00
2025-06-26 14:27:10.709656,599618664754976710,-80.00
2025-06-26 14:27:10.709656,599618664754976710,-80.00
2025-06-26 14:27:10.709656,599618664754976710,-56.00
2025-06-26 14:27:10.709656,599618664754976710,-48.00
2025-06-26 14:27:10.709656,599618664754976710,-46.00
2025-06-26 14:27:10.709656,599618664754976710,-36.00
2025-06-26 14:27:10.709656,599618664754976710,-26.00
2025-06-26 14:27:10.709656,599618664754976710,-22.00
2025-06-26 14:27:10.709656,599618664754976710,-12.00
2025-06-26 14:27:10.709656,599618664754976710,-2.00
2025-06-26 14:27:10.709656,599618664754976710,2.00
2025-06-26 14:27:10.709656,599618664754976710,12.00
2025-06-26 14:27:10.709656,599618664754976710,22.00
2025-06-26 14:27:11.340152,599618665315673753,29.00
2025-06-26 14:27:11.340152,599618665315673753,39.00
2025-06-26 14:27:11.340152,599618665315673753,48.00
2025-06-26 14:27:11.340152,599618665315673753,56.00
2025-06-26 14:27:11.340152,599618665315673753,63.00
2025-06-26 14:27:11.340152,599618665315673753,66.00
2025-06-26 14:27:11.340152,599618665315673753,68.00
2025-06-26 14:27:11.340152,599618665315673753,68.00
2025-06-26 14:27:11.340152,599618665315673753,63.00
2025-06-26 14:27:11.340152,599618665315673753,48.00
2025-06-26 14:27:11.340152,599618665315673753,19.00
2025-06-26 14:27:11.340152,599618665315673753,-14.00
2025-06-26 14:27:11.340152,599618665315673753,-48.00
2025-06-26 14:27:11.340152,599618665315673753,-78.00
2025-06-26 14:27:11.340152,599618665315673753,-102.00
2025-06-26 14:27:11.340152,599618665315673753,-120.00
2025-06-26 14:27:11.340152,599618665315673753,-127.00
2025-06-26 14:27:11.340152,599618665315673753,-129.00
2025-06-26 14:27:11.340152,599618665315673753,-129.00
2025-06-26 14:27:11.340152,599618665315673753,-124.00
2025-06-26 14:27:11.340152,599618665315673753,-122.00
2025-06-26 14:27:11.340152,599618665315673753,-117.00
2025-06-26 14:27:11.340152,599618665315673753,-110.00
2025-06-26 14:27:11.340152,599618665315673753,-102.00
2025-06-26 14:27:11.340152,599618665315673753,-97.00
2025-06-26 14:27:11.340152,599618665315673753,-93.00
2025-06-26 14:27:11.340152,599618665315673753,-90.00
2025-06-26 14:27:11.340152,599618665315673753,-88.00
2025-06-26 14:27:11.340152,599618665315673753,-85.00
2025-06-26 14:27:11.340152,599618665315673753,-83.00
2025-06-26 14:27:11.340152,599618665315673753,-80.00
2025-06-26 14:27:11.340152,599618665315673753,-78.00
2025-06-26 14:27:11.340152,599618665315673753,-78.00
2025-06-26 14:27:11.340152,599618665315673753,-78.00
2025-06-26 14:27:11.340152,599618665315673753,-75.00
2025-06-26 14:27:11.340152,599618665315673753,-75.00
2025-06-26 14:27:11.340152,599618665315673753,-78.00
2025-06-26 14:27:11.340152,599618665315673753,-75.00
2025-06-26 14:27:11.340152,599618665315673753,-73.00
2025-06-26 14:27:11.340152,599618665315673753,-75.00
2025-06-26 14:27:11.340152,599618665315673753,-75.00
2025-06-26 14:27:11.340152,599618665315673753,-75.00
2025-06-26 14:27:11.340152,599618665315673753,-75.00
2025-06-26 14:27:11.340152,599618665315673753,-73.00
2025-06-26 14:27:11.340152,599618665315673753,-73.00
2025-06-26 14:27:11.340152,599618665315673753,-73.00
2025-06-26 14:27:11.340152,599618665315673753,-71.00
2025-06-26 14:27:11.340152,599618665315673753,-71.00
2025-06-26 14:27:11.340152,599618665315673753,-71.00
2025-06-26 14:27:11.340152,599618665315673753,-68.00
2025-06-26 14:27:11.340152,599618665315673753,-66.00
2025-06-26 14:27:11.340152,599618665315673753,-66.00
2025-06-26 14:27:11.340152,599618665315673753,-63.00
2025-06-26 14:27:11.340152,599618665315673753,-66.00
2025-06-26 14:27:11.340152,599618665315673753,-71.00
2025-06-26 14:27:11.340152,599618665315673753,-68.00
2025-06-26 14:27:11.340152,599618665315673753,-61.00
2025-06-26 14:27:11.340152,599618665315673753,-44.00
2025-06-26 14:27:11.340152,599618665315673753,-24.00
2025-06-26 14:27:11.340152,599618665315673753,-24.00
2025-06-26 14:27:11.340152,599618665315673753,-36.00
2025-06-26 14:27:11.340152,599618665315673753,-39.00
2025-06-26 14:27:11.340152,599618665315673753,-41.00
2025-06-26 14:27:11.340152,599618665315673753,-51.00
2025-06-26 14:27:11.340152,599618665315673753,-56.00
2025-06-26 14:27:11.340152,599618665315673753,-58.00
2025-06-26 14:27:11.340152,599618665315673753,-58.00
2025-06-26 14:27:11.340152,599618665315673753,-56.00
2025-06-26 14:27:11.340152,599618665315673753,-56.00
2025-06-26 14:27:11.340152,599618665315673753,-63.00
2025-06-26 14:27:11.340152,599618665315673753,-51.00
2025-06-26 14:27:11.340152,599618665315673753,53.00
2025-06-26 14:27:11.340152,599618665315673753,281.00
2025-06-26 14:27:11.880575,599618665876370794,538.00
2025-06-26 14:27:11.880575,599618665876370794,609.00
2025-06-26 14:27:11.880575,599618665876370794,315.00
2025-06-26 14:27:11.880575,599618665876370794,-134.00
2025-06-26 14:27:11.880575,599618665876370794,-262.00
2025-06-26 14:27:11.880575,599618665876370794,-80.00
2025-06-26 14:27:11.880575,599618665876370794,-39.00
2025-06-26 14:27:11.880575,599618665876370794,-117.00
2025-06-26 14:27:11.880575,599618665876370794,-100.00
2025-06-26 14:27:11.880575,599618665876370794,-68.00
2025-06-26 14:27:11.880575,599618665876370794,-80.00
2025-06-26 14:27:11.880575,599618665876370794,-73.00
2025-06-26 14:27:11.880575,599618665876370794,-51.00
2025-06-26 14:27:11.880575,599618665876370794,-46.00
2025-06-26 14:27:11.880575,599618665876370794,-44.00
2025-06-26 14:27:11.880575,599618665876370794,-31.00
2025-06-26 14:27:11.880575,599618665876370794,-24.00
2025-06-26 14:27:11.880575,599618665876370794,-19.00
2025-06-26 14:27:11.880575,599618665876370794,-12.00
2025-06-26 14:27:11.880575,599618665876370794,-2.00
2025-06-26 14:27:11.880575,599618665876370794,7.00
2025-06-26 14:27:11.880575,599618665876370794,14.00
2025-06-26 14:27:11.880575,599618665876370794,22.00
2025-06-26 14:27:11.880575,599618665876370794,31.00
2025-06-26 14:27:11.880575,599618665876370794,39.00
2025-06-26 14:27:11.880575,599618665876370794,46.00
2025-06-26 14:27:11.880575,599618665876370794,53.00
2025-06-26 14:27:11.880575,599618665876370794,58.00
2025-06-26 14:27:11.880575,599618665876370794,61.00
2025-06-26 14:27:11.880575,599618665876370794,61.00
2025-06-26 14:27:11.880575,599618665876370794,61.00
2025-06-26 14:27:11.880575,599618665876370794,51.00
2025-06-26 14:27:11.880575,599618665876370794,31.00
2025-06-26 14:27:11.880575,599618665876370794,-2.00
2025-06-26 14:27:11.880575,599618665876370794,-41.00
2025-06-26 14:27:11.880575,599618665876370794,-78.00
2025-06-26 14:27:11.880575,599618665876370794,-112.00
2025-06-26 14:27:11.880575,599618665876370794,-134.00
2025-06-26 14:27:11.880575,599618665876370794,-146.00
2025-06-26 14:27:11.880575,599618665876370794,-151.00
2025-06-26 14:27:11.880575,599618665876370794,-154.00
2025-06-26 14:27:11.880575,599618665876370794,-151.00
2025-06-26 14:27:11.880575,599618665876370794,-149.00
2025-06-26 14:27:11.880575,599618665876370794,-144.00
2025-06-26 14:27:11.880575,599618665876370794,-137.00
2025-06-26 14:27:11.880575,599618665876370794,-132.00
2025-06-26 14:27:11.880575,599618665876370794,-127.00
2025-06-26 14:27:11.880575,599618665876370794,-122.00
2025-06-26 14:27:11.880575,599618665876370794,-115.00
2025-06-26 14:27:11.880575,599618665876370794,-110.00
2025-06-26 14:27:11.880575,599618665876370794,-107.00
2025-06-26 14:27:11.880575,599618665876370794,-102.00
2025-06-26 14:27:11.880575,599618665876370794,-100.00
2025-06-26 14:27:11.880575,599618665876370794,-100.00
2025-06-26 14:27:11.880575,599618665876370794,-97.00
2025-06-26 14:27:11.880575,599618665876370794,-97.00
2025-06-26 14:27:11.880575,599618665876370794,-95.00
2025-06-26 14:27:11.880575,599618665876370794,-95.00
2025-06-26 14:27:11.880575,599618665876370794,-95.00
2025-06-26 14:27:11.880575,599618665876370794,-93.00
2025-06-26 14:27:11.880575,599618665876370794,-93.00
2025-06-26 14:27:11.880575,599618665876370794,-93.00
2025-06-26 14:27:11.880575,599618665876370794,-90.00
2025-06-26 14:27:11.880575,599618665876370794,-90.00
2025-06-26 14:27:11.880575,599618665876370794,-90.00
2025-06-26 14:27:11.880575,599618665876370794,-90.00
2025-06-26 14:27:11.880575,599618665876370794,-90.00
2025-06-26 14:27:11.880575,599618665876370794,-88.00
2025-06-26 14:27:11.880575,599618665876370794,-85.00
2025-06-26 14:27:11.880575,599618665876370794,-85.00
2025-06-26 14:27:11.880575,599618665876370794,-83.00
2025-06-26 14:27:11.880575,599618665876370794,-83.00
2025-06-26 14:27:11.880575,599618665876370794,-80.00
2025-06-26 14:27:12.420334,599618666437067835,-78.00
2025-06-26 14:27:12.420334,599618666437067835,-78.00
2025-06-26 14:27:12.420334,599618666437067835,-80.00
2025-06-26 14:27:12.420334,599618666437067835,-85.00
2025-06-26 14:27:12.420334,599618666437067835,-85.00
2025-06-26 14:27:12.420334,599618666437067835,-75.00
2025-06-26 14:27:12.420334,599618666437067835,-53.00
2025-06-26 14:27:12.420334,599618666437067835,-36.00
2025-06-26 14:27:12.420334,599618666437067835,-44.00
2025-06-26 14:27:12.420334,599618666437067835,-53.00
2025-06-26 14:27:12.420334,599618666437067835,-53.00
2025-06-26 14:27:12.420334,599618666437067835,-58.00
2025-06-26 14:27:12.420334,599618666437067835,-68.00
2025-06-26 14:27:12.420334,599618666437067835,-71.00
2025-06-26 14:27:12.420334,599618666437067835,-71.00
2025-06-26 14:27:12.420334,599618666437067835,-71.00
2025-06-26 14:27:12.420334,599618666437067835,-68.00
2025-06-26 14:27:12.420334,599618666437067835,-68.00
2025-06-26 14:27:12.420334,599618666437067835,-78.00
2025-06-26 14:27:12.420334,599618666437067835,-61.00
2025-06-26 14:27:12.420334,599618666437067835,58.00
2025-06-26 14:27:12.420334,599618666437067835,298.00
2025-06-26 14:27:12.420334,599618666437067835,553.00
2025-06-26 14:27:12.420334,599618666437067835,597.00
2025-06-26 14:27:12.420334,599618666437067835,262.00
2025-06-26 14:27:12.420334,599618666437067835,-186.00
2025-06-26 14:27:12.420334,599618666437067835,-257.00
2025-06-26 14:27:12.420334,599618666437067835,-71.00
2025-06-26 14:27:12.420334,599618666437067835,-56.00
2025-06-26 14:27:12.420334,599618666437067835,-134.00
2025-06-26 14:27:12.420334,599618666437067835,-107.00
2025-06-26 14:27:12.420334,599618666437067835,-78.00
2025-06-26 14:27:12.420334,599618666437067835,-93.00
2025-06-26 14:27:12.420334,599618666437067835,-80.00
2025-06-26 14:27:12.420334,599618666437067835,-63.00
2025-06-26 14:27:12.420334,599618666437067835,-63.00
2025-06-26 14:27:12.420334,599618666437067835,-56.00
2025-06-26 14:27:12.420334,599618666437067835,-41.00
2025-06-26 14:27:12.420334,599618666437067835,-36.00
2025-06-26 14:27:12.420334,599618666437067835,-29.00
2025-06-26 14:27:12.420334,599618666437067835,-17.00
2025-06-26 14:27:12.420334,599618666437067835,-7.00
2025-06-26 14:27:12.420334,599618666437067835,-2.00
2025-06-26 14:27:12.420334,599618666437067835,9.00
2025-06-26 14:27:12.420334,599618666437067835,19.00
2025-06-26 14:27:12.420334,599618666437067835,29.00
2025-06-26 14:27:12.420334,599618666437067835,39.00
2025-06-26 14:27:12.420334,599618666437067835,48.00
2025-06-26 14:27:12.420334,599618666437067835,56.00
2025-06-26 14:27:12.420334,599618666437067835,61.00
2025-06-26 14:27:12.420334,599618666437067835,66.00
2025-06-26 14:27:12.420334,599618666437067835,68.00
2025-06-26 14:27:12.420334,599618666437067835,66.00
2025-06-26 14:27:12.420334,599618666437067835,56.00
2025-06-26 14:27:12.420334,599618666437067835,29.00
2025-06-26 14:27:12.420334,599618666437067835,-7.00
2025-06-26 14:27:12.420334,599618666437067835,-46.00
2025-06-26 14:27:12.420334,599618666437067835,-83.00
2025-06-26 14:27:12.420334,599618666437067835,-112.00
2025-06-26 14:27:12.420334,599618666437067835,-132.00
2025-06-26 14:27:12.420334,599618666437067835,-142.00
2025-06-26 14:27:12.420334,599618666437067835,-146.00
2025-06-26 14:27:12.420334,599618666437067835,-146.00
2025-06-26 14:27:12.420334,599618666437067835,-144.00
2025-06-26 14:27:12.420334,599618666437067835,-142.00
2025-06-26 14:27:12.420334,599618666437067835,-137.00
2025-06-26 14:27:12.420334,599618666437067835,-129.00
2025-06-26 14:27:12.420334,599618666437067835,-124.00
2025-06-26 14:27:12.420334,599618666437067835,-117.00
2025-06-26 14:27:12.420334,599618666437067835,-112.00
2025-06-26 14:27:12.420334,599618666437067835,-107.00
2025-06-26 14:27:12.420334,599618666437067835,-102.00
2025-06-26 14:27:12.420334,599618666437067835,-97.00
2025-06-26 14:27:12.989754,599618666997795394,-95.00
2025-06-26 14:27:12.989754,599618666997795394,-93.00
2025-06-26 14:27:12.989754,599618666997795394,-90.00
2025-06-26 14:27:12.989754,599618666997795394,-88.00
2025-06-26 14:27:12.989754,599618666997795394,-88.00
2025-06-26 14:27:12.989754,599618666997795394,-85.00
2025-06-26 14:27:12.989754,599618666997795394,-83.00
2025-06-26 14:27:12.989754,599618666997795394,-83.00
2025-06-26 14:27:12.989754,599618666997795394,-83.00
2025-06-26 14:27:12.989754,599618666997795394,-83.00
2025-06-26 14:27:12.989754,599618666997795394,-83.00
2025-06-26 14:27:12.989754,599618666997795394,-83.00
2025-06-26 14:27:12.989754,599618666997795394,-80.00
2025-06-26 14:27:12.989754,599618666997795394,-80.00
2025-06-26 14:27:12.989754,599618666997795394,-83.00
2025-06-26 14:27:12.989754,599618666997795394,-83.00
2025-06-26 14:27:12.989754,599618666997795394,-80.00
2025-06-26 14:27:12.989754,599618666997795394,-78.00
2025-06-26 14:27:12.989754,599618666997795394,-78.00
2025-06-26 14:27:12.989754,599618666997795394,-78.00
2025-06-26 14:27:12.989754,599618666997795394,-78.00
2025-06-26 14:27:12.989754,599618666997795394,-75.00
2025-06-26 14:27:12.989754,599618666997795394,-75.00
2025-06-26 14:27:12.989754,599618666997795394,-75.00
2025-06-26 14:27:12.989754,599618666997795394,-71.00
2025-06-26 14:27:12.989754,599618666997795394,-71.00
2025-06-26 14:27:12.989754,599618666997795394,-71.00
2025-06-26 14:27:12.989754,599618666997795394,-68.00
2025-06-26 14:27:12.989754,599618666997795394,-68.00
2025-06-26 14:27:12.989754,599618666997795394,-68.00
2025-06-26 14:27:12.989754,599618666997795394,-71.00
2025-06-26 14:27:12.989754,599618666997795394,-73.00
2025-06-26 14:27:12.989754,599618666997795394,-73.00
2025-06-26 14:27:12.989754,599618666997795394,-66.00
2025-06-26 14:27:12.989754,599618666997795394,-46.00
2025-06-26 14:27:12.989754,599618666997795394,-24.00
2025-06-26 14:27:12.989754,599618666997795394,-26.00
2025-06-26 14:27:12.989754,599618666997795394,-44.00
2025-06-26 14:27:12.989754,599618666997795394,-48.00
2025-06-26 14:27:12.989754,599618666997795394,-48.00
2025-06-26 14:27:12.989754,599618666997795394,-61.00
2025-06-26 14:27:12.989754,599618666997795394,-66.00
2025-06-26 14:27:12.989754,599618666997795394,-68.00
2025-06-26 14:27:12.989754,599618666997795394,-71.00
2025-06-26 14:27:12.989754,599618666997795394,-71.00
2025-06-26 14:27:12.989754,599618666997795394,-68.00
2025-06-26 14:27:12.989754,599618666997795394,-73.00
2025-06-26 14:27:12.989754,599618666997795394,-73.00
2025-06-26 14:27:12.989754,599618666997795394,2.00
2025-06-26 14:27:12.989754,599618666997795394,198.00
2025-06-26 14:27:12.989754,599618666997795394,465.00
2025-06-26 14:27:12.989754,599618666997795394,622.00
2025-06-26 14:27:12.989754,599618666997795394,448.00
2025-06-26 14:27:12.989754,599618666997795394,-19.00
2025-06-26 14:27:12.989754,599618666997795394,-286.00
2025-06-26 14:27:12.989754,599618666997795394,-137.00
2025-06-26 14:27:12.989754,599618666997795394,-22.00
2025-06-26 14:27:12.989754,599618666997795394,-112.00
2025-06-26 14:27:12.989754,599618666997795394,-124.00
2025-06-26 14:27:12.989754,599618666997795394,-75.00
2025-06-26 14:27:12.989754,599618666997795394,-85.00
2025-06-26 14:27:12.989754,599618666997795394,-93.00
2025-06-26 14:27:12.989754,599618666997795394,-68.00
2025-06-26 14:27:12.989754,599618666997795394,-61.00
2025-06-26 14:27:12.989754,599618666997795394,-61.00
2025-06-26 14:27:12.989754,599618666997795394,-46.00
2025-06-26 14:27:12.989754,599618666997795394,-36.00
2025-06-26 14:27:12.989754,599618666997795394,-31.00
2025-06-26 14:27:12.989754,599618666997795394,-24.00
2025-06-26 14:27:12.989754,599618666997795394,-14.00
2025-06-26 14:27:12.989754,599618666997795394,-7.00
2025-06-26 14:27:12.989754,599618666997795394,2.00
2025-06-26 14:27:12.989754,599618666997795394,12.00
2025-06-26 14:27:13.561297,599618667558492435,22.00
2025-06-26 14:27:13.561297,599618667558492435,31.00
2025-06-26 14:27:13.561297,599618667558492435,39.00
2025-06-26 14:27:13.561297,599618667558492435,48.00
2025-06-26 14:27:13.561297,599618667558492435,56.00
2025-06-26 14:27:13.561297,599618667558492435,61.00
2025-06-26 14:27:13.561297,599618667558492435,63.00
2025-06-26 14:27:13.561297,599618667558492435,66.00
2025-06-26 14:27:13.561297,599618667558492435,66.00
2025-06-26 14:27:13.561297,599618667558492435,53.00
2025-06-26 14:27:13.561297,599618667558492435,26.00
2025-06-26 14:27:13.561297,599618667558492435,-12.00
2025-06-26 14:27:13.561297,599618667558492435,-48.00
2025-06-26 14:27:13.561297,599618667558492435,-83.00
2025-06-26 14:27:13.561297,599618667558492435,-110.00
2025-06-26 14:27:13.561297,599618667558492435,-127.00
2025-06-26 14:27:13.561297,599618667558492435,-137.00
2025-06-26 14:27:13.561297,599618667558492435,-142.00
2025-06-26 14:27:13.561297,599618667558492435,-142.00
2025-06-26 14:27:13.561297,599618667558492435,-142.00
2025-06-26 14:27:13.561297,599618667558492435,-139.00
2025-06-26 14:27:13.561297,599618667558492435,-134.00
2025-06-26 14:27:13.561297,599618667558492435,-129.00
2025-06-26 14:27:13.561297,599618667558492435,-122.00
2025-06-26 14:27:13.561297,599618667558492435,-117.00
2025-06-26 14:27:13.561297,599618667558492435,-112.00
2025-06-26 14:27:13.561297,599618667558492435,-107.00
2025-06-26 14:27:13.561297,599618667558492435,-102.00
2025-06-26 14:27:13.561297,599618667558492435,-97.00
