Timestamp,Device Timestamp (ns),ECG Value (uV)
2025-06-26 14:14:13.609288,599617887633394086,-58.00
2025-06-26 14:14:13.609288,599617887633394086,-58.00
2025-06-26 14:14:13.609288,599617887633394086,-58.00
2025-06-26 14:14:13.609288,599617887633394086,-61.00
2025-06-26 14:14:13.609288,599617887633394086,-61.00
2025-06-26 14:14:13.609288,599617887633394086,-58.00
2025-06-26 14:14:13.609288,599617887633394086,-41.00
2025-06-26 14:14:13.609288,599617887633394086,-17.00
2025-06-26 14:14:13.609288,599617887633394086,-7.00
2025-06-26 14:14:13.609288,599617887633394086,-19.00
2025-06-26 14:14:13.609288,599617887633394086,-26.00
2025-06-26 14:14:13.609288,599617887633394086,-29.00
2025-06-26 14:14:13.609288,599617887633394086,-39.00
2025-06-26 14:14:13.609288,599617887633394086,-44.00
2025-06-26 14:14:13.609288,599617887633394086,-46.00
2025-06-26 14:14:13.609288,599617887633394086,-48.00
2025-06-26 14:14:13.609288,599617887633394086,-46.00
2025-06-26 14:14:13.609288,599617887633394086,-41.00
2025-06-26 14:14:13.609288,599617887633394086,-46.00
2025-06-26 14:14:13.609288,599617887633394086,-56.00
2025-06-26 14:14:13.609288,599617887633394086,-24.00
2025-06-26 14:14:13.609288,599617887633394086,132.00
2025-06-26 14:14:13.609288,599617887633394086,404.00
2025-06-26 14:14:13.609288,599617887633394086,651.00
2025-06-26 14:14:13.609288,599617887633394086,619.00
2025-06-26 14:14:13.609288,599617887633394086,191.00
2025-06-26 14:14:13.609288,599617887633394086,-232.00
2025-06-26 14:14:13.609288,599617887633394086,-193.00
2025-06-26 14:14:13.609288,599617887633394086,-14.00
2025-06-26 14:14:13.609288,599617887633394086,-66.00
2025-06-26 14:14:13.609288,599617887633394086,-120.00
2025-06-26 14:14:13.609288,599617887633394086,-71.00
2025-06-26 14:14:13.609288,599617887633394086,-63.00
2025-06-26 14:14:13.609288,599617887633394086,-80.00
2025-06-26 14:14:13.609288,599617887633394086,-61.00
2025-06-26 14:14:13.609288,599617887633394086,-46.00
2025-06-26 14:14:13.609288,599617887633394086,-48.00
2025-06-26 14:14:13.609288,599617887633394086,-39.00
2025-06-26 14:14:13.609288,599617887633394086,-26.00
2025-06-26 14:14:13.609288,599617887633394086,-24.00
2025-06-26 14:14:13.609288,599617887633394086,-17.00
2025-06-26 14:14:13.609288,599617887633394086,-7.00
2025-06-26 14:14:13.609288,599617887633394086,0.00
2025-06-26 14:14:13.609288,599617887633394086,7.00
2025-06-26 14:14:13.609288,599617887633394086,17.00
2025-06-26 14:14:13.609288,599617887633394086,26.00
2025-06-26 14:14:13.609288,599617887633394086,39.00
2025-06-26 14:14:13.609288,599617887633394086,48.00
2025-06-26 14:14:13.609288,599617887633394086,58.00
2025-06-26 14:14:13.609288,599617887633394086,71.00
2025-06-26 14:14:13.609288,599617887633394086,78.00
2025-06-26 14:14:13.609288,599617887633394086,80.00
2025-06-26 14:14:13.609288,599617887633394086,85.00
2025-06-26 14:14:13.609288,599617887633394086,85.00
2025-06-26 14:14:13.609288,599617887633394086,73.00
2025-06-26 14:14:13.609288,599617887633394086,48.00
2025-06-26 14:14:13.609288,599617887633394086,9.00
2025-06-26 14:14:13.609288,599617887633394086,-34.00
2025-06-26 14:14:13.609288,599617887633394086,-75.00
2025-06-26 14:14:13.609288,599617887633394086,-107.00
2025-06-26 14:14:13.609288,599617887633394086,-129.00
2025-06-26 14:14:13.609288,599617887633394086,-139.00
2025-06-26 14:14:13.609288,599617887633394086,-144.00
2025-06-26 14:14:13.609288,599617887633394086,-146.00
2025-06-26 14:14:13.609288,599617887633394086,-144.00
2025-06-26 14:14:13.609288,599617887633394086,-139.00
2025-06-26 14:14:13.609288,599617887633394086,-134.00
2025-06-26 14:14:13.609288,599617887633394086,-129.00
2025-06-26 14:14:13.609288,599617887633394086,-122.00
2025-06-26 14:14:13.609288,599617887633394086,-120.00
2025-06-26 14:14:13.609288,599617887633394086,-112.00
2025-06-26 14:14:13.609288,599617887633394086,-107.00
2025-06-26 14:14:13.609288,599617887633394086,-105.00
2025-06-26 14:14:14.206808,599617888194060611,-102.00
2025-06-26 14:14:14.206808,599617888194060611,-97.00
2025-06-26 14:14:14.206808,599617888194060611,-95.00
2025-06-26 14:14:14.206808,599617888194060611,-93.00
2025-06-26 14:14:14.206808,599617888194060611,-88.00
2025-06-26 14:14:14.206808,599617888194060611,-85.00
2025-06-26 14:14:14.206808,599617888194060611,-85.00
2025-06-26 14:14:14.206808,599617888194060611,-85.00
2025-06-26 14:14:14.206808,599617888194060611,-83.00
2025-06-26 14:14:14.206808,599617888194060611,-83.00
2025-06-26 14:14:14.206808,599617888194060611,-83.00
2025-06-26 14:14:14.206808,599617888194060611,-83.00
2025-06-26 14:14:14.206808,599617888194060611,-83.00
2025-06-26 14:14:14.206808,599617888194060611,-83.00
2025-06-26 14:14:14.206808,599617888194060611,-78.00
2025-06-26 14:14:14.206808,599617888194060611,-78.00
2025-06-26 14:14:14.206808,599617888194060611,-80.00
2025-06-26 14:14:14.206808,599617888194060611,-78.00
2025-06-26 14:14:14.206808,599617888194060611,-73.00
2025-06-26 14:14:14.206808,599617888194060611,-75.00
2025-06-26 14:14:14.206808,599617888194060611,-78.00
2025-06-26 14:14:14.206808,599617888194060611,-75.00
2025-06-26 14:14:14.206808,599617888194060611,-73.00
2025-06-26 14:14:14.206808,599617888194060611,-71.00
2025-06-26 14:14:14.206808,599617888194060611,-71.00
2025-06-26 14:14:14.206808,599617888194060611,-73.00
2025-06-26 14:14:14.206808,599617888194060611,-71.00
2025-06-26 14:14:14.206808,599617888194060611,-68.00
2025-06-26 14:14:14.206808,599617888194060611,-66.00
2025-06-26 14:14:14.206808,599617888194060611,-68.00
2025-06-26 14:14:14.206808,599617888194060611,-73.00
2025-06-26 14:14:14.206808,599617888194060611,-75.00
2025-06-26 14:14:14.206808,599617888194060611,-71.00
2025-06-26 14:14:14.206808,599617888194060611,-53.00
2025-06-26 14:14:14.206808,599617888194060611,-31.00
2025-06-26 14:14:14.206808,599617888194060611,-24.00
2025-06-26 14:14:14.206808,599617888194060611,-39.00
2025-06-26 14:14:14.206808,599617888194060611,-48.00
2025-06-26 14:14:14.206808,599617888194060611,-51.00
2025-06-26 14:14:14.206808,599617888194060611,-56.00
2025-06-26 14:14:14.206808,599617888194060611,-61.00
2025-06-26 14:14:14.206808,599617888194060611,-68.00
2025-06-26 14:14:14.206808,599617888194060611,-71.00
2025-06-26 14:14:14.206808,599617888194060611,-66.00
2025-06-26 14:14:14.206808,599617888194060611,-61.00
2025-06-26 14:14:14.206808,599617888194060611,-61.00
2025-06-26 14:14:14.206808,599617888194060611,-68.00
2025-06-26 14:14:14.206808,599617888194060611,-41.00
2025-06-26 14:14:14.206808,599617888194060611,90.00
2025-06-26 14:14:14.206808,599617888194060611,335.00
2025-06-26 14:14:14.206808,599617888194060611,587.00
2025-06-26 14:14:14.206808,599617888194060611,622.00
2025-06-26 14:14:14.206808,599617888194060611,267.00
2025-06-26 14:14:14.206808,599617888194060611,-186.00
2025-06-26 14:14:14.206808,599617888194060611,-230.00
2025-06-26 14:14:14.206808,599617888194060611,-41.00
2025-06-26 14:14:14.206808,599617888194060611,-56.00
2025-06-26 14:14:14.206808,599617888194060611,-134.00
2025-06-26 14:14:14.206808,599617888194060611,-95.00
2025-06-26 14:14:14.206808,599617888194060611,-75.00
2025-06-26 14:14:14.206808,599617888194060611,-93.00
2025-06-26 14:14:14.206808,599617888194060611,-78.00
2025-06-26 14:14:14.206808,599617888194060611,-61.00
2025-06-26 14:14:14.206808,599617888194060611,-61.00
2025-06-26 14:14:14.206808,599617888194060611,-53.00
2025-06-26 14:14:14.206808,599617888194060611,-44.00
2025-06-26 14:14:14.206808,599617888194060611,-36.00
2025-06-26 14:14:14.206808,599617888194060611,-29.00
2025-06-26 14:14:14.206808,599617888194060611,-19.00
2025-06-26 14:14:14.206808,599617888194060611,-14.00
2025-06-26 14:14:14.206808,599617888194060611,-7.00
2025-06-26 14:14:14.206808,599617888194060611,2.00
2025-06-26 14:14:14.206808,599617888194060611,12.00
2025-06-26 14:14:14.777511,599617888754757652,19.00
2025-06-26 14:14:14.777511,599617888754757652,31.00
2025-06-26 14:14:14.777511,599617888754757652,44.00
2025-06-26 14:14:14.777511,599617888754757652,51.00
2025-06-26 14:14:14.777511,599617888754757652,58.00
2025-06-26 14:14:14.777511,599617888754757652,68.00
2025-06-26 14:14:14.777511,599617888754757652,73.00
2025-06-26 14:14:14.777511,599617888754757652,71.00
2025-06-26 14:14:14.777511,599617888754757652,66.00
2025-06-26 14:14:14.777511,599617888754757652,53.00
2025-06-26 14:14:14.777511,599617888754757652,29.00
2025-06-26 14:14:14.777511,599617888754757652,-9.00
2025-06-26 14:14:14.777511,599617888754757652,-53.00
2025-06-26 14:14:14.777511,599617888754757652,-90.00
2025-06-26 14:14:14.777511,599617888754757652,-115.00
2025-06-26 14:14:14.777511,599617888754757652,-132.00
2025-06-26 14:14:14.777511,599617888754757652,-144.00
2025-06-26 14:14:14.777511,599617888754757652,-146.00
2025-06-26 14:14:14.777511,599617888754757652,-146.00
2025-06-26 14:14:14.777511,599617888754757652,-144.00
2025-06-26 14:14:14.777511,599617888754757652,-139.00
2025-06-26 14:14:14.777511,599617888754757652,-132.00
2025-06-26 14:14:14.777511,599617888754757652,-127.00
2025-06-26 14:14:14.777511,599617888754757652,-120.00
2025-06-26 14:14:14.777511,599617888754757652,-115.00
2025-06-26 14:14:14.777511,599617888754757652,-110.00
2025-06-26 14:14:14.777511,599617888754757652,-102.00
2025-06-26 14:14:14.777511,599617888754757652,-97.00
2025-06-26 14:14:14.777511,599617888754757652,-95.00
2025-06-26 14:14:14.777511,599617888754757652,-93.00
2025-06-26 14:14:14.777511,599617888754757652,-88.00
2025-06-26 14:14:14.777511,599617888754757652,-88.00
2025-06-26 14:14:14.777511,599617888754757652,-88.00
2025-06-26 14:14:14.777511,599617888754757652,-83.00
2025-06-26 14:14:14.777511,599617888754757652,-80.00
2025-06-26 14:14:14.777511,599617888754757652,-80.00
2025-06-26 14:14:14.777511,599617888754757652,-80.00
2025-06-26 14:14:14.777511,599617888754757652,-78.00
2025-06-26 14:14:14.777511,599617888754757652,-78.00
2025-06-26 14:14:14.777511,599617888754757652,-78.00
2025-06-26 14:14:14.777511,599617888754757652,-75.00
2025-06-26 14:14:14.777511,599617888754757652,-73.00
2025-06-26 14:14:14.777511,599617888754757652,-73.00
2025-06-26 14:14:14.777511,599617888754757652,-73.00
2025-06-26 14:14:14.777511,599617888754757652,-68.00
2025-06-26 14:14:14.777511,599617888754757652,-66.00
2025-06-26 14:14:14.777511,599617888754757652,-66.00
2025-06-26 14:14:14.777511,599617888754757652,-66.00
2025-06-26 14:14:14.777511,599617888754757652,-63.00
2025-06-26 14:14:14.777511,599617888754757652,-61.00
2025-06-26 14:14:14.777511,599617888754757652,-61.00
2025-06-26 14:14:14.777511,599617888754757652,-63.00
2025-06-26 14:14:14.777511,599617888754757652,-61.00
2025-06-26 14:14:14.777511,599617888754757652,-56.00
2025-06-26 14:14:14.777511,599617888754757652,-44.00
2025-06-26 14:14:14.777511,599617888754757652,-19.00
2025-06-26 14:14:14.777511,599617888754757652,-9.00
2025-06-26 14:14:14.777511,599617888754757652,-24.00
2025-06-26 14:14:14.777511,599617888754757652,-36.00
2025-06-26 14:14:14.777511,599617888754757652,-39.00
2025-06-26 14:14:14.777511,599617888754757652,-44.00
2025-06-26 14:14:14.777511,599617888754757652,-48.00
2025-06-26 14:14:14.777511,599617888754757652,-48.00
2025-06-26 14:14:14.777511,599617888754757652,-51.00
2025-06-26 14:14:14.777511,599617888754757652,-51.00
2025-06-26 14:14:14.777511,599617888754757652,-46.00
2025-06-26 14:14:14.777511,599617888754757652,-44.00
2025-06-26 14:14:14.777511,599617888754757652,-51.00
2025-06-26 14:14:14.777511,599617888754757652,-46.00
2025-06-26 14:14:14.777511,599617888754757652,36.00
2025-06-26 14:14:14.777511,599617888754757652,247.00
2025-06-26 14:14:14.777511,599617888754757652,524.00
2025-06-26 14:14:14.777511,599617888754757652,678.00
2025-06-26 14:14:15.317725,599617889315424175,470.00
2025-06-26 14:14:15.317725,599617889315424175,-17.00
2025-06-26 14:14:15.317725,599617889315424175,-262.00
2025-06-26 14:14:15.317725,599617889315424175,-97.00
2025-06-26 14:14:15.317725,599617889315424175,-7.00
2025-06-26 14:14:15.317725,599617889315424175,-97.00
2025-06-26 14:14:15.317725,599617889315424175,-95.00
2025-06-26 14:14:15.317725,599617889315424175,-48.00
2025-06-26 14:14:15.317725,599617889315424175,-63.00
2025-06-26 14:14:15.317725,599617889315424175,-66.00
2025-06-26 14:14:15.317725,599617889315424175,-39.00
2025-06-26 14:14:15.317725,599617889315424175,-34.00
2025-06-26 14:14:15.317725,599617889315424175,-36.00
2025-06-26 14:14:15.317725,599617889315424175,-24.00
2025-06-26 14:14:15.317725,599617889315424175,-12.00
2025-06-26 14:14:15.317725,599617889315424175,-7.00
2025-06-26 14:14:15.317725,599617889315424175,0.00
2025-06-26 14:14:15.317725,599617889315424175,9.00
2025-06-26 14:14:15.317725,599617889315424175,19.00
2025-06-26 14:14:15.317725,599617889315424175,29.00
2025-06-26 14:14:15.317725,599617889315424175,36.00
2025-06-26 14:14:15.317725,599617889315424175,48.00
2025-06-26 14:14:15.317725,599617889315424175,61.00
2025-06-26 14:14:15.317725,599617889315424175,71.00
2025-06-26 14:14:15.317725,599617889315424175,78.00
2025-06-26 14:14:15.317725,599617889315424175,90.00
2025-06-26 14:14:15.317725,599617889315424175,95.00
2025-06-26 14:14:15.317725,599617889315424175,100.00
2025-06-26 14:14:15.317725,599617889315424175,102.00
2025-06-26 14:14:15.317725,599617889315424175,97.00
2025-06-26 14:14:15.317725,599617889315424175,83.00
2025-06-26 14:14:15.317725,599617889315424175,51.00
2025-06-26 14:14:15.317725,599617889315424175,7.00
2025-06-26 14:14:15.317725,599617889315424175,-36.00
2025-06-26 14:14:15.317725,599617889315424175,-71.00
2025-06-26 14:14:15.317725,599617889315424175,-97.00
2025-06-26 14:14:15.317725,599617889315424175,-115.00
2025-06-26 14:14:15.317725,599617889315424175,-124.00
2025-06-26 14:14:15.317725,599617889315424175,-124.00
2025-06-26 14:14:15.317725,599617889315424175,-124.00
2025-06-26 14:14:15.317725,599617889315424175,-122.00
2025-06-26 14:14:15.317725,599617889315424175,-120.00
2025-06-26 14:14:15.317725,599617889315424175,-115.00
2025-06-26 14:14:15.317725,599617889315424175,-110.00
2025-06-26 14:14:15.317725,599617889315424175,-100.00
2025-06-26 14:14:15.317725,599617889315424175,-95.00
2025-06-26 14:14:15.317725,599617889315424175,-90.00
2025-06-26 14:14:15.317725,599617889315424175,-88.00
2025-06-26 14:14:15.317725,599617889315424175,-83.00
2025-06-26 14:14:15.317725,599617889315424175,-78.00
2025-06-26 14:14:15.317725,599617889315424175,-75.00
2025-06-26 14:14:15.317725,599617889315424175,-73.00
2025-06-26 14:14:15.317725,599617889315424175,-71.00
2025-06-26 14:14:15.317725,599617889315424175,-66.00
2025-06-26 14:14:15.317725,599617889315424175,-66.00
2025-06-26 14:14:15.317725,599617889315424175,-66.00
2025-06-26 14:14:15.317725,599617889315424175,-63.00
2025-06-26 14:14:15.317725,599617889315424175,-61.00
2025-06-26 14:14:15.317725,599617889315424175,-61.00
2025-06-26 14:14:15.317725,599617889315424175,-61.00
2025-06-26 14:14:15.317725,599617889315424175,-61.00
2025-06-26 14:14:15.317725,599617889315424175,-61.00
2025-06-26 14:14:15.317725,599617889315424175,-61.00
2025-06-26 14:14:15.317725,599617889315424175,-58.00
2025-06-26 14:14:15.317725,599617889315424175,-58.00
2025-06-26 14:14:15.317725,599617889315424175,-58.00
2025-06-26 14:14:15.317725,599617889315424175,-56.00
2025-06-26 14:14:15.317725,599617889315424175,-53.00
2025-06-26 14:14:15.317725,599617889315424175,-51.00
2025-06-26 14:14:15.317725,599617889315424175,-53.00
2025-06-26 14:14:15.317725,599617889315424175,-51.00
2025-06-26 14:14:15.317725,599617889315424175,-48.00
2025-06-26 14:14:15.317725,599617889315424175,-51.00
2025-06-26 14:14:15.918315,599617889876090698,-48.00
2025-06-26 14:14:15.918315,599617889876090698,-48.00
2025-06-26 14:14:15.918315,599617889876090698,-48.00
2025-06-26 14:14:15.918315,599617889876090698,-48.00
2025-06-26 14:14:15.918315,599617889876090698,-46.00
2025-06-26 14:14:15.918315,599617889876090698,-51.00
2025-06-26 14:14:15.918315,599617889876090698,-51.00
2025-06-26 14:14:15.918315,599617889876090698,-41.00
2025-06-26 14:14:15.918315,599617889876090698,-26.00
2025-06-26 14:14:15.918315,599617889876090698,-7.00
2025-06-26 14:14:15.918315,599617889876090698,-2.00
2025-06-26 14:14:15.918315,599617889876090698,-17.00
2025-06-26 14:14:15.918315,599617889876090698,-26.00
2025-06-26 14:14:15.918315,599617889876090698,-26.00
2025-06-26 14:14:15.918315,599617889876090698,-36.00
2025-06-26 14:14:15.918315,599617889876090698,-46.00
2025-06-26 14:14:15.918315,599617889876090698,-46.00
2025-06-26 14:14:15.918315,599617889876090698,-48.00
2025-06-26 14:14:15.918315,599617889876090698,-46.00
2025-06-26 14:14:15.918315,599617889876090698,-44.00
2025-06-26 14:14:15.918315,599617889876090698,-46.00
2025-06-26 14:14:15.918315,599617889876090698,-53.00
2025-06-26 14:14:15.918315,599617889876090698,-44.00
2025-06-26 14:14:15.918315,599617889876090698,53.00
2025-06-26 14:14:15.918315,599617889876090698,274.00
2025-06-26 14:14:15.918315,599617889876090698,546.00
2025-06-26 14:14:15.918315,599617889876090698,668.00
2025-06-26 14:14:15.918315,599617889876090698,399.00
2025-06-26 14:14:15.918315,599617889876090698,-97.00
2025-06-26 14:14:15.918315,599617889876090698,-252.00
2025-06-26 14:14:15.918315,599617889876090698,-51.00
2025-06-26 14:14:15.918315,599617889876090698,-14.00
2025-06-26 14:14:15.918315,599617889876090698,-117.00
2025-06-26 14:14:15.918315,599617889876090698,-95.00
2025-06-26 14:14:15.918315,599617889876090698,-53.00
2025-06-26 14:14:15.918315,599617889876090698,-75.00
2025-06-26 14:14:15.918315,599617889876090698,-71.00
2025-06-26 14:14:15.918315,599617889876090698,-48.00
2025-06-26 14:14:15.918315,599617889876090698,-46.00
2025-06-26 14:14:15.918315,599617889876090698,-41.00
2025-06-26 14:14:15.918315,599617889876090698,-26.00
2025-06-26 14:14:15.918315,599617889876090698,-22.00
2025-06-26 14:14:15.918315,599617889876090698,-17.00
2025-06-26 14:14:15.918315,599617889876090698,-7.00
2025-06-26 14:14:15.918315,599617889876090698,2.00
2025-06-26 14:14:15.918315,599617889876090698,9.00
2025-06-26 14:14:15.918315,599617889876090698,19.00
2025-06-26 14:14:15.918315,599617889876090698,29.00
2025-06-26 14:14:15.918315,599617889876090698,39.00
2025-06-26 14:14:15.918315,599617889876090698,48.00
2025-06-26 14:14:15.918315,599617889876090698,58.00
2025-06-26 14:14:15.918315,599617889876090698,71.00
2025-06-26 14:14:15.918315,599617889876090698,78.00
2025-06-26 14:14:15.918315,599617889876090698,85.00
2025-06-26 14:14:15.918315,599617889876090698,90.00
2025-06-26 14:14:15.918315,599617889876090698,95.00
2025-06-26 14:14:15.918315,599617889876090698,90.00
2025-06-26 14:14:15.918315,599617889876090698,78.00
2025-06-26 14:14:15.918315,599617889876090698,53.00
2025-06-26 14:14:15.918315,599617889876090698,17.00
2025-06-26 14:14:15.918315,599617889876090698,-26.00
2025-06-26 14:14:15.918315,599617889876090698,-63.00
2025-06-26 14:14:15.918315,599617889876090698,-93.00
2025-06-26 14:14:15.918315,599617889876090698,-112.00
2025-06-26 14:14:15.918315,599617889876090698,-124.00
2025-06-26 14:14:15.918315,599617889876090698,-129.00
2025-06-26 14:14:15.918315,599617889876090698,-129.00
2025-06-26 14:14:15.918315,599617889876090698,-129.00
2025-06-26 14:14:15.918315,599617889876090698,-127.00
2025-06-26 14:14:15.918315,599617889876090698,-122.00
2025-06-26 14:14:15.918315,599617889876090698,-115.00
2025-06-26 14:14:15.918315,599617889876090698,-110.00
2025-06-26 14:14:15.918315,599617889876090698,-105.00
2025-06-26 14:14:16.427953,599617890436787739,-100.00
2025-06-26 14:14:16.427953,599617890436787739,-97.00
2025-06-26 14:14:16.427953,599617890436787739,-95.00
2025-06-26 14:14:16.427953,599617890436787739,-93.00
2025-06-26 14:14:16.427953,599617890436787739,-90.00
2025-06-26 14:14:16.427953,599617890436787739,-88.00
2025-06-26 14:14:16.427953,599617890436787739,-85.00
2025-06-26 14:14:16.427953,599617890436787739,-83.00
2025-06-26 14:14:16.427953,599617890436787739,-83.00
2025-06-26 14:14:16.427953,599617890436787739,-80.00
2025-06-26 14:14:16.427953,599617890436787739,-78.00
2025-06-26 14:14:16.427953,599617890436787739,-78.00
2025-06-26 14:14:16.427953,599617890436787739,-78.00
2025-06-26 14:14:16.427953,599617890436787739,-75.00
2025-06-26 14:14:16.427953,599617890436787739,-75.00
2025-06-26 14:14:16.427953,599617890436787739,-73.00
2025-06-26 14:14:16.427953,599617890436787739,-73.00
2025-06-26 14:14:16.427953,599617890436787739,-73.00
2025-06-26 14:14:16.427953,599617890436787739,-71.00
2025-06-26 14:14:16.427953,599617890436787739,-71.00
2025-06-26 14:14:16.427953,599617890436787739,-68.00
2025-06-26 14:14:16.427953,599617890436787739,-66.00
2025-06-26 14:14:16.427953,599617890436787739,-66.00
2025-06-26 14:14:16.427953,599617890436787739,-63.00
2025-06-26 14:14:16.427953,599617890436787739,-63.00
2025-06-26 14:14:16.427953,599617890436787739,-61.00
2025-06-26 14:14:16.427953,599617890436787739,-61.00
2025-06-26 14:14:16.427953,599617890436787739,-61.00
2025-06-26 14:14:16.427953,599617890436787739,-58.00
2025-06-26 14:14:16.427953,599617890436787739,-58.00
2025-06-26 14:14:16.427953,599617890436787739,-56.00
2025-06-26 14:14:16.427953,599617890436787739,-56.00
2025-06-26 14:14:16.427953,599617890436787739,-56.00
2025-06-26 14:14:16.427953,599617890436787739,-56.00
2025-06-26 14:14:16.427953,599617890436787739,-58.00
2025-06-26 14:14:16.427953,599617890436787739,-61.00
2025-06-26 14:14:16.427953,599617890436787739,-51.00
2025-06-26 14:14:16.427953,599617890436787739,-34.00
2025-06-26 14:14:16.427953,599617890436787739,-14.00
2025-06-26 14:14:16.427953,599617890436787739,-14.00
2025-06-26 14:14:16.427953,599617890436787739,-31.00
2025-06-26 14:14:16.427953,599617890436787739,-36.00
2025-06-26 14:14:16.427953,599617890436787739,-36.00
2025-06-26 14:14:16.427953,599617890436787739,-48.00
2025-06-26 14:14:16.427953,599617890436787739,-56.00
2025-06-26 14:14:16.427953,599617890436787739,-58.00
2025-06-26 14:14:16.427953,599617890436787739,-61.00
2025-06-26 14:14:16.427953,599617890436787739,-61.00
2025-06-26 14:14:16.427953,599617890436787739,-56.00
2025-06-26 14:14:16.427953,599617890436787739,-58.00
2025-06-26 14:14:16.427953,599617890436787739,-66.00
2025-06-26 14:14:16.427953,599617890436787739,-53.00
2025-06-26 14:14:16.427953,599617890436787739,51.00
2025-06-26 14:14:16.427953,599617890436787739,279.00
2025-06-26 14:14:16.427953,599617890436787739,541.00
2025-06-26 14:14:16.427953,599617890436787739,627.00
2025-06-26 14:14:16.427953,599617890436787739,330.00
2025-06-26 14:14:16.427953,599617890436787739,-142.00
2025-06-26 14:14:16.427953,599617890436787739,-254.00
2025-06-26 14:14:16.427953,599617890436787739,-56.00
2025-06-26 14:14:16.427953,599617890436787739,-36.00
2025-06-26 14:14:16.427953,599617890436787739,-129.00
2025-06-26 14:14:16.427953,599617890436787739,-97.00
2025-06-26 14:14:16.427953,599617890436787739,-63.00
2025-06-26 14:14:16.427953,599617890436787739,-85.00
2025-06-26 14:14:16.427953,599617890436787739,-75.00
2025-06-26 14:14:16.427953,599617890436787739,-53.00
2025-06-26 14:14:16.427953,599617890436787739,-53.00
2025-06-26 14:14:16.427953,599617890436787739,-51.00
2025-06-26 14:14:16.427953,599617890436787739,-39.00
2025-06-26 14:14:16.427953,599617890436787739,-31.00
2025-06-26 14:14:16.427953,599617890436787739,-29.00
2025-06-26 14:14:16.427953,599617890436787739,-19.00
2025-06-26 14:14:16.997747,599617890997454262,-9.00
2025-06-26 14:14:16.997747,599617890997454262,-2.00
2025-06-26 14:14:16.997747,599617890997454262,4.00
2025-06-26 14:14:16.997747,599617890997454262,17.00
2025-06-26 14:14:16.997747,599617890997454262,26.00
2025-06-26 14:14:16.997747,599617890997454262,39.00
2025-06-26 14:14:16.997747,599617890997454262,48.00
2025-06-26 14:14:16.997747,599617890997454262,56.00
2025-06-26 14:14:16.997747,599617890997454262,63.00
2025-06-26 14:14:16.997747,599617890997454262,71.00
2025-06-26 14:14:16.997747,599617890997454262,75.00
2025-06-26 14:14:16.997747,599617890997454262,75.00
2025-06-26 14:14:16.997747,599617890997454262,73.00
2025-06-26 14:14:16.997747,599617890997454262,63.00
2025-06-26 14:14:16.997747,599617890997454262,36.00
2025-06-26 14:14:16.997747,599617890997454262,0.00
2025-06-26 14:14:16.997747,599617890997454262,-39.00
2025-06-26 14:14:16.997747,599617890997454262,-75.00
2025-06-26 14:14:16.997747,599617890997454262,-105.00
2025-06-26 14:14:16.997747,599617890997454262,-127.00
2025-06-26 14:14:16.997747,599617890997454262,-134.00
2025-06-26 14:14:16.997747,599617890997454262,-139.00
2025-06-26 14:14:16.997747,599617890997454262,-139.00
2025-06-26 14:14:16.997747,599617890997454262,-137.00
2025-06-26 14:14:16.997747,599617890997454262,-134.00
2025-06-26 14:14:16.997747,599617890997454262,-132.00
2025-06-26 14:14:16.997747,599617890997454262,-124.00
2025-06-26 14:14:16.997747,599617890997454262,-117.00
2025-06-26 14:14:16.997747,599617890997454262,-115.00
2025-06-26 14:14:16.997747,599617890997454262,-110.00
2025-06-26 14:14:16.997747,599617890997454262,-105.00
2025-06-26 14:14:16.997747,599617890997454262,-102.00
2025-06-26 14:14:16.997747,599617890997454262,-102.00
2025-06-26 14:14:16.997747,599617890997454262,-100.00
2025-06-26 14:14:16.997747,599617890997454262,-97.00
2025-06-26 14:14:16.997747,599617890997454262,-95.00
2025-06-26 14:14:16.997747,599617890997454262,-93.00
2025-06-26 14:14:16.997747,599617890997454262,-93.00
2025-06-26 14:14:16.997747,599617890997454262,-93.00
2025-06-26 14:14:16.997747,599617890997454262,-90.00
2025-06-26 14:14:16.997747,599617890997454262,-90.00
2025-06-26 14:14:16.997747,599617890997454262,-90.00
2025-06-26 14:14:16.997747,599617890997454262,-88.00
2025-06-26 14:14:16.997747,599617890997454262,-90.00
2025-06-26 14:14:16.997747,599617890997454262,-90.00
2025-06-26 14:14:16.997747,599617890997454262,-88.00
2025-06-26 14:14:16.997747,599617890997454262,-88.00
2025-06-26 14:14:16.997747,599617890997454262,-88.00
2025-06-26 14:14:16.997747,599617890997454262,-85.00
2025-06-26 14:14:16.997747,599617890997454262,-85.00
2025-06-26 14:14:16.997747,599617890997454262,-83.00
2025-06-26 14:14:16.997747,599617890997454262,-83.00
2025-06-26 14:14:16.997747,599617890997454262,-83.00
2025-06-26 14:14:16.997747,599617890997454262,-80.00
2025-06-26 14:14:16.997747,599617890997454262,-78.00
2025-06-26 14:14:16.997747,599617890997454262,-78.00
2025-06-26 14:14:16.997747,599617890997454262,-78.00
2025-06-26 14:14:16.997747,599617890997454262,-75.00
2025-06-26 14:14:16.997747,599617890997454262,-73.00
2025-06-26 14:14:16.997747,599617890997454262,-73.00
2025-06-26 14:14:16.997747,599617890997454262,-75.00
2025-06-26 14:14:16.997747,599617890997454262,-73.00
2025-06-26 14:14:16.997747,599617890997454262,-75.00
2025-06-26 14:14:16.997747,599617890997454262,-80.00
2025-06-26 14:14:16.997747,599617890997454262,-78.00
2025-06-26 14:14:16.997747,599617890997454262,-66.00
2025-06-26 14:14:16.997747,599617890997454262,-48.00
2025-06-26 14:14:16.997747,599617890997454262,-34.00
2025-06-26 14:14:16.997747,599617890997454262,-36.00
2025-06-26 14:14:16.997747,599617890997454262,-53.00
2025-06-26 14:14:16.997747,599617890997454262,-58.00
2025-06-26 14:14:16.997747,599617890997454262,-58.00
2025-06-26 14:14:16.997747,599617890997454262,-66.00
2025-06-26 14:14:17.566563,599617891558125873,-78.00
2025-06-26 14:14:17.566563,599617891558125873,-83.00
2025-06-26 14:14:17.566563,599617891558125873,-80.00
2025-06-26 14:14:17.566563,599617891558125873,-78.00
2025-06-26 14:14:17.566563,599617891558125873,-73.00
2025-06-26 14:14:17.566563,599617891558125873,-75.00
2025-06-26 14:14:17.566563,599617891558125873,-83.00
2025-06-26 14:14:17.566563,599617891558125873,-48.00
2025-06-26 14:14:17.566563,599617891558125873,97.00
2025-06-26 14:14:17.566563,599617891558125873,345.00
2025-06-26 14:14:17.566563,599617891558125873,573.00
2025-06-26 14:14:17.566563,599617891558125873,558.00
2025-06-26 14:14:17.566563,599617891558125873,169.00
2025-06-26 14:14:17.566563,599617891558125873,-242.00
2025-06-26 14:14:17.566563,599617891558125873,-227.00
2025-06-26 14:14:17.566563,599617891558125873,-46.00
2025-06-26 14:14:17.566563,599617891558125873,-80.00
2025-06-26 14:14:17.566563,599617891558125873,-142.00
2025-06-26 14:14:17.566563,599617891558125873,-100.00
2025-06-26 14:14:17.566563,599617891558125873,-85.00
2025-06-26 14:14:17.566563,599617891558125873,-102.00
2025-06-26 14:14:17.566563,599617891558125873,-83.00
2025-06-26 14:14:17.566563,599617891558125873,-68.00
2025-06-26 14:14:17.566563,599617891558125873,-71.00
2025-06-26 14:14:17.566563,599617891558125873,-61.00
2025-06-26 14:14:17.566563,599617891558125873,-48.00
2025-06-26 14:14:17.566563,599617891558125873,-44.00
2025-06-26 14:14:17.566563,599617891558125873,-36.00
2025-06-26 14:14:17.566563,599617891558125873,-24.00
2025-06-26 14:14:17.566563,599617891558125873,-17.00
2025-06-26 14:14:17.566563,599617891558125873,-14.00
2025-06-26 14:14:17.566563,599617891558125873,-2.00
2025-06-26 14:14:17.566563,599617891558125873,7.00
2025-06-26 14:14:17.566563,599617891558125873,17.00
2025-06-26 14:14:17.566563,599617891558125873,29.00
2025-06-26 14:14:17.566563,599617891558125873,39.00
2025-06-26 14:14:17.566563,599617891558125873,46.00
2025-06-26 14:14:17.566563,599617891558125873,51.00
2025-06-26 14:14:17.566563,599617891558125873,58.00
2025-06-26 14:14:17.566563,599617891558125873,61.00
2025-06-26 14:14:17.566563,599617891558125873,61.00
2025-06-26 14:14:17.566563,599617891558125873,56.00
2025-06-26 14:14:17.566563,599617891558125873,39.00
2025-06-26 14:14:17.566563,599617891558125873,9.00
2025-06-26 14:14:17.566563,599617891558125873,-26.00
2025-06-26 14:14:17.566563,599617891558125873,-68.00
2025-06-26 14:14:17.566563,599617891558125873,-102.00
2025-06-26 14:14:17.566563,599617891558125873,-129.00
2025-06-26 14:14:17.566563,599617891558125873,-146.00
2025-06-26 14:14:17.566563,599617891558125873,-156.00
2025-06-26 14:14:17.566563,599617891558125873,-161.00
2025-06-26 14:14:17.566563,599617891558125873,-159.00
2025-06-26 14:14:17.566563,599617891558125873,-156.00
2025-06-26 14:14:17.566563,599617891558125873,-151.00
2025-06-26 14:14:17.566563,599617891558125873,-146.00
2025-06-26 14:14:17.566563,599617891558125873,-142.00
2025-06-26 14:14:17.566563,599617891558125873,-137.00
2025-06-26 14:14:17.566563,599617891558125873,-132.00
2025-06-26 14:14:17.566563,599617891558125873,-124.00
2025-06-26 14:14:17.566563,599617891558125873,-120.00
2025-06-26 14:14:17.566563,599617891558125873,-117.00
2025-06-26 14:14:17.566563,599617891558125873,-120.00
2025-06-26 14:14:17.566563,599617891558125873,-115.00
2025-06-26 14:14:17.566563,599617891558125873,-110.00
2025-06-26 14:14:17.566563,599617891558125873,-110.00
2025-06-26 14:14:17.566563,599617891558125873,-107.00
2025-06-26 14:14:17.566563,599617891558125873,-107.00
2025-06-26 14:14:17.566563,599617891558125873,-105.00
2025-06-26 14:14:17.566563,599617891558125873,-105.00
2025-06-26 14:14:17.566563,599617891558125873,-102.00
2025-06-26 14:14:17.566563,599617891558125873,-102.00
2025-06-26 14:14:17.566563,599617891558125873,-102.00
2025-06-26 14:14:17.566563,599617891558125873,-100.00
2025-06-26 14:14:18.137592,599617892118817828,-100.00
2025-06-26 14:14:18.137592,599617892118817828,-100.00
2025-06-26 14:14:18.137592,599617892118817828,-97.00
2025-06-26 14:14:18.137592,599617892118817828,-95.00
2025-06-26 14:14:18.137592,599617892118817828,-95.00
2025-06-26 14:14:18.137592,599617892118817828,-93.00
2025-06-26 14:14:18.137592,599617892118817828,-93.00
2025-06-26 14:14:18.137592,599617892118817828,-93.00
2025-06-26 14:14:18.137592,599617892118817828,-90.00
2025-06-26 14:14:18.137592,599617892118817828,-85.00
2025-06-26 14:14:18.137592,599617892118817828,-90.00
2025-06-26 14:14:18.137592,599617892118817828,-90.00
2025-06-26 14:14:18.137592,599617892118817828,-83.00
2025-06-26 14:14:18.137592,599617892118817828,-63.00
2025-06-26 14:14:18.137592,599617892118817828,-41.00
2025-06-26 14:14:18.137592,599617892118817828,-36.00
2025-06-26 14:14:18.137592,599617892118817828,-51.00
2025-06-26 14:14:18.137592,599617892118817828,-66.00
2025-06-26 14:14:18.137592,599617892118817828,-68.00
2025-06-26 14:14:18.137592,599617892118817828,-71.00
2025-06-26 14:14:18.137592,599617892118817828,-75.00
2025-06-26 14:14:18.137592,599617892118817828,-80.00
2025-06-26 14:14:18.137592,599617892118817828,-80.00
2025-06-26 14:14:18.137592,599617892118817828,-80.00
2025-06-26 14:14:18.137592,599617892118817828,-75.00
2025-06-26 14:14:18.137592,599617892118817828,-75.00
2025-06-26 14:14:18.137592,599617892118817828,-85.00
2025-06-26 14:14:18.137592,599617892118817828,-63.00
2025-06-26 14:14:18.137592,599617892118817828,66.00
2025-06-26 14:14:18.137592,599617892118817828,311.00
2025-06-26 14:14:18.137592,599617892118817828,563.00
2025-06-26 14:14:18.137592,599617892118817828,600.00
2025-06-26 14:14:18.137592,599617892118817828,262.00
2025-06-26 14:14:18.137592,599617892118817828,-191.00
2025-06-26 14:14:18.137592,599617892118817828,-262.00
2025-06-26 14:14:18.137592,599617892118817828,-73.00
2025-06-26 14:14:18.137592,599617892118817828,-61.00
2025-06-26 14:14:18.137592,599617892118817828,-132.00
2025-06-26 14:14:18.137592,599617892118817828,-97.00
2025-06-26 14:14:18.137592,599617892118817828,-75.00
2025-06-26 14:14:18.137592,599617892118817828,-90.00
2025-06-26 14:14:18.137592,599617892118817828,-78.00
2025-06-26 14:14:18.137592,599617892118817828,-58.00
2025-06-26 14:14:18.137592,599617892118817828,-56.00
2025-06-26 14:14:18.137592,599617892118817828,-48.00
2025-06-26 14:14:18.137592,599617892118817828,-36.00
2025-06-26 14:14:18.137592,599617892118817828,-31.00
2025-06-26 14:14:18.137592,599617892118817828,-24.00
2025-06-26 14:14:18.137592,599617892118817828,-14.00
2025-06-26 14:14:18.137592,599617892118817828,-4.00
2025-06-26 14:14:18.137592,599617892118817828,4.00
2025-06-26 14:14:18.137592,599617892118817828,17.00
2025-06-26 14:14:18.137592,599617892118817828,26.00
2025-06-26 14:14:18.137592,599617892118817828,36.00
2025-06-26 14:14:18.137592,599617892118817828,48.00
2025-06-26 14:14:18.137592,599617892118817828,58.00
2025-06-26 14:14:18.137592,599617892118817828,68.00
2025-06-26 14:14:18.137592,599617892118817828,75.00
2025-06-26 14:14:18.137592,599617892118817828,80.00
2025-06-26 14:14:18.137592,599617892118817828,85.00
2025-06-26 14:14:18.137592,599617892118817828,85.00
2025-06-26 14:14:18.137592,599617892118817828,75.00
2025-06-26 14:14:18.137592,599617892118817828,51.00
2025-06-26 14:14:18.137592,599617892118817828,17.00
2025-06-26 14:14:18.137592,599617892118817828,-29.00
2025-06-26 14:14:18.137592,599617892118817828,-73.00
2025-06-26 14:14:18.137592,599617892118817828,-107.00
2025-06-26 14:14:18.137592,599617892118817828,-134.00
2025-06-26 14:14:18.137592,599617892118817828,-146.00
2025-06-26 14:14:18.137592,599617892118817828,-149.00
2025-06-26 14:14:18.137592,599617892118817828,-151.00
2025-06-26 14:14:18.137592,599617892118817828,-151.00
2025-06-26 14:14:18.137592,599617892118817828,-149.00
2025-06-26 14:14:18.678525,599617892679484351,-144.00
2025-06-26 14:14:18.678525,599617892679484351,-137.00
2025-06-26 14:14:18.678525,599617892679484351,-129.00
2025-06-26 14:14:18.678525,599617892679484351,-124.00
2025-06-26 14:14:18.678525,599617892679484351,-120.00
2025-06-26 14:14:18.678525,599617892679484351,-115.00
2025-06-26 14:14:18.678525,599617892679484351,-112.00
2025-06-26 14:14:18.678525,599617892679484351,-107.00
2025-06-26 14:14:18.678525,599617892679484351,-102.00
2025-06-26 14:14:18.678525,599617892679484351,-100.00
2025-06-26 14:14:18.678525,599617892679484351,-95.00
2025-06-26 14:14:18.678525,599617892679484351,-93.00
2025-06-26 14:14:18.678525,599617892679484351,-93.00
2025-06-26 14:14:18.678525,599617892679484351,-90.00
2025-06-26 14:14:18.678525,599617892679484351,-88.00
2025-06-26 14:14:18.678525,599617892679484351,-88.00
2025-06-26 14:14:18.678525,599617892679484351,-88.00
2025-06-26 14:14:18.678525,599617892679484351,-88.00
2025-06-26 14:14:18.678525,599617892679484351,-88.00
2025-06-26 14:14:18.678525,599617892679484351,-88.00
2025-06-26 14:14:18.678525,599617892679484351,-85.00
2025-06-26 14:14:18.678525,599617892679484351,-85.00
2025-06-26 14:14:18.678525,599617892679484351,-85.00
2025-06-26 14:14:18.678525,599617892679484351,-85.00
2025-06-26 14:14:18.678525,599617892679484351,-83.00
2025-06-26 14:14:18.678525,599617892679484351,-80.00
2025-06-26 14:14:18.678525,599617892679484351,-78.00
2025-06-26 14:14:18.678525,599617892679484351,-78.00
2025-06-26 14:14:18.678525,599617892679484351,-78.00
2025-06-26 14:14:18.678525,599617892679484351,-78.00
2025-06-26 14:14:18.678525,599617892679484351,-80.00
2025-06-26 14:14:18.678525,599617892679484351,-75.00
2025-06-26 14:14:18.678525,599617892679484351,-61.00
2025-06-26 14:14:18.678525,599617892679484351,-39.00
2025-06-26 14:14:18.678525,599617892679484351,-26.00
2025-06-26 14:14:18.678525,599617892679484351,-39.00
2025-06-26 14:14:18.678525,599617892679484351,-53.00
2025-06-26 14:14:18.678525,599617892679484351,-51.00
2025-06-26 14:14:18.678525,599617892679484351,-56.00
2025-06-26 14:14:18.678525,599617892679484351,-68.00
2025-06-26 14:14:18.678525,599617892679484351,-71.00
2025-06-26 14:14:18.678525,599617892679484351,-71.00
2025-06-26 14:14:18.678525,599617892679484351,-73.00
2025-06-26 14:14:18.678525,599617892679484351,-71.00
2025-06-26 14:14:18.678525,599617892679484351,-68.00
2025-06-26 14:14:18.678525,599617892679484351,-75.00
2025-06-26 14:14:18.678525,599617892679484351,-83.00
2025-06-26 14:14:18.678525,599617892679484351,-29.00
2025-06-26 14:14:18.678525,599617892679484351,159.00
2025-06-26 14:14:18.678525,599617892679484351,445.00
2025-06-26 14:14:18.678525,599617892679484351,656.00
2025-06-26 14:14:18.678525,599617892679484351,529.00
2025-06-26 14:14:18.678525,599617892679484351,41.00
2025-06-26 14:14:18.678525,599617892679484351,-291.00
2025-06-26 14:14:18.678525,599617892679484351,-161.00
2025-06-26 14:14:18.678525,599617892679484351,-24.00
2025-06-26 14:14:18.678525,599617892679484351,-112.00
2025-06-26 14:14:18.678525,599617892679484351,-137.00
2025-06-26 14:14:18.678525,599617892679484351,-80.00
2025-06-26 14:14:18.678525,599617892679484351,-88.00
2025-06-26 14:14:18.678525,599617892679484351,-97.00
2025-06-26 14:14:18.678525,599617892679484351,-73.00
2025-06-26 14:14:18.678525,599617892679484351,-63.00
2025-06-26 14:14:18.678525,599617892679484351,-66.00
2025-06-26 14:14:18.678525,599617892679484351,-56.00
2025-06-26 14:14:18.678525,599617892679484351,-46.00
2025-06-26 14:14:18.678525,599617892679484351,-39.00
2025-06-26 14:14:18.678525,599617892679484351,-29.00
2025-06-26 14:14:18.678525,599617892679484351,-19.00
2025-06-26 14:14:18.678525,599617892679484351,-12.00
2025-06-26 14:14:18.678525,599617892679484351,-2.00
2025-06-26 14:14:18.678525,599617892679484351,9.00
2025-06-26 14:14:18.678525,599617892679484351,22.00
2025-06-26 14:14:19.306724,599617893240150874,34.00
2025-06-26 14:14:19.306724,599617893240150874,46.00
2025-06-26 14:14:19.306724,599617893240150874,58.00
2025-06-26 14:14:19.306724,599617893240150874,68.00
2025-06-26 14:14:19.306724,599617893240150874,73.00
2025-06-26 14:14:19.306724,599617893240150874,78.00
2025-06-26 14:14:19.306724,599617893240150874,83.00
2025-06-26 14:14:19.306724,599617893240150874,80.00
2025-06-26 14:14:19.306724,599617893240150874,66.00
2025-06-26 14:14:19.306724,599617893240150874,34.00
2025-06-26 14:14:19.306724,599617893240150874,-7.00
2025-06-26 14:14:19.306724,599617893240150874,-53.00
2025-06-26 14:14:19.306724,599617893240150874,-95.00
2025-06-26 14:14:19.306724,599617893240150874,-124.00
2025-06-26 14:14:19.306724,599617893240150874,-144.00
2025-06-26 14:14:19.306724,599617893240150874,-154.00
2025-06-26 14:14:19.306724,599617893240150874,-159.00
2025-06-26 14:14:19.306724,599617893240150874,-161.00
2025-06-26 14:14:19.306724,599617893240150874,-156.00
2025-06-26 14:14:19.306724,599617893240150874,-151.00
2025-06-26 14:14:19.306724,599617893240150874,-149.00
2025-06-26 14:14:19.306724,599617893240150874,-144.00
2025-06-26 14:14:19.306724,599617893240150874,-137.00
2025-06-26 14:14:19.306724,599617893240150874,-132.00
2025-06-26 14:14:19.306724,599617893240150874,-127.00
2025-06-26 14:14:19.306724,599617893240150874,-122.00
2025-06-26 14:14:19.306724,599617893240150874,-120.00
2025-06-26 14:14:19.306724,599617893240150874,-115.00
2025-06-26 14:14:19.306724,599617893240150874,-112.00
2025-06-26 14:14:19.306724,599617893240150874,-110.00
2025-06-26 14:14:19.306724,599617893240150874,-107.00
2025-06-26 14:14:19.306724,599617893240150874,-105.00
2025-06-26 14:14:19.306724,599617893240150874,-102.00
2025-06-26 14:14:19.306724,599617893240150874,-102.00
2025-06-26 14:14:19.306724,599617893240150874,-100.00
2025-06-26 14:14:19.306724,599617893240150874,-100.00
2025-06-26 14:14:19.306724,599617893240150874,-100.00
2025-06-26 14:14:19.306724,599617893240150874,-97.00
2025-06-26 14:14:19.306724,599617893240150874,-95.00
2025-06-26 14:14:19.306724,599617893240150874,-97.00
2025-06-26 14:14:19.306724,599617893240150874,-97.00
2025-06-26 14:14:19.306724,599617893240150874,-95.00
2025-06-26 14:14:19.306724,599617893240150874,-95.00
2025-06-26 14:14:19.306724,599617893240150874,-93.00
2025-06-26 14:14:19.306724,599617893240150874,-93.00
2025-06-26 14:14:19.306724,599617893240150874,-90.00
2025-06-26 14:14:19.306724,599617893240150874,-90.00
2025-06-26 14:14:19.306724,599617893240150874,-85.00
2025-06-26 14:14:19.306724,599617893240150874,-83.00
2025-06-26 14:14:19.306724,599617893240150874,-80.00
2025-06-26 14:14:19.306724,599617893240150874,-80.00
2025-06-26 14:14:19.306724,599617893240150874,-83.00
2025-06-26 14:14:19.306724,599617893240150874,-85.00
2025-06-26 14:14:19.306724,599617893240150874,-78.00
2025-06-26 14:14:19.306724,599617893240150874,-63.00
2025-06-26 14:14:19.306724,599617893240150874,-41.00
2025-06-26 14:14:19.306724,599617893240150874,-34.00
2025-06-26 14:14:19.306724,599617893240150874,-46.00
2025-06-26 14:14:19.306724,599617893240150874,-56.00
2025-06-26 14:14:19.306724,599617893240150874,-58.00
2025-06-26 14:14:19.306724,599617893240150874,-66.00
2025-06-26 14:14:19.306724,599617893240150874,-73.00
2025-06-26 14:14:19.306724,599617893240150874,-75.00
2025-06-26 14:14:19.306724,599617893240150874,-78.00
2025-06-26 14:14:19.306724,599617893240150874,-78.00
2025-06-26 14:14:19.306724,599617893240150874,-75.00
2025-06-26 14:14:19.306724,599617893240150874,-73.00
2025-06-26 14:14:19.306724,599617893240150874,-80.00
2025-06-26 14:14:19.306724,599617893240150874,-75.00
2025-06-26 14:14:19.306724,599617893240150874,24.00
2025-06-26 14:14:19.306724,599617893240150874,252.00
2025-06-26 14:14:19.306724,599617893240150874,526.00
2025-06-26 14:14:19.306724,599617893240150874,636.00
2025-06-26 14:14:19.787461,599617893800847915,355.00
2025-06-26 14:14:19.787461,599617893800847915,-134.00
2025-06-26 14:14:19.787461,599617893800847915,-289.00
2025-06-26 14:14:19.787461,599617893800847915,-90.00
2025-06-26 14:14:19.787461,599617893800847915,-46.00
2025-06-26 14:14:19.787461,599617893800847915,-142.00
2025-06-26 14:14:19.787461,599617893800847915,-120.00
2025-06-26 14:14:19.787461,599617893800847915,-80.00
2025-06-26 14:14:19.787461,599617893800847915,-100.00
2025-06-26 14:14:19.787461,599617893800847915,-95.00
2025-06-26 14:14:19.787461,599617893800847915,-71.00
2025-06-26 14:14:19.787461,599617893800847915,-68.00
2025-06-26 14:14:19.787461,599617893800847915,-63.00
2025-06-26 14:14:19.787461,599617893800847915,-48.00
2025-06-26 14:14:19.787461,599617893800847915,-41.00
2025-06-26 14:14:19.787461,599617893800847915,-36.00
2025-06-26 14:14:19.787461,599617893800847915,-24.00
2025-06-26 14:14:19.787461,599617893800847915,-12.00
2025-06-26 14:14:19.787461,599617893800847915,-4.00
2025-06-26 14:14:19.787461,599617893800847915,4.00
2025-06-26 14:14:19.787461,599617893800847915,12.00
2025-06-26 14:14:19.787461,599617893800847915,22.00
2025-06-26 14:14:19.787461,599617893800847915,34.00
2025-06-26 14:14:19.787461,599617893800847915,46.00
2025-06-26 14:14:19.787461,599617893800847915,56.00
2025-06-26 14:14:19.787461,599617893800847915,68.00
2025-06-26 14:14:19.787461,599617893800847915,75.00
2025-06-26 14:14:19.787461,599617893800847915,78.00
2025-06-26 14:14:19.787461,599617893800847915,80.00
2025-06-26 14:14:19.787461,599617893800847915,73.00
2025-06-26 14:14:19.787461,599617893800847915,53.00
2025-06-26 14:14:19.787461,599617893800847915,19.00
2025-06-26 14:14:19.787461,599617893800847915,-24.00
2025-06-26 14:14:19.787461,599617893800847915,-68.00
2025-06-26 14:14:19.787461,599617893800847915,-105.00
2025-06-26 14:14:19.787461,599617893800847915,-132.00
2025-06-26 14:14:19.787461,599617893800847915,-149.00
2025-06-26 14:14:19.787461,599617893800847915,-159.00
2025-06-26 14:14:19.787461,599617893800847915,-159.00
2025-06-26 14:14:19.787461,599617893800847915,-161.00
2025-06-26 14:14:19.787461,599617893800847915,-156.00
2025-06-26 14:14:19.787461,599617893800847915,-149.00
2025-06-26 14:14:19.787461,599617893800847915,-144.00
2025-06-26 14:14:19.787461,599617893800847915,-142.00
2025-06-26 14:14:19.787461,599617893800847915,-137.00
2025-06-26 14:14:19.787461,599617893800847915,-132.00
2025-06-26 14:14:19.787461,599617893800847915,-124.00
2025-06-26 14:14:19.787461,599617893800847915,-120.00
2025-06-26 14:14:19.787461,599617893800847915,-115.00
2025-06-26 14:14:19.787461,599617893800847915,-115.00
2025-06-26 14:14:19.787461,599617893800847915,-110.00
2025-06-26 14:14:19.787461,599617893800847915,-107.00
2025-06-26 14:14:19.787461,599617893800847915,-102.00
2025-06-26 14:14:19.787461,599617893800847915,-100.00
2025-06-26 14:14:19.787461,599617893800847915,-100.00
2025-06-26 14:14:19.787461,599617893800847915,-95.00
2025-06-26 14:14:19.787461,599617893800847915,-95.00
2025-06-26 14:14:19.787461,599617893800847915,-95.00
2025-06-26 14:14:19.787461,599617893800847915,-93.00
2025-06-26 14:14:19.787461,599617893800847915,-90.00
2025-06-26 14:14:19.787461,599617893800847915,-90.00
2025-06-26 14:14:19.787461,599617893800847915,-90.00
2025-06-26 14:14:19.787461,599617893800847915,-90.00
2025-06-26 14:14:19.787461,599617893800847915,-90.00
2025-06-26 14:14:19.787461,599617893800847915,-88.00
2025-06-26 14:14:19.787461,599617893800847915,-88.00
2025-06-26 14:14:19.787461,599617893800847915,-85.00
2025-06-26 14:14:19.787461,599617893800847915,-85.00
2025-06-26 14:14:19.787461,599617893800847915,-83.00
2025-06-26 14:14:19.787461,599617893800847915,-85.00
2025-06-26 14:14:19.787461,599617893800847915,-88.00
2025-06-26 14:14:19.787461,599617893800847915,-85.00
2025-06-26 14:14:19.787461,599617893800847915,-73.00
2025-06-26 14:14:20.362776,599617894361514438,-53.00
2025-06-26 14:14:20.362776,599617894361514438,-36.00
2025-06-26 14:14:20.362776,599617894361514438,-44.00
2025-06-26 14:14:20.362776,599617894361514438,-56.00
2025-06-26 14:14:20.362776,599617894361514438,-53.00
2025-06-26 14:14:20.362776,599617894361514438,-58.00
2025-06-26 14:14:20.362776,599617894361514438,-71.00
2025-06-26 14:14:20.362776,599617894361514438,-73.00
2025-06-26 14:14:20.362776,599617894361514438,-73.00
2025-06-26 14:14:20.362776,599617894361514438,-71.00
2025-06-26 14:14:20.362776,599617894361514438,-66.00
2025-06-26 14:14:20.362776,599617894361514438,-71.00
2025-06-26 14:14:20.362776,599617894361514438,-80.00
2025-06-26 14:14:20.362776,599617894361514438,-53.00
2025-06-26 14:14:20.362776,599617894361514438,85.00
2025-06-26 14:14:20.362776,599617894361514438,335.00
2025-06-26 14:14:20.362776,599617894361514438,575.00
2025-06-26 14:14:20.362776,599617894361514438,570.00
2025-06-26 14:14:20.362776,599617894361514438,188.00
2025-06-26 14:14:20.362776,599617894361514438,-230.00
2025-06-26 14:14:20.362776,599617894361514438,-230.00
2025-06-26 14:14:20.362776,599617894361514438,-51.00
2025-06-26 14:14:20.362776,599617894361514438,-78.00
2025-06-26 14:14:20.362776,599617894361514438,-142.00
2025-06-26 14:14:20.362776,599617894361514438,-105.00
2025-06-26 14:14:20.362776,599617894361514438,-97.00
2025-06-26 14:14:20.362776,599617894361514438,-110.00
2025-06-26 14:14:20.362776,599617894361514438,-93.00
2025-06-26 14:14:20.362776,599617894361514438,-80.00
2025-06-26 14:14:20.362776,599617894361514438,-83.00
2025-06-26 14:14:20.362776,599617894361514438,-73.00
2025-06-26 14:14:20.362776,599617894361514438,-66.00
2025-06-26 14:14:20.362776,599617894361514438,-63.00
2025-06-26 14:14:20.362776,599617894361514438,-56.00
2025-06-26 14:14:20.362776,599617894361514438,-48.00
2025-06-26 14:14:20.362776,599617894361514438,-39.00
2025-06-26 14:14:20.362776,599617894361514438,-26.00
2025-06-26 14:14:20.362776,599617894361514438,-22.00
2025-06-26 14:14:20.362776,599617894361514438,-17.00
2025-06-26 14:14:20.362776,599617894361514438,-2.00
2025-06-26 14:14:20.362776,599617894361514438,9.00
2025-06-26 14:14:20.362776,599617894361514438,22.00
2025-06-26 14:14:20.362776,599617894361514438,31.00
2025-06-26 14:14:20.362776,599617894361514438,34.00
2025-06-26 14:14:20.362776,599617894361514438,39.00
2025-06-26 14:14:20.362776,599617894361514438,48.00
2025-06-26 14:14:20.362776,599617894361514438,53.00
2025-06-26 14:14:20.362776,599617894361514438,39.00
2025-06-26 14:14:20.362776,599617894361514438,4.00
2025-06-26 14:14:20.362776,599617894361514438,-39.00
2025-06-26 14:14:20.362776,599617894361514438,-85.00
2025-06-26 14:14:20.362776,599617894361514438,-127.00
2025-06-26 14:14:20.362776,599617894361514438,-161.00
2025-06-26 14:14:20.362776,599617894361514438,-183.00
2025-06-26 14:14:20.362776,599617894361514438,-193.00
2025-06-26 14:14:20.362776,599617894361514438,-198.00
2025-06-26 14:14:20.362776,599617894361514438,-200.00
2025-06-26 14:14:20.362776,599617894361514438,-198.00
2025-06-26 14:14:20.362776,599617894361514438,-193.00
2025-06-26 14:14:20.362776,599617894361514438,-191.00
2025-06-26 14:14:20.362776,599617894361514438,-183.00
2025-06-26 14:14:20.362776,599617894361514438,-169.00
2025-06-26 14:14:20.362776,599617894361514438,-164.00
2025-06-26 14:14:20.362776,599617894361514438,-159.00
2025-06-26 14:14:20.362776,599617894361514438,-149.00
2025-06-26 14:14:20.362776,599617894361514438,-142.00
2025-06-26 14:14:20.362776,599617894361514438,-137.00
2025-06-26 14:14:20.362776,599617894361514438,-129.00
2025-06-26 14:14:20.362776,599617894361514438,-122.00
2025-06-26 14:14:20.362776,599617894361514438,-117.00
2025-06-26 14:14:20.362776,599617894361514438,-112.00
2025-06-26 14:14:20.362776,599617894361514438,-107.00
2025-06-26 14:14:20.362776,599617894361514438,-102.00
2025-06-26 14:14:20.957778,599617894922211481,-95.00
2025-06-26 14:14:20.957778,599617894922211481,-90.00
2025-06-26 14:14:20.957778,599617894922211481,-88.00
2025-06-26 14:14:20.957778,599617894922211481,-83.00
2025-06-26 14:14:20.957778,599617894922211481,-75.00
2025-06-26 14:14:20.957778,599617894922211481,-73.00
2025-06-26 14:14:20.957778,599617894922211481,-75.00
2025-06-26 14:14:20.957778,599617894922211481,-78.00
2025-06-26 14:14:20.957778,599617894922211481,-78.00
2025-06-26 14:14:20.957778,599617894922211481,-75.00
2025-06-26 14:14:20.957778,599617894922211481,-68.00
2025-06-26 14:14:20.957778,599617894922211481,-46.00
2025-06-26 14:14:20.957778,599617894922211481,-26.00
2025-06-26 14:14:20.957778,599617894922211481,-31.00
2025-06-26 14:14:20.957778,599617894922211481,-39.00
2025-06-26 14:14:20.957778,599617894922211481,-39.00
2025-06-26 14:14:20.957778,599617894922211481,-48.00
2025-06-26 14:14:20.957778,599617894922211481,-61.00
2025-06-26 14:14:20.957778,599617894922211481,-58.00
2025-06-26 14:14:20.957778,599617894922211481,-58.00
2025-06-26 14:14:20.957778,599617894922211481,-61.00
2025-06-26 14:14:20.957778,599617894922211481,-58.00
2025-06-26 14:14:20.957778,599617894922211481,-58.00
2025-06-26 14:14:20.957778,599617894922211481,-68.00
2025-06-26 14:14:20.957778,599617894922211481,-26.00
2025-06-26 14:14:20.957778,599617894922211481,149.00
2025-06-26 14:14:20.957778,599617894922211481,443.00
2025-06-26 14:14:20.957778,599617894922211481,703.00
2025-06-26 14:14:20.957778,599617894922211481,666.00
2025-06-26 14:14:20.957778,599617894922211481,193.00
2025-06-26 14:14:20.957778,599617894922211481,-274.00
2025-06-26 14:14:20.957778,599617894922211481,-227.00
2025-06-26 14:14:20.957778,599617894922211481,-24.00
2025-06-26 14:14:20.957778,599617894922211481,-75.00
2025-06-26 14:14:20.957778,599617894922211481,-132.00
2025-06-26 14:14:20.957778,599617894922211481,-80.00
2025-06-26 14:14:20.957778,599617894922211481,-71.00
2025-06-26 14:14:20.957778,599617894922211481,-85.00
2025-06-26 14:14:20.957778,599617894922211481,-63.00
2025-06-26 14:14:20.957778,599617894922211481,-48.00
2025-06-26 14:14:20.957778,599617894922211481,-51.00
2025-06-26 14:14:20.957778,599617894922211481,-41.00
2025-06-26 14:14:20.957778,599617894922211481,-26.00
2025-06-26 14:14:20.957778,599617894922211481,-22.00
2025-06-26 14:14:20.957778,599617894922211481,-14.00
2025-06-26 14:14:20.957778,599617894922211481,-4.00
2025-06-26 14:14:20.957778,599617894922211481,7.00
2025-06-26 14:14:20.957778,599617894922211481,17.00
2025-06-26 14:14:20.957778,599617894922211481,26.00
2025-06-26 14:14:20.957778,599617894922211481,36.00
2025-06-26 14:14:20.957778,599617894922211481,51.00
2025-06-26 14:14:20.957778,599617894922211481,63.00
2025-06-26 14:14:20.957778,599617894922211481,75.00
2025-06-26 14:14:20.957778,599617894922211481,85.00
2025-06-26 14:14:20.957778,599617894922211481,93.00
2025-06-26 14:14:20.957778,599617894922211481,100.00
2025-06-26 14:14:20.957778,599617894922211481,102.00
2025-06-26 14:14:20.957778,599617894922211481,95.00
2025-06-26 14:14:20.957778,599617894922211481,73.00
2025-06-26 14:14:20.957778,599617894922211481,34.00
2025-06-26 14:14:20.957778,599617894922211481,-14.00
2025-06-26 14:14:20.957778,599617894922211481,-63.00
2025-06-26 14:14:20.957778,599617894922211481,-102.00
2025-06-26 14:14:20.957778,599617894922211481,-129.00
2025-06-26 14:14:20.957778,599617894922211481,-146.00
2025-06-26 14:14:20.957778,599617894922211481,-154.00
2025-06-26 14:14:20.957778,599617894922211481,-156.00
2025-06-26 14:14:20.957778,599617894922211481,-156.00
2025-06-26 14:14:20.957778,599617894922211481,-154.00
2025-06-26 14:14:20.957778,599617894922211481,-146.00
2025-06-26 14:14:20.957778,599617894922211481,-142.00
2025-06-26 14:14:20.957778,599617894922211481,-137.00
2025-06-26 14:14:20.957778,599617894922211481,-129.00
2025-06-26 14:14:21.527666,599617895482878004,-122.00
2025-06-26 14:14:21.527666,599617895482878004,-115.00
2025-06-26 14:14:21.527666,599617895482878004,-107.00
2025-06-26 14:14:21.527666,599617895482878004,-102.00
2025-06-26 14:14:21.527666,599617895482878004,-97.00
2025-06-26 14:14:21.527666,599617895482878004,-93.00
2025-06-26 14:14:21.527666,599617895482878004,-90.00
2025-06-26 14:14:21.527666,599617895482878004,-88.00
2025-06-26 14:14:21.527666,599617895482878004,-83.00
2025-06-26 14:14:21.527666,599617895482878004,-80.00
2025-06-26 14:14:21.527666,599617895482878004,-80.00
2025-06-26 14:14:21.527666,599617895482878004,-80.00
2025-06-26 14:14:21.527666,599617895482878004,-80.00
2025-06-26 14:14:21.527666,599617895482878004,-80.00
2025-06-26 14:14:21.527666,599617895482878004,-78.00
2025-06-26 14:14:21.527666,599617895482878004,-78.00
2025-06-26 14:14:21.527666,599617895482878004,-80.00
2025-06-26 14:14:21.527666,599617895482878004,-83.00
2025-06-26 14:14:21.527666,599617895482878004,-88.00
2025-06-26 14:14:21.527666,599617895482878004,-90.00
2025-06-26 14:14:21.527666,599617895482878004,-85.00
2025-06-26 14:14:21.527666,599617895482878004,-71.00
2025-06-26 14:14:21.527666,599617895482878004,-51.00
2025-06-26 14:14:21.527666,599617895482878004,-41.00
2025-06-26 14:14:21.527666,599617895482878004,-48.00
2025-06-26 14:14:21.527666,599617895482878004,-53.00
2025-06-26 14:14:21.527666,599617895482878004,-56.00
2025-06-26 14:14:21.527666,599617895482878004,-63.00
2025-06-26 14:14:21.527666,599617895482878004,-68.00
2025-06-26 14:14:21.527666,599617895482878004,-71.00
2025-06-26 14:14:21.527666,599617895482878004,-71.00
2025-06-26 14:14:21.527666,599617895482878004,-66.00
2025-06-26 14:14:21.527666,599617895482878004,-63.00
2025-06-26 14:14:21.527666,599617895482878004,-71.00
2025-06-26 14:14:21.527666,599617895482878004,-68.00
2025-06-26 14:14:21.527666,599617895482878004,19.00
2025-06-26 14:14:21.527666,599617895482878004,254.00
2025-06-26 14:14:21.527666,599617895482878004,568.00
2025-06-26 14:14:21.527666,599617895482878004,732.00
2025-06-26 14:14:21.527666,599617895482878004,472.00
2025-06-26 14:14:21.527666,599617895482878004,-90.00
2025-06-26 14:14:21.527666,599617895482878004,-328.00
2025-06-26 14:14:21.527666,599617895482878004,-110.00
2025-06-26 14:14:21.527666,599617895482878004,-22.00
2025-06-26 14:14:21.527666,599617895482878004,-134.00
2025-06-26 14:14:21.527666,599617895482878004,-122.00
2025-06-26 14:14:21.527666,599617895482878004,-71.00
2025-06-26 14:14:21.527666,599617895482878004,-90.00
2025-06-26 14:14:21.527666,599617895482878004,-90.00
2025-06-26 14:14:21.527666,599617895482878004,-63.00
2025-06-26 14:14:21.527666,599617895482878004,-58.00
2025-06-26 14:14:21.527666,599617895482878004,-56.00
2025-06-26 14:14:21.527666,599617895482878004,-44.00
2025-06-26 14:14:21.527666,599617895482878004,-34.00
2025-06-26 14:14:21.527666,599617895482878004,-26.00
2025-06-26 14:14:21.527666,599617895482878004,-14.00
2025-06-26 14:14:21.527666,599617895482878004,-2.00
2025-06-26 14:14:21.527666,599617895482878004,7.00
2025-06-26 14:14:21.527666,599617895482878004,22.00
2025-06-26 14:14:21.527666,599617895482878004,36.00
2025-06-26 14:14:21.527666,599617895482878004,48.00
2025-06-26 14:14:21.527666,599617895482878004,56.00
2025-06-26 14:14:21.527666,599617895482878004,71.00
2025-06-26 14:14:21.527666,599617895482878004,83.00
2025-06-26 14:14:21.527666,599617895482878004,95.00
2025-06-26 14:14:21.527666,599617895482878004,100.00
2025-06-26 14:14:21.527666,599617895482878004,105.00
2025-06-26 14:14:21.527666,599617895482878004,102.00
2025-06-26 14:14:21.527666,599617895482878004,90.00
2025-06-26 14:14:21.527666,599617895482878004,56.00
2025-06-26 14:14:21.527666,599617895482878004,14.00
2025-06-26 14:14:21.527666,599617895482878004,-29.00
2025-06-26 14:14:21.527666,599617895482878004,-80.00
2025-06-26 14:14:22.070049,599617896043575045,-122.00
2025-06-26 14:14:22.070049,599617896043575045,-144.00
2025-06-26 14:14:22.070049,599617896043575045,-159.00
2025-06-26 14:14:22.070049,599617896043575045,-169.00
2025-06-26 14:14:22.070049,599617896043575045,-166.00
2025-06-26 14:14:22.070049,599617896043575045,-161.00
2025-06-26 14:14:22.070049,599617896043575045,-161.00
2025-06-26 14:14:22.070049,599617896043575045,-156.00
2025-06-26 14:14:22.070049,599617896043575045,-149.00
2025-06-26 14:14:22.070049,599617896043575045,-139.00
2025-06-26 14:14:22.070049,599617896043575045,-134.00
2025-06-26 14:14:22.070049,599617896043575045,-129.00
2025-06-26 14:14:22.070049,599617896043575045,-124.00
2025-06-26 14:14:22.070049,599617896043575045,-115.00
2025-06-26 14:14:22.070049,599617896043575045,-107.00
2025-06-26 14:14:22.070049,599617896043575045,-107.00
2025-06-26 14:14:22.070049,599617896043575045,-107.00
2025-06-26 14:14:22.070049,599617896043575045,-100.00
2025-06-26 14:14:22.070049,599617896043575045,-93.00
2025-06-26 14:14:22.070049,599617896043575045,-93.00
2025-06-26 14:14:22.070049,599617896043575045,-90.00
2025-06-26 14:14:22.070049,599617896043575045,-88.00
2025-06-26 14:14:22.070049,599617896043575045,-88.00
2025-06-26 14:14:22.070049,599617896043575045,-88.00
2025-06-26 14:14:22.070049,599617896043575045,-88.00
2025-06-26 14:14:22.070049,599617896043575045,-88.00
2025-06-26 14:14:22.070049,599617896043575045,-83.00
2025-06-26 14:14:22.070049,599617896043575045,-80.00
2025-06-26 14:14:22.070049,599617896043575045,-83.00
2025-06-26 14:14:22.070049,599617896043575045,-88.00
2025-06-26 14:14:22.070049,599617896043575045,-88.00
2025-06-26 14:14:22.070049,599617896043575045,-88.00
2025-06-26 14:14:22.070049,599617896043575045,-80.00
2025-06-26 14:14:22.070049,599617896043575045,-63.00
2025-06-26 14:14:22.070049,599617896043575045,-41.00
2025-06-26 14:14:22.070049,599617896043575045,-36.00
2025-06-26 14:14:22.070049,599617896043575045,-46.00
2025-06-26 14:14:22.070049,599617896043575045,-48.00
2025-06-26 14:14:22.070049,599617896043575045,-48.00
2025-06-26 14:14:22.070049,599617896043575045,-56.00
2025-06-26 14:14:22.070049,599617896043575045,-63.00
2025-06-26 14:14:22.070049,599617896043575045,-63.00
2025-06-26 14:14:22.070049,599617896043575045,-63.00
2025-06-26 14:14:22.070049,599617896043575045,-63.00
2025-06-26 14:14:22.070049,599617896043575045,-58.00
2025-06-26 14:14:22.070049,599617896043575045,-61.00
2025-06-26 14:14:22.070049,599617896043575045,-63.00
2025-06-26 14:14:22.070049,599617896043575045,7.00
2025-06-26 14:14:22.070049,599617896043575045,222.00
2025-06-26 14:14:22.070049,599617896043575045,529.00
2025-06-26 14:14:22.070049,599617896043575045,710.00
2025-06-26 14:14:22.070049,599617896043575045,494.00
2025-06-26 14:14:22.070049,599617896043575045,-41.00
2025-06-26 14:14:22.070049,599617896043575045,-315.00
2025-06-26 14:14:22.070049,599617896043575045,-129.00
2025-06-26 14:14:22.070049,599617896043575045,-17.00
2025-06-26 14:14:22.070049,599617896043575045,-112.00
2025-06-26 14:14:22.070049,599617896043575045,-117.00
2025-06-26 14:14:22.070049,599617896043575045,-66.00
2025-06-26 14:14:22.070049,599617896043575045,-78.00
2025-06-26 14:14:22.070049,599617896043575045,-78.00
2025-06-26 14:14:22.070049,599617896043575045,-51.00
2025-06-26 14:14:22.070049,599617896043575045,-46.00
2025-06-26 14:14:22.070049,599617896043575045,-46.00
2025-06-26 14:14:22.070049,599617896043575045,-29.00
2025-06-26 14:14:22.070049,599617896043575045,-17.00
2025-06-26 14:14:22.070049,599617896043575045,-14.00
2025-06-26 14:14:22.070049,599617896043575045,-7.00
2025-06-26 14:14:22.070049,599617896043575045,2.00
2025-06-26 14:14:22.070049,599617896043575045,14.00
2025-06-26 14:14:22.070049,599617896043575045,24.00
2025-06-26 14:14:22.070049,599617896043575045,36.00
2025-06-26 14:14:22.070049,599617896043575045,48.00
2025-06-26 14:14:22.638550,599617896604241568,63.00
2025-06-26 14:14:22.638550,599617896604241568,78.00
2025-06-26 14:14:22.638550,599617896604241568,85.00
2025-06-26 14:14:22.638550,599617896604241568,93.00
2025-06-26 14:14:22.638550,599617896604241568,102.00
2025-06-26 14:14:22.638550,599617896604241568,110.00
2025-06-26 14:14:22.638550,599617896604241568,112.00
2025-06-26 14:14:22.638550,599617896604241568,105.00
2025-06-26 14:14:22.638550,599617896604241568,80.00
2025-06-26 14:14:22.638550,599617896604241568,41.00
2025-06-26 14:14:22.638550,599617896604241568,-12.00
2025-06-26 14:14:22.638550,599617896604241568,-61.00
2025-06-26 14:14:22.638550,599617896604241568,-97.00
2025-06-26 14:14:22.638550,599617896604241568,-127.00
2025-06-26 14:14:22.638550,599617896604241568,-144.00
2025-06-26 14:14:22.638550,599617896604241568,-151.00
2025-06-26 14:14:22.638550,599617896604241568,-151.00
2025-06-26 14:14:22.638550,599617896604241568,-149.00
2025-06-26 14:14:22.638550,599617896604241568,-144.00
2025-06-26 14:14:22.638550,599617896604241568,-139.00
2025-06-26 14:14:22.638550,599617896604241568,-137.00
2025-06-26 14:14:22.638550,599617896604241568,-132.00
2025-06-26 14:14:22.638550,599617896604241568,-127.00
2025-06-26 14:14:22.638550,599617896604241568,-122.00
2025-06-26 14:14:22.638550,599617896604241568,-117.00
2025-06-26 14:14:22.638550,599617896604241568,-112.00
2025-06-26 14:14:22.638550,599617896604241568,-110.00
2025-06-26 14:14:22.638550,599617896604241568,-105.00
2025-06-26 14:14:22.638550,599617896604241568,-97.00
2025-06-26 14:14:22.638550,599617896604241568,-95.00
2025-06-26 14:14:22.638550,599617896604241568,-95.00
2025-06-26 14:14:22.638550,599617896604241568,-93.00
2025-06-26 14:14:22.638550,599617896604241568,-90.00
2025-06-26 14:14:22.638550,599617896604241568,-90.00
2025-06-26 14:14:22.638550,599617896604241568,-93.00
2025-06-26 14:14:22.638550,599617896604241568,-90.00
2025-06-26 14:14:22.638550,599617896604241568,-90.00
2025-06-26 14:14:22.638550,599617896604241568,-88.00
2025-06-26 14:14:22.638550,599617896604241568,-85.00
2025-06-26 14:14:22.638550,599617896604241568,-88.00
2025-06-26 14:14:22.638550,599617896604241568,-85.00
2025-06-26 14:14:22.638550,599617896604241568,-83.00
2025-06-26 14:14:22.638550,599617896604241568,-83.00
2025-06-26 14:14:22.638550,599617896604241568,-85.00
2025-06-26 14:14:22.638550,599617896604241568,-85.00
2025-06-26 14:14:22.638550,599617896604241568,-80.00
2025-06-26 14:14:22.638550,599617896604241568,-75.00
2025-06-26 14:14:22.638550,599617896604241568,-75.00
2025-06-26 14:14:22.638550,599617896604241568,-78.00
2025-06-26 14:14:22.638550,599617896604241568,-75.00
2025-06-26 14:14:22.638550,599617896604241568,-75.00
2025-06-26 14:14:22.638550,599617896604241568,-80.00
2025-06-26 14:14:22.638550,599617896604241568,-83.00
2025-06-26 14:14:22.638550,599617896604241568,-75.00
2025-06-26 14:14:22.638550,599617896604241568,-58.00
2025-06-26 14:14:22.638550,599617896604241568,-36.00
2025-06-26 14:14:22.638550,599617896604241568,-29.00
2025-06-26 14:14:22.638550,599617896604241568,-39.00
2025-06-26 14:14:22.638550,599617896604241568,-46.00
2025-06-26 14:14:22.638550,599617896604241568,-46.00
2025-06-26 14:14:22.638550,599617896604241568,-56.00
2025-06-26 14:14:22.638550,599617896604241568,-63.00
2025-06-26 14:14:22.638550,599617896604241568,-63.00
2025-06-26 14:14:22.638550,599617896604241568,-61.00
2025-06-26 14:14:22.638550,599617896604241568,-61.00
2025-06-26 14:14:22.638550,599617896604241568,-61.00
2025-06-26 14:14:22.638550,599617896604241568,-61.00
2025-06-26 14:14:22.638550,599617896604241568,-68.00
2025-06-26 14:14:22.638550,599617896604241568,-24.00
2025-06-26 14:14:22.638550,599617896604241568,146.00
2025-06-26 14:14:22.638550,599617896604241568,431.00
2025-06-26 14:14:22.638550,599617896604241568,663.00
2025-06-26 14:14:22.638550,599617896604241568,570.00
2025-06-26 14:14:23.178316,599617897164938609,93.00
2025-06-26 14:14:23.178316,599617897164938609,-281.00
2025-06-26 14:14:23.178316,599617897164938609,-178.00
2025-06-26 14:14:23.178316,599617897164938609,-17.00
2025-06-26 14:14:23.178316,599617897164938609,-88.00
2025-06-26 14:14:23.178316,599617897164938609,-122.00
2025-06-26 14:14:23.178316,599617897164938609,-71.00
2025-06-26 14:14:23.178316,599617897164938609,-71.00
2025-06-26 14:14:23.178316,599617897164938609,-80.00
2025-06-26 14:14:23.178316,599617897164938609,-56.00
2025-06-26 14:14:23.178316,599617897164938609,-44.00
2025-06-26 14:14:23.178316,599617897164938609,-46.00
2025-06-26 14:14:23.178316,599617897164938609,-36.00
2025-06-26 14:14:23.178316,599617897164938609,-24.00
2025-06-26 14:14:23.178316,599617897164938609,-19.00
2025-06-26 14:14:23.178316,599617897164938609,-9.00
2025-06-26 14:14:23.178316,599617897164938609,-2.00
2025-06-26 14:14:23.178316,599617897164938609,7.00
2025-06-26 14:14:23.178316,599617897164938609,17.00
2025-06-26 14:14:23.178316,599617897164938609,24.00
2025-06-26 14:14:23.178316,599617897164938609,34.00
2025-06-26 14:14:23.178316,599617897164938609,48.00
2025-06-26 14:14:23.178316,599617897164938609,61.00
2025-06-26 14:14:23.178316,599617897164938609,71.00
2025-06-26 14:14:23.178316,599617897164938609,80.00
2025-06-26 14:14:23.178316,599617897164938609,88.00
2025-06-26 14:14:23.178316,599617897164938609,93.00
2025-06-26 14:14:23.178316,599617897164938609,95.00
2025-06-26 14:14:23.178316,599617897164938609,95.00
2025-06-26 14:14:23.178316,599617897164938609,88.00
2025-06-26 14:14:23.178316,599617897164938609,58.00
2025-06-26 14:14:23.178316,599617897164938609,14.00
2025-06-26 14:14:23.178316,599617897164938609,-31.00
2025-06-26 14:14:23.178316,599617897164938609,-71.00
2025-06-26 14:14:23.178316,599617897164938609,-102.00
2025-06-26 14:14:23.178316,599617897164938609,-127.00
2025-06-26 14:14:23.178316,599617897164938609,-139.00
2025-06-26 14:14:23.178316,599617897164938609,-137.00
2025-06-26 14:14:23.178316,599617897164938609,-137.00
2025-06-26 14:14:23.178316,599617897164938609,-137.00
2025-06-26 14:14:23.178316,599617897164938609,-137.00
2025-06-26 14:14:23.178316,599617897164938609,-139.00
2025-06-26 14:14:23.178316,599617897164938609,-134.00
2025-06-26 14:14:23.178316,599617897164938609,-124.00
2025-06-26 14:14:23.178316,599617897164938609,-120.00
2025-06-26 14:14:23.178316,599617897164938609,-112.00
2025-06-26 14:14:23.178316,599617897164938609,-105.00
2025-06-26 14:14:23.178316,599617897164938609,-100.00
2025-06-26 14:14:23.178316,599617897164938609,-95.00
2025-06-26 14:14:23.178316,599617897164938609,-95.00
2025-06-26 14:14:23.178316,599617897164938609,-93.00
2025-06-26 14:14:23.178316,599617897164938609,-90.00
2025-06-26 14:14:23.178316,599617897164938609,-88.00
2025-06-26 14:14:23.178316,599617897164938609,-85.00
2025-06-26 14:14:23.178316,599617897164938609,-83.00
2025-06-26 14:14:23.178316,599617897164938609,-88.00
2025-06-26 14:14:23.178316,599617897164938609,-90.00
2025-06-26 14:14:23.178316,599617897164938609,-88.00
2025-06-26 14:14:23.178316,599617897164938609,-80.00
2025-06-26 14:14:23.178316,599617897164938609,-78.00
2025-06-26 14:14:23.178316,599617897164938609,-80.00
2025-06-26 14:14:23.178316,599617897164938609,-75.00
2025-06-26 14:14:23.178316,599617897164938609,-75.00
2025-06-26 14:14:23.178316,599617897164938609,-80.00
2025-06-26 14:14:23.178316,599617897164938609,-71.00
2025-06-26 14:14:23.178316,599617897164938609,-68.00
2025-06-26 14:14:23.178316,599617897164938609,-73.00
2025-06-26 14:14:23.178316,599617897164938609,-71.00
2025-06-26 14:14:23.178316,599617897164938609,-66.00
2025-06-26 14:14:23.178316,599617897164938609,-66.00
2025-06-26 14:14:23.178316,599617897164938609,-61.00
2025-06-26 14:14:23.178316,599617897164938609,-56.00
2025-06-26 14:14:23.178316,599617897164938609,-56.00
2025-06-26 14:14:23.718025,599617897725605132,-58.00
2025-06-26 14:14:23.718025,599617897725605132,-48.00
2025-06-26 14:14:23.718025,599617897725605132,-44.00
2025-06-26 14:14:23.718025,599617897725605132,-56.00
2025-06-26 14:14:23.718025,599617897725605132,-66.00
2025-06-26 14:14:23.718025,599617897725605132,-61.00
2025-06-26 14:14:23.718025,599617897725605132,-48.00
2025-06-26 14:14:23.718025,599617897725605132,-31.00
2025-06-26 14:14:23.718025,599617897725605132,-17.00
2025-06-26 14:14:23.718025,599617897725605132,-12.00
2025-06-26 14:14:23.718025,599617897725605132,-17.00
2025-06-26 14:14:23.718025,599617897725605132,-14.00
2025-06-26 14:14:23.718025,599617897725605132,-22.00
2025-06-26 14:14:23.718025,599617897725605132,-41.00
2025-06-26 14:14:23.718025,599617897725605132,-51.00
2025-06-26 14:14:23.718025,599617897725605132,-51.00
2025-06-26 14:14:23.718025,599617897725605132,-48.00
2025-06-26 14:14:23.718025,599617897725605132,-46.00
2025-06-26 14:14:23.718025,599617897725605132,-44.00
2025-06-26 14:14:23.718025,599617897725605132,-51.00
2025-06-26 14:14:23.718025,599617897725605132,-44.00
2025-06-26 14:14:23.718025,599617897725605132,61.00
2025-06-26 14:14:23.718025,599617897725605132,293.00
2025-06-26 14:14:23.718025,599617897725605132,560.00
2025-06-26 14:14:23.718025,599617897725605132,646.00
2025-06-26 14:14:23.718025,599617897725605132,338.00
2025-06-26 14:14:23.718025,599617897725605132,-144.00
2025-06-26 14:14:23.718025,599617897725605132,-262.00
2025-06-26 14:14:23.718025,599617897725605132,-61.00
2025-06-26 14:14:23.718025,599617897725605132,-31.00
2025-06-26 14:14:23.718025,599617897725605132,-124.00
2025-06-26 14:14:23.718025,599617897725605132,-95.00
2025-06-26 14:14:23.718025,599617897725605132,-53.00
2025-06-26 14:14:23.718025,599617897725605132,-73.00
2025-06-26 14:14:23.718025,599617897725605132,-66.00
2025-06-26 14:14:23.718025,599617897725605132,-48.00
2025-06-26 14:14:23.718025,599617897725605132,-46.00
2025-06-26 14:14:23.718025,599617897725605132,-31.00
2025-06-26 14:14:23.718025,599617897725605132,-24.00
2025-06-26 14:14:23.718025,599617897725605132,-31.00
2025-06-26 14:14:23.718025,599617897725605132,-26.00
2025-06-26 14:14:23.718025,599617897725605132,-12.00
2025-06-26 14:14:23.718025,599617897725605132,-4.00
2025-06-26 14:14:23.718025,599617897725605132,4.00
2025-06-26 14:14:23.718025,599617897725605132,19.00
2025-06-26 14:14:23.718025,599617897725605132,26.00
2025-06-26 14:14:23.718025,599617897725605132,34.00
2025-06-26 14:14:23.718025,599617897725605132,56.00
2025-06-26 14:14:23.718025,599617897725605132,73.00
2025-06-26 14:14:23.718025,599617897725605132,71.00
2025-06-26 14:14:23.718025,599617897725605132,73.00
2025-06-26 14:14:23.718025,599617897725605132,83.00
2025-06-26 14:14:23.718025,599617897725605132,90.00
2025-06-26 14:14:23.718025,599617897725605132,85.00
2025-06-26 14:14:23.718025,599617897725605132,80.00
2025-06-26 14:14:23.718025,599617897725605132,68.00
2025-06-26 14:14:23.718025,599617897725605132,36.00
2025-06-26 14:14:23.718025,599617897725605132,-12.00
2025-06-26 14:14:23.718025,599617897725605132,-56.00
2025-06-26 14:14:23.718025,599617897725605132,-88.00
2025-06-26 14:14:23.718025,599617897725605132,-110.00
2025-06-26 14:14:23.718025,599617897725605132,-127.00
2025-06-26 14:14:23.718025,599617897725605132,-134.00
2025-06-26 14:14:23.718025,599617897725605132,-139.00
2025-06-26 14:14:23.718025,599617897725605132,-139.00
2025-06-26 14:14:23.718025,599617897725605132,-134.00
2025-06-26 14:14:23.718025,599617897725605132,-124.00
2025-06-26 14:14:23.718025,599617897725605132,-122.00
2025-06-26 14:14:23.718025,599617897725605132,-124.00
2025-06-26 14:14:23.718025,599617897725605132,-115.00
2025-06-26 14:14:23.718025,599617897725605132,-105.00
2025-06-26 14:14:23.718025,599617897725605132,-107.00
2025-06-26 14:14:23.718025,599617897725605132,-105.00
2025-06-26 14:14:24.316586,599617898286302175,-95.00
2025-06-26 14:14:24.316586,599617898286302175,-93.00
2025-06-26 14:14:24.316586,599617898286302175,-95.00
2025-06-26 14:14:24.316586,599617898286302175,-93.00
2025-06-26 14:14:24.316586,599617898286302175,-90.00
2025-06-26 14:14:24.316586,599617898286302175,-93.00
2025-06-26 14:14:24.316586,599617898286302175,-88.00
2025-06-26 14:14:24.316586,599617898286302175,-83.00
2025-06-26 14:14:24.316586,599617898286302175,-80.00
2025-06-26 14:14:24.316586,599617898286302175,-83.00
2025-06-26 14:14:24.316586,599617898286302175,-83.00
2025-06-26 14:14:24.316586,599617898286302175,-80.00
2025-06-26 14:14:24.316586,599617898286302175,-80.00
2025-06-26 14:14:24.316586,599617898286302175,-83.00
2025-06-26 14:14:24.316586,599617898286302175,-78.00
2025-06-26 14:14:24.316586,599617898286302175,-75.00
2025-06-26 14:14:24.316586,599617898286302175,-73.00
2025-06-26 14:14:24.316586,599617898286302175,-71.00
2025-06-26 14:14:24.316586,599617898286302175,-71.00
2025-06-26 14:14:24.316586,599617898286302175,-68.00
2025-06-26 14:14:24.316586,599617898286302175,-63.00
2025-06-26 14:14:24.316586,599617898286302175,-61.00
2025-06-26 14:14:24.316586,599617898286302175,-63.00
2025-06-26 14:14:24.316586,599617898286302175,-61.00
2025-06-26 14:14:24.316586,599617898286302175,-61.00
2025-06-26 14:14:24.316586,599617898286302175,-61.00
2025-06-26 14:14:24.316586,599617898286302175,-58.00
2025-06-26 14:14:24.316586,599617898286302175,-56.00
2025-06-26 14:14:24.316586,599617898286302175,-56.00
2025-06-26 14:14:24.316586,599617898286302175,-56.00
2025-06-26 14:14:24.316586,599617898286302175,-58.00
2025-06-26 14:14:24.316586,599617898286302175,-66.00
2025-06-26 14:14:24.316586,599617898286302175,-61.00
2025-06-26 14:14:24.316586,599617898286302175,-46.00
2025-06-26 14:14:24.316586,599617898286302175,-26.00
2025-06-26 14:14:24.316586,599617898286302175,-4.00
2025-06-26 14:14:24.316586,599617898286302175,-4.00
2025-06-26 14:14:24.316586,599617898286302175,-19.00
2025-06-26 14:14:24.316586,599617898286302175,-29.00
2025-06-26 14:14:24.316586,599617898286302175,-39.00
2025-06-26 14:14:24.316586,599617898286302175,-53.00
2025-06-26 14:14:24.316586,599617898286302175,-53.00
2025-06-26 14:14:24.316586,599617898286302175,-53.00
2025-06-26 14:14:24.316586,599617898286302175,-56.00
2025-06-26 14:14:24.316586,599617898286302175,-46.00
2025-06-26 14:14:24.316586,599617898286302175,-44.00
2025-06-26 14:14:24.316586,599617898286302175,-58.00
2025-06-26 14:14:24.316586,599617898286302175,-36.00
2025-06-26 14:14:24.316586,599617898286302175,95.00
2025-06-26 14:14:24.316586,599617898286302175,352.00
2025-06-26 14:14:24.316586,599617898286302175,609.00
2025-06-26 14:14:24.316586,599617898286302175,612.00
2025-06-26 14:14:24.316586,599617898286302175,218.00
2025-06-26 14:14:24.316586,599617898286302175,-210.00
2025-06-26 14:14:24.316586,599617898286302175,-215.00
2025-06-26 14:14:24.316586,599617898286302175,-31.00
2025-06-26 14:14:24.316586,599617898286302175,-48.00
2025-06-26 14:14:24.316586,599617898286302175,-112.00
2025-06-26 14:14:24.316586,599617898286302175,-71.00
2025-06-26 14:14:24.316586,599617898286302175,-48.00
2025-06-26 14:14:24.316586,599617898286302175,-63.00
2025-06-26 14:14:24.316586,599617898286302175,-53.00
2025-06-26 14:14:24.316586,599617898286302175,-41.00
2025-06-26 14:14:24.316586,599617898286302175,-39.00
2025-06-26 14:14:24.316586,599617898286302175,-29.00
2025-06-26 14:14:24.316586,599617898286302175,-17.00
2025-06-26 14:14:24.316586,599617898286302175,-7.00
2025-06-26 14:14:24.316586,599617898286302175,2.00
2025-06-26 14:14:24.316586,599617898286302175,12.00
2025-06-26 14:14:24.316586,599617898286302175,17.00
2025-06-26 14:14:24.316586,599617898286302175,26.00
2025-06-26 14:14:24.316586,599617898286302175,31.00
2025-06-26 14:14:24.316586,599617898286302175,31.00
2025-06-26 14:14:24.859552,599617898846968698,46.00
2025-06-26 14:14:24.859552,599617898846968698,66.00
2025-06-26 14:14:24.859552,599617898846968698,75.00
2025-06-26 14:14:24.859552,599617898846968698,78.00
2025-06-26 14:14:24.859552,599617898846968698,85.00
2025-06-26 14:14:24.859552,599617898846968698,97.00
2025-06-26 14:14:24.859552,599617898846968698,100.00
2025-06-26 14:14:24.859552,599617898846968698,95.00
2025-06-26 14:14:24.859552,599617898846968698,95.00
2025-06-26 14:14:24.859552,599617898846968698,78.00
2025-06-26 14:14:24.859552,599617898846968698,36.00
2025-06-26 14:14:24.859552,599617898846968698,-9.00
2025-06-26 14:14:24.859552,599617898846968698,-46.00
2025-06-26 14:14:24.859552,599617898846968698,-78.00
2025-06-26 14:14:24.859552,599617898846968698,-105.00
2025-06-26 14:14:24.859552,599617898846968698,-122.00
2025-06-26 14:14:24.859552,599617898846968698,-129.00
2025-06-26 14:14:24.859552,599617898846968698,-129.00
2025-06-26 14:14:24.859552,599617898846968698,-127.00
2025-06-26 14:14:24.859552,599617898846968698,-124.00
2025-06-26 14:14:24.859552,599617898846968698,-120.00
2025-06-26 14:14:24.859552,599617898846968698,-115.00
2025-06-26 14:14:24.859552,599617898846968698,-107.00
2025-06-26 14:14:24.859552,599617898846968698,-102.00
2025-06-26 14:14:24.859552,599617898846968698,-95.00
2025-06-26 14:14:24.859552,599617898846968698,-88.00
2025-06-26 14:14:24.859552,599617898846968698,-88.00
2025-06-26 14:14:24.859552,599617898846968698,-85.00
2025-06-26 14:14:24.859552,599617898846968698,-80.00
2025-06-26 14:14:24.859552,599617898846968698,-75.00
2025-06-26 14:14:24.859552,599617898846968698,-78.00
2025-06-26 14:14:24.859552,599617898846968698,-83.00
2025-06-26 14:14:24.859552,599617898846968698,-75.00
2025-06-26 14:14:24.859552,599617898846968698,-71.00
2025-06-26 14:14:24.859552,599617898846968698,-75.00
2025-06-26 14:14:24.859552,599617898846968698,-75.00
2025-06-26 14:14:24.859552,599617898846968698,-68.00
2025-06-26 14:14:24.859552,599617898846968698,-68.00
2025-06-26 14:14:24.859552,599617898846968698,-75.00
2025-06-26 14:14:24.859552,599617898846968698,-75.00
2025-06-26 14:14:24.859552,599617898846968698,-68.00
2025-06-26 14:14:24.859552,599617898846968698,-66.00
2025-06-26 14:14:24.859552,599617898846968698,-63.00
2025-06-26 14:14:24.859552,599617898846968698,-61.00
2025-06-26 14:14:24.859552,599617898846968698,-66.00
2025-06-26 14:14:24.859552,599617898846968698,-68.00
2025-06-26 14:14:24.859552,599617898846968698,-58.00
2025-06-26 14:14:24.859552,599617898846968698,-56.00
2025-06-26 14:14:24.859552,599617898846968698,-63.00
2025-06-26 14:14:24.859552,599617898846968698,-61.00
2025-06-26 14:14:24.859552,599617898846968698,-51.00
2025-06-26 14:14:24.859552,599617898846968698,-51.00
2025-06-26 14:14:24.859552,599617898846968698,-53.00
2025-06-26 14:14:24.859552,599617898846968698,-53.00
2025-06-26 14:14:24.859552,599617898846968698,-58.00
2025-06-26 14:14:24.859552,599617898846968698,-56.00
2025-06-26 14:14:24.859552,599617898846968698,-46.00
2025-06-26 14:14:24.859552,599617898846968698,-48.00
2025-06-26 14:14:24.859552,599617898846968698,-61.00
2025-06-26 14:14:24.859552,599617898846968698,-61.00
2025-06-26 14:14:24.859552,599617898846968698,-51.00
2025-06-26 14:14:24.859552,599617898846968698,-34.00
2025-06-26 14:14:24.859552,599617898846968698,-14.00
2025-06-26 14:14:24.859552,599617898846968698,-12.00
2025-06-26 14:14:24.859552,599617898846968698,-24.00
2025-06-26 14:14:24.859552,599617898846968698,-31.00
2025-06-26 14:14:24.859552,599617898846968698,-34.00
2025-06-26 14:14:24.859552,599617898846968698,-46.00
2025-06-26 14:14:24.859552,599617898846968698,-56.00
2025-06-26 14:14:24.859552,599617898846968698,-56.00
2025-06-26 14:14:24.859552,599617898846968698,-48.00
2025-06-26 14:14:24.859552,599617898846968698,-51.00
2025-06-26 14:14:24.859552,599617898846968698,-46.00
2025-06-26 14:14:25.429485,599617899407665739,-41.00
2025-06-26 14:14:25.429485,599617899407665739,-48.00
2025-06-26 14:14:25.429485,599617899407665739,29.00
2025-06-26 14:14:25.429485,599617899407665739,262.00
2025-06-26 14:14:25.429485,599617899407665739,521.00
2025-06-26 14:14:25.429485,599617899407665739,605.00
2025-06-26 14:14:25.429485,599617899407665739,357.00
2025-06-26 14:14:25.429485,599617899407665739,-88.00
2025-06-26 14:14:25.429485,599617899407665739,-264.00
2025-06-26 14:14:25.429485,599617899407665739,-90.00
2025-06-26 14:14:25.429485,599617899407665739,-14.00
2025-06-26 14:14:25.429485,599617899407665739,-93.00
2025-06-26 14:14:25.429485,599617899407665739,-73.00
2025-06-26 14:14:25.429485,599617899407665739,-41.00
2025-06-26 14:14:25.429485,599617899407665739,-78.00
2025-06-26 14:14:25.429485,599617899407665739,-73.00
2025-06-26 14:14:25.429485,599617899407665739,-34.00
2025-06-26 14:14:25.429485,599617899407665739,-34.00
2025-06-26 14:14:25.429485,599617899407665739,-39.00
2025-06-26 14:14:25.429485,599617899407665739,-26.00
2025-06-26 14:14:25.429485,599617899407665739,-9.00
2025-06-26 14:14:25.429485,599617899407665739,2.00
2025-06-26 14:14:25.429485,599617899407665739,9.00
2025-06-26 14:14:25.429485,599617899407665739,7.00
2025-06-26 14:14:25.429485,599617899407665739,4.00
2025-06-26 14:14:25.429485,599617899407665739,17.00
2025-06-26 14:14:25.429485,599617899407665739,34.00
2025-06-26 14:14:25.429485,599617899407665739,44.00
2025-06-26 14:14:25.429485,599617899407665739,51.00
2025-06-26 14:14:25.429485,599617899407665739,63.00
2025-06-26 14:14:25.429485,599617899407665739,73.00
2025-06-26 14:14:25.429485,599617899407665739,73.00
2025-06-26 14:14:25.429485,599617899407665739,78.00
2025-06-26 14:14:25.429485,599617899407665739,95.00
2025-06-26 14:14:25.429485,599617899407665739,95.00
2025-06-26 14:14:25.429485,599617899407665739,85.00
2025-06-26 14:14:25.429485,599617899407665739,73.00
2025-06-26 14:14:25.429485,599617899407665739,51.00
2025-06-26 14:14:25.429485,599617899407665739,12.00
2025-06-26 14:14:25.429485,599617899407665739,-34.00
2025-06-26 14:14:25.429485,599617899407665739,-68.00
2025-06-26 14:14:25.429485,599617899407665739,-88.00
2025-06-26 14:14:25.429485,599617899407665739,-110.00
2025-06-26 14:14:25.429485,599617899407665739,-120.00
2025-06-26 14:14:25.429485,599617899407665739,-120.00
2025-06-26 14:14:25.429485,599617899407665739,-124.00
2025-06-26 14:14:25.429485,599617899407665739,-134.00
2025-06-26 14:14:25.429485,599617899407665739,-124.00
2025-06-26 14:14:25.429485,599617899407665739,-110.00
2025-06-26 14:14:25.429485,599617899407665739,-102.00
2025-06-26 14:14:25.429485,599617899407665739,-95.00
2025-06-26 14:14:25.429485,599617899407665739,-93.00
2025-06-26 14:14:25.429485,599617899407665739,-93.00
2025-06-26 14:14:25.429485,599617899407665739,-95.00
2025-06-26 14:14:25.429485,599617899407665739,-93.00
2025-06-26 14:14:25.429485,599617899407665739,-85.00
2025-06-26 14:14:25.429485,599617899407665739,-75.00
2025-06-26 14:14:25.429485,599617899407665739,-78.00
2025-06-26 14:14:25.429485,599617899407665739,-90.00
2025-06-26 14:14:25.429485,599617899407665739,-90.00
2025-06-26 14:14:25.429485,599617899407665739,-83.00
2025-06-26 14:14:25.429485,599617899407665739,-78.00
2025-06-26 14:14:25.429485,599617899407665739,-75.00
2025-06-26 14:14:25.429485,599617899407665739,-71.00
2025-06-26 14:14:25.429485,599617899407665739,-75.00
2025-06-26 14:14:25.429485,599617899407665739,-80.00
2025-06-26 14:14:25.429485,599617899407665739,-80.00
2025-06-26 14:14:25.429485,599617899407665739,-78.00
2025-06-26 14:14:25.429485,599617899407665739,-75.00
2025-06-26 14:14:25.429485,599617899407665739,-73.00
2025-06-26 14:14:25.429485,599617899407665739,-71.00
2025-06-26 14:14:25.429485,599617899407665739,-73.00
2025-06-26 14:14:25.429485,599617899407665739,-68.00
2025-06-26 14:14:25.967019,599617899968332262,-61.00
2025-06-26 14:14:25.967019,599617899968332262,-66.00
2025-06-26 14:14:25.967019,599617899968332262,-83.00
2025-06-26 14:14:25.967019,599617899968332262,-83.00
2025-06-26 14:14:25.967019,599617899968332262,-68.00
2025-06-26 14:14:25.967019,599617899968332262,-68.00
2025-06-26 14:14:25.967019,599617899968332262,-71.00
2025-06-26 14:14:25.967019,599617899968332262,-56.00
2025-06-26 14:14:25.967019,599617899968332262,-61.00
2025-06-26 14:14:25.967019,599617899968332262,-75.00
2025-06-26 14:14:25.967019,599617899968332262,-73.00
2025-06-26 14:14:25.967019,599617899968332262,-61.00
2025-06-26 14:14:25.967019,599617899968332262,-46.00
2025-06-26 14:14:25.967019,599617899968332262,-26.00
2025-06-26 14:14:25.967019,599617899968332262,-24.00
2025-06-26 14:14:25.967019,599617899968332262,-39.00
2025-06-26 14:14:25.967019,599617899968332262,-39.00
2025-06-26 14:14:25.967019,599617899968332262,-34.00
2025-06-26 14:14:25.967019,599617899968332262,-48.00
2025-06-26 14:14:25.967019,599617899968332262,-63.00
2025-06-26 14:14:25.967019,599617899968332262,-73.00
2025-06-26 14:14:25.967019,599617899968332262,-66.00
2025-06-26 14:14:25.967019,599617899968332262,-56.00
2025-06-26 14:14:25.967019,599617899968332262,-56.00
2025-06-26 14:14:25.967019,599617899968332262,-68.00
2025-06-26 14:14:25.967019,599617899968332262,-73.00
2025-06-26 14:14:25.967019,599617899968332262,-9.00
2025-06-26 14:14:25.967019,599617899968332262,161.00
2025-06-26 14:14:25.967019,599617899968332262,413.00
2025-06-26 14:14:25.967019,599617899968332262,595.00
2025-06-26 14:14:25.967019,599617899968332262,470.00
2025-06-26 14:14:25.967019,599617899968332262,36.00
2025-06-26 14:14:25.967019,599617899968332262,-267.00
2025-06-26 14:14:25.967019,599617899968332262,-151.00
2025-06-26 14:14:25.967019,599617899968332262,-9.00
2025-06-26 14:14:25.967019,599617899968332262,-75.00
2025-06-26 14:14:25.967019,599617899968332262,-122.00
2025-06-26 14:14:25.967019,599617899968332262,-85.00
2025-06-26 14:14:25.967019,599617899968332262,-73.00
2025-06-26 14:14:25.967019,599617899968332262,-71.00
2025-06-26 14:14:25.967019,599617899968332262,-53.00
2025-06-26 14:14:25.967019,599617899968332262,-53.00
2025-06-26 14:14:25.967019,599617899968332262,-51.00
2025-06-26 14:14:25.967019,599617899968332262,-39.00
2025-06-26 14:14:25.967019,599617899968332262,-31.00
2025-06-26 14:14:25.967019,599617899968332262,-24.00
2025-06-26 14:14:25.967019,599617899968332262,-14.00
2025-06-26 14:14:25.967019,599617899968332262,-9.00
2025-06-26 14:14:25.967019,599617899968332262,4.00
2025-06-26 14:14:25.967019,599617899968332262,19.00
2025-06-26 14:14:25.967019,599617899968332262,26.00
2025-06-26 14:14:25.967019,599617899968332262,36.00
2025-06-26 14:14:25.967019,599617899968332262,48.00
2025-06-26 14:14:25.967019,599617899968332262,51.00
2025-06-26 14:14:25.967019,599617899968332262,58.00
2025-06-26 14:14:25.967019,599617899968332262,63.00
2025-06-26 14:14:25.967019,599617899968332262,71.00
2025-06-26 14:14:25.967019,599617899968332262,83.00
2025-06-26 14:14:25.967019,599617899968332262,83.00
2025-06-26 14:14:25.967019,599617899968332262,80.00
2025-06-26 14:14:25.967019,599617899968332262,73.00
2025-06-26 14:14:25.967019,599617899968332262,51.00
2025-06-26 14:14:25.967019,599617899968332262,17.00
2025-06-26 14:14:25.967019,599617899968332262,-26.00
2025-06-26 14:14:25.967019,599617899968332262,-63.00
2025-06-26 14:14:25.967019,599617899968332262,-88.00
2025-06-26 14:14:25.967019,599617899968332262,-107.00
2025-06-26 14:14:25.967019,599617899968332262,-122.00
2025-06-26 14:14:25.967019,599617899968332262,-124.00
2025-06-26 14:14:25.967019,599617899968332262,-132.00
2025-06-26 14:14:25.967019,599617899968332262,-132.00
2025-06-26 14:14:25.967019,599617899968332262,-124.00
2025-06-26 14:14:25.967019,599617899968332262,-120.00
2025-06-26 14:14:26.596799,599617900529024215,-112.00
2025-06-26 14:14:26.596799,599617900529024215,-100.00
2025-06-26 14:14:26.596799,599617900529024215,-95.00
2025-06-26 14:14:26.596799,599617900529024215,-95.00
2025-06-26 14:14:26.596799,599617900529024215,-95.00
2025-06-26 14:14:26.596799,599617900529024215,-93.00
2025-06-26 14:14:26.596799,599617900529024215,-95.00
2025-06-26 14:14:26.596799,599617900529024215,-102.00
2025-06-26 14:14:26.596799,599617900529024215,-93.00
2025-06-26 14:14:26.596799,599617900529024215,-83.00
2025-06-26 14:14:26.596799,599617900529024215,-83.00
2025-06-26 14:14:26.596799,599617900529024215,-80.00
2025-06-26 14:14:26.596799,599617900529024215,-71.00
2025-06-26 14:14:26.596799,599617900529024215,-73.00
2025-06-26 14:14:26.596799,599617900529024215,-78.00
2025-06-26 14:14:26.596799,599617900529024215,-71.00
2025-06-26 14:14:26.596799,599617900529024215,-53.00
2025-06-26 14:14:26.596799,599617900529024215,-73.00
2025-06-26 14:14:26.596799,599617900529024215,-102.00
2025-06-26 14:14:26.596799,599617900529024215,-83.00
2025-06-26 14:14:26.596799,599617900529024215,-61.00
2025-06-26 14:14:26.596799,599617900529024215,-80.00
2025-06-26 14:14:26.596799,599617900529024215,-83.00
2025-06-26 14:14:26.596799,599617900529024215,-63.00
2025-06-26 14:14:26.596799,599617900529024215,-68.00
2025-06-26 14:14:26.596799,599617900529024215,-85.00
2025-06-26 14:14:26.596799,599617900529024215,-75.00
2025-06-26 14:14:26.596799,599617900529024215,-53.00
2025-06-26 14:14:26.596799,599617900529024215,-53.00
2025-06-26 14:14:26.596799,599617900529024215,-63.00
2025-06-26 14:14:26.596799,599617900529024215,-66.00
2025-06-26 14:14:26.596799,599617900529024215,-68.00
2025-06-26 14:14:26.596799,599617900529024215,-68.00
2025-06-26 14:14:26.596799,599617900529024215,-51.00
2025-06-26 14:14:26.596799,599617900529024215,-22.00
2025-06-26 14:14:26.596799,599617900529024215,-19.00
2025-06-26 14:14:26.596799,599617900529024215,-44.00
2025-06-26 14:14:26.596799,599617900529024215,-53.00
2025-06-26 14:14:26.596799,599617900529024215,-48.00
2025-06-26 14:14:26.596799,599617900529024215,-56.00
2025-06-26 14:14:26.596799,599617900529024215,-63.00
2025-06-26 14:14:26.596799,599617900529024215,-66.00
2025-06-26 14:14:26.596799,599617900529024215,-66.00
2025-06-26 14:14:26.596799,599617900529024215,-66.00
2025-06-26 14:14:26.596799,599617900529024215,-63.00
2025-06-26 14:14:26.596799,599617900529024215,-68.00
2025-06-26 14:14:26.596799,599617900529024215,-78.00
2025-06-26 14:14:26.596799,599617900529024215,-48.00
2025-06-26 14:14:26.596799,599617900529024215,88.00
2025-06-26 14:14:26.596799,599617900529024215,335.00
2025-06-26 14:14:26.596799,599617900529024215,551.00
2025-06-26 14:14:26.596799,599617900529024215,514.00
2025-06-26 14:14:26.596799,599617900529024215,137.00
2025-06-26 14:14:26.596799,599617900529024215,-240.00
2025-06-26 14:14:26.596799,599617900529024215,-220.00
2025-06-26 14:14:26.596799,599617900529024215,-56.00
2025-06-26 14:14:26.596799,599617900529024215,-83.00
2025-06-26 14:14:26.596799,599617900529024215,-127.00
2025-06-26 14:14:26.596799,599617900529024215,-85.00
2025-06-26 14:14:26.596799,599617900529024215,-75.00
2025-06-26 14:14:26.596799,599617900529024215,-93.00
2025-06-26 14:14:26.596799,599617900529024215,-73.00
2025-06-26 14:14:26.596799,599617900529024215,-53.00
2025-06-26 14:14:26.596799,599617900529024215,-56.00
2025-06-26 14:14:26.596799,599617900529024215,-48.00
2025-06-26 14:14:26.596799,599617900529024215,-36.00
2025-06-26 14:14:26.596799,599617900529024215,-34.00
2025-06-26 14:14:26.596799,599617900529024215,-31.00
2025-06-26 14:14:26.596799,599617900529024215,-19.00
2025-06-26 14:14:26.596799,599617900529024215,-9.00
2025-06-26 14:14:26.596799,599617900529024215,-2.00
2025-06-26 14:14:26.596799,599617900529024215,4.00
2025-06-26 14:14:26.596799,599617900529024215,17.00
2025-06-26 14:14:27.080360,599617901089695826,31.00
2025-06-26 14:14:27.080360,599617901089695826,41.00
2025-06-26 14:14:27.080360,599617901089695826,44.00
2025-06-26 14:14:27.080360,599617901089695826,58.00
2025-06-26 14:14:27.080360,599617901089695826,63.00
2025-06-26 14:14:27.080360,599617901089695826,53.00
2025-06-26 14:14:27.080360,599617901089695826,63.00
2025-06-26 14:14:27.080360,599617901089695826,80.00
2025-06-26 14:14:27.080360,599617901089695826,66.00
2025-06-26 14:14:27.080360,599617901089695826,41.00
2025-06-26 14:14:27.080360,599617901089695826,14.00
2025-06-26 14:14:27.080360,599617901089695826,-22.00
2025-06-26 14:14:27.080360,599617901089695826,-58.00
2025-06-26 14:14:27.080360,599617901089695826,-88.00
2025-06-26 14:14:27.080360,599617901089695826,-110.00
2025-06-26 14:14:27.080360,599617901089695826,-117.00
2025-06-26 14:14:27.080360,599617901089695826,-117.00
2025-06-26 14:14:27.080360,599617901089695826,-127.00
2025-06-26 14:14:27.080360,599617901089695826,-144.00
2025-06-26 14:14:27.080360,599617901089695826,-144.00
2025-06-26 14:14:27.080360,599617901089695826,-129.00
2025-06-26 14:14:27.080360,599617901089695826,-122.00
2025-06-26 14:14:27.080360,599617901089695826,-115.00
2025-06-26 14:14:27.080360,599617901089695826,-107.00
2025-06-26 14:14:27.080360,599617901089695826,-107.00
2025-06-26 14:14:27.080360,599617901089695826,-105.00
2025-06-26 14:14:27.080360,599617901089695826,-105.00
2025-06-26 14:14:27.080360,599617901089695826,-105.00
2025-06-26 14:14:27.080360,599617901089695826,-100.00
2025-06-26 14:14:27.080360,599617901089695826,-95.00
2025-06-26 14:14:27.080360,599617901089695826,-100.00
2025-06-26 14:14:27.080360,599617901089695826,-100.00
2025-06-26 14:14:27.080360,599617901089695826,-93.00
2025-06-26 14:14:27.080360,599617901089695826,-95.00
2025-06-26 14:14:27.080360,599617901089695826,-102.00
2025-06-26 14:14:27.080360,599617901089695826,-95.00
2025-06-26 14:14:27.080360,599617901089695826,-95.00
2025-06-26 14:14:27.080360,599617901089695826,-107.00
2025-06-26 14:14:27.080360,599617901089695826,-110.00
2025-06-26 14:14:27.080360,599617901089695826,-97.00
2025-06-26 14:14:27.080360,599617901089695826,-95.00
2025-06-26 14:14:27.080360,599617901089695826,-100.00
2025-06-26 14:14:27.080360,599617901089695826,-100.00
2025-06-26 14:14:27.080360,599617901089695826,-100.00
2025-06-26 14:14:27.080360,599617901089695826,-100.00
2025-06-26 14:14:27.080360,599617901089695826,-100.00
2025-06-26 14:14:27.080360,599617901089695826,-100.00
2025-06-26 14:14:27.080360,599617901089695826,-97.00
2025-06-26 14:14:27.080360,599617901089695826,-100.00
2025-06-26 14:14:27.080360,599617901089695826,-100.00
2025-06-26 14:14:27.080360,599617901089695826,-95.00
2025-06-26 14:14:27.080360,599617901089695826,-95.00
2025-06-26 14:14:27.080360,599617901089695826,-95.00
2025-06-26 14:14:27.080360,599617901089695826,-75.00
2025-06-26 14:14:27.080360,599617901089695826,-53.00
2025-06-26 14:14:27.080360,599617901089695826,-58.00
2025-06-26 14:14:27.080360,599617901089695826,-78.00
2025-06-26 14:14:27.080360,599617901089695826,-83.00
2025-06-26 14:14:27.080360,599617901089695826,-80.00
2025-06-26 14:14:27.080360,599617901089695826,-75.00
2025-06-26 14:14:27.080360,599617901089695826,-85.00
2025-06-26 14:14:27.080360,599617901089695826,-102.00
2025-06-26 14:14:27.080360,599617901089695826,-105.00
2025-06-26 14:14:27.080360,599617901089695826,-97.00
2025-06-26 14:14:27.080360,599617901089695826,-95.00
2025-06-26 14:14:27.080360,599617901089695826,-97.00
2025-06-26 14:14:27.080360,599617901089695826,-100.00
2025-06-26 14:14:27.080360,599617901089695826,-58.00
2025-06-26 14:14:27.080360,599617901089695826,105.00
2025-06-26 14:14:27.080360,599617901089695826,362.00
2025-06-26 14:14:27.080360,599617901089695826,546.00
2025-06-26 14:14:27.080360,599617901089695826,440.00
2025-06-26 14:14:27.080360,599617901089695826,26.00
2025-06-26 14:14:27.707341,599617901650392869,-293.00
2025-06-26 14:14:27.707341,599617901650392869,-218.00
2025-06-26 14:14:27.707341,599617901650392869,-73.00
2025-06-26 14:14:27.707341,599617901650392869,-110.00
2025-06-26 14:14:27.707341,599617901650392869,-139.00
2025-06-26 14:14:27.707341,599617901650392869,-97.00
2025-06-26 14:14:27.707341,599617901650392869,-90.00
2025-06-26 14:14:27.707341,599617901650392869,-102.00
2025-06-26 14:14:27.707341,599617901650392869,-90.00
2025-06-26 14:14:27.707341,599617901650392869,-75.00
2025-06-26 14:14:27.707341,599617901650392869,-63.00
2025-06-26 14:14:27.707341,599617901650392869,-51.00
2025-06-26 14:14:27.707341,599617901650392869,-46.00
2025-06-26 14:14:27.707341,599617901650392869,-48.00
2025-06-26 14:14:27.707341,599617901650392869,-44.00
2025-06-26 14:14:27.707341,599617901650392869,-41.00
2025-06-26 14:14:27.707341,599617901650392869,-31.00
2025-06-26 14:14:27.707341,599617901650392869,-7.00
2025-06-26 14:14:27.707341,599617901650392869,4.00
2025-06-26 14:14:27.707341,599617901650392869,9.00
2025-06-26 14:14:27.707341,599617901650392869,19.00
2025-06-26 14:14:27.707341,599617901650392869,34.00
2025-06-26 14:14:27.707341,599617901650392869,41.00
2025-06-26 14:14:27.707341,599617901650392869,58.00
2025-06-26 14:14:27.707341,599617901650392869,68.00
2025-06-26 14:14:27.707341,599617901650392869,53.00
2025-06-26 14:14:27.707341,599617901650392869,44.00
2025-06-26 14:14:27.707341,599617901650392869,53.00
2025-06-26 14:14:27.707341,599617901650392869,56.00
2025-06-26 14:14:27.707341,599617901650392869,29.00
2025-06-26 14:14:27.707341,599617901650392869,-7.00
2025-06-26 14:14:27.707341,599617901650392869,-48.00
2025-06-26 14:14:27.707341,599617901650392869,-88.00
2025-06-26 14:14:27.707341,599617901650392869,-120.00
2025-06-26 14:14:27.707341,599617901650392869,-142.00
2025-06-26 14:14:27.707341,599617901650392869,-151.00
2025-06-26 14:14:27.707341,599617901650392869,-151.00
2025-06-26 14:14:27.707341,599617901650392869,-151.00
2025-06-26 14:14:27.707341,599617901650392869,-149.00
2025-06-26 14:14:27.707341,599617901650392869,-146.00
2025-06-26 14:14:27.707341,599617901650392869,-149.00
2025-06-26 14:14:27.707341,599617901650392869,-144.00
2025-06-26 14:14:27.707341,599617901650392869,-134.00
2025-06-26 14:14:27.707341,599617901650392869,-129.00
2025-06-26 14:14:27.707341,599617901650392869,-122.00
2025-06-26 14:14:27.707341,599617901650392869,-112.00
2025-06-26 14:14:27.707341,599617901650392869,-102.00
2025-06-26 14:14:27.707341,599617901650392869,-102.00
2025-06-26 14:14:27.707341,599617901650392869,-107.00
2025-06-26 14:14:27.707341,599617901650392869,-110.00
2025-06-26 14:14:27.707341,599617901650392869,-102.00
2025-06-26 14:14:27.707341,599617901650392869,-100.00
2025-06-26 14:14:27.707341,599617901650392869,-102.00
2025-06-26 14:14:27.707341,599617901650392869,-95.00
2025-06-26 14:14:27.707341,599617901650392869,-88.00
2025-06-26 14:14:27.707341,599617901650392869,-88.00
2025-06-26 14:14:27.707341,599617901650392869,-95.00
2025-06-26 14:14:27.707341,599617901650392869,-95.00
2025-06-26 14:14:27.707341,599617901650392869,-90.00
2025-06-26 14:14:27.707341,599617901650392869,-85.00
2025-06-26 14:14:27.707341,599617901650392869,-83.00
2025-06-26 14:14:27.707341,599617901650392869,-83.00
2025-06-26 14:14:27.707341,599617901650392869,-80.00
2025-06-26 14:14:27.707341,599617901650392869,-78.00
2025-06-26 14:14:27.707341,599617901650392869,-80.00
2025-06-26 14:14:27.707341,599617901650392869,-85.00
2025-06-26 14:14:27.707341,599617901650392869,-88.00
2025-06-26 14:14:27.707341,599617901650392869,-85.00
2025-06-26 14:14:27.707341,599617901650392869,-66.00
2025-06-26 14:14:27.707341,599617901650392869,-34.00
2025-06-26 14:14:27.707341,599617901650392869,-26.00
2025-06-26 14:14:27.707341,599617901650392869,-51.00
2025-06-26 14:14:27.707341,599617901650392869,-61.00
2025-06-26 14:14:28.217812,599617902211059392,-48.00
2025-06-26 14:14:28.217812,599617902211059392,-48.00
2025-06-26 14:14:28.217812,599617902211059392,-41.00
2025-06-26 14:14:28.217812,599617902211059392,-34.00
2025-06-26 14:14:28.217812,599617902211059392,-66.00
2025-06-26 14:14:28.217812,599617902211059392,-85.00
2025-06-26 14:14:28.217812,599617902211059392,-61.00
2025-06-26 14:14:28.217812,599617902211059392,-53.00
2025-06-26 14:14:28.217812,599617902211059392,-56.00
2025-06-26 14:14:28.217812,599617902211059392,14.00
2025-06-26 14:14:28.217812,599617902211059392,176.00
2025-06-26 14:14:28.217812,599617902211059392,340.00
2025-06-26 14:14:28.217812,599617902211059392,477.00
2025-06-26 14:14:28.217812,599617902211059392,531.00
2025-06-26 14:14:28.217812,599617902211059392,313.00
2025-06-26 14:14:28.217812,599617902211059392,-85.00
2025-06-26 14:14:28.217812,599617902211059392,-218.00
2025-06-26 14:14:28.217812,599617902211059392,-51.00
2025-06-26 14:14:28.217812,599617902211059392,-2.00
2025-06-26 14:14:28.217812,599617902211059392,-83.00
2025-06-26 14:14:28.217812,599617902211059392,-56.00
2025-06-26 14:14:28.217812,599617902211059392,2.00
2025-06-26 14:14:28.217812,599617902211059392,-9.00
2025-06-26 14:14:28.217812,599617902211059392,-12.00
2025-06-26 14:14:28.217812,599617902211059392,19.00
2025-06-26 14:14:28.217812,599617902211059392,34.00
2025-06-26 14:14:28.217812,599617902211059392,24.00
2025-06-26 14:14:28.217812,599617902211059392,22.00
2025-06-26 14:14:28.217812,599617902211059392,34.00
2025-06-26 14:14:28.217812,599617902211059392,31.00
2025-06-26 14:14:28.217812,599617902211059392,7.00
2025-06-26 14:14:28.217812,599617902211059392,-2.00
2025-06-26 14:14:28.217812,599617902211059392,44.00
2025-06-26 14:14:28.217812,599617902211059392,112.00
2025-06-26 14:14:28.217812,599617902211059392,85.00
2025-06-26 14:14:28.217812,599617902211059392,7.00
2025-06-26 14:14:28.217812,599617902211059392,66.00
2025-06-26 14:14:28.217812,599617902211059392,134.00
2025-06-26 14:14:28.217812,599617902211059392,88.00
2025-06-26 14:14:28.217812,599617902211059392,105.00
2025-06-26 14:14:28.217812,599617902211059392,156.00
2025-06-26 14:14:28.217812,599617902211059392,120.00
2025-06-26 14:14:28.217812,599617902211059392,115.00
2025-06-26 14:14:28.217812,599617902211059392,149.00
2025-06-26 14:14:28.217812,599617902211059392,117.00
2025-06-26 14:14:28.217812,599617902211059392,68.00
2025-06-26 14:14:28.217812,599617902211059392,44.00
2025-06-26 14:14:28.217812,599617902211059392,9.00
2025-06-26 14:14:28.217812,599617902211059392,-7.00
2025-06-26 14:14:28.217812,599617902211059392,-36.00
2025-06-26 14:14:28.217812,599617902211059392,-100.00
2025-06-26 14:14:28.217812,599617902211059392,-97.00
2025-06-26 14:14:28.217812,599617902211059392,-48.00
2025-06-26 14:14:28.217812,599617902211059392,-63.00
2025-06-26 14:14:28.217812,599617902211059392,-80.00
2025-06-26 14:14:28.217812,599617902211059392,-61.00
2025-06-26 14:14:28.217812,599617902211059392,-34.00
2025-06-26 14:14:28.217812,599617902211059392,-39.00
2025-06-26 14:14:28.217812,599617902211059392,-58.00
2025-06-26 14:14:28.217812,599617902211059392,-44.00
2025-06-26 14:14:28.217812,599617902211059392,-75.00
2025-06-26 14:14:28.217812,599617902211059392,-93.00
2025-06-26 14:14:28.217812,599617902211059392,-58.00
2025-06-26 14:14:28.217812,599617902211059392,-61.00
2025-06-26 14:14:28.217812,599617902211059392,-48.00
2025-06-26 14:14:28.217812,599617902211059392,-26.00
2025-06-26 14:14:28.217812,599617902211059392,-46.00
2025-06-26 14:14:28.217812,599617902211059392,-61.00
2025-06-26 14:14:28.217812,599617902211059392,-53.00
2025-06-26 14:14:28.217812,599617902211059392,-36.00
2025-06-26 14:14:28.217812,599617902211059392,-12.00
2025-06-26 14:14:28.217812,599617902211059392,-12.00
2025-06-26 14:14:28.217812,599617902211059392,-41.00
2025-06-26 14:14:28.790823,599617902771756433,-63.00
2025-06-26 14:14:28.790823,599617902771756433,-83.00
2025-06-26 14:14:28.790823,599617902771756433,-63.00
2025-06-26 14:14:28.790823,599617902771756433,-22.00
2025-06-26 14:14:28.790823,599617902771756433,-24.00
2025-06-26 14:14:28.790823,599617902771756433,-26.00
2025-06-26 14:14:28.790823,599617902771756433,-2.00
2025-06-26 14:14:28.790823,599617902771756433,-19.00
2025-06-26 14:14:28.790823,599617902771756433,-53.00
2025-06-26 14:14:28.790823,599617902771756433,-73.00
2025-06-26 14:14:28.790823,599617902771756433,-73.00
2025-06-26 14:14:28.790823,599617902771756433,9.00
2025-06-26 14:14:28.790823,599617902771756433,48.00
2025-06-26 14:14:28.790823,599617902771756433,-17.00
2025-06-26 14:14:28.790823,599617902771756433,-48.00
2025-06-26 14:14:28.790823,599617902771756433,-48.00
2025-06-26 14:14:28.790823,599617902771756433,-26.00
2025-06-26 14:14:28.790823,599617902771756433,-19.00
2025-06-26 14:14:28.790823,599617902771756433,-48.00
2025-06-26 14:14:28.790823,599617902771756433,-58.00
2025-06-26 14:14:28.790823,599617902771756433,-34.00
2025-06-26 14:14:28.790823,599617902771756433,-7.00
2025-06-26 14:14:28.790823,599617902771756433,2.00
2025-06-26 14:14:28.790823,599617902771756433,-34.00
2025-06-26 14:14:28.790823,599617902771756433,-19.00
2025-06-26 14:14:28.790823,599617902771756433,188.00
2025-06-26 14:14:28.790823,599617902771756433,487.00
2025-06-26 14:14:28.790823,599617902771756433,587.00
2025-06-26 14:14:28.790823,599617902771756433,333.00
2025-06-26 14:14:28.790823,599617902771756433,-66.00
2025-06-26 14:14:28.790823,599617902771756433,-230.00
2025-06-26 14:14:28.790823,599617902771756433,-120.00
2025-06-26 14:14:28.790823,599617902771756433,-39.00
2025-06-26 14:14:28.790823,599617902771756433,-71.00
2025-06-26 14:14:28.790823,599617902771756433,-85.00
2025-06-26 14:14:28.790823,599617902771756433,-75.00
2025-06-26 14:14:28.790823,599617902771756433,-68.00
2025-06-26 14:14:28.790823,599617902771756433,-71.00
2025-06-26 14:14:28.790823,599617902771756433,-90.00
2025-06-26 14:14:28.790823,599617902771756433,-73.00
2025-06-26 14:14:28.790823,599617902771756433,-39.00
2025-06-26 14:14:28.790823,599617902771756433,-48.00
2025-06-26 14:14:28.790823,599617902771756433,-63.00
2025-06-26 14:14:28.790823,599617902771756433,-51.00
2025-06-26 14:14:28.790823,599617902771756433,-41.00
2025-06-26 14:14:28.790823,599617902771756433,-19.00
2025-06-26 14:14:28.790823,599617902771756433,24.00
2025-06-26 14:14:28.790823,599617902771756433,0.00
2025-06-26 14:14:28.790823,599617902771756433,-56.00
2025-06-26 14:14:28.790823,599617902771756433,-31.00
2025-06-26 14:14:28.790823,599617902771756433,-4.00
2025-06-26 14:14:28.790823,599617902771756433,-12.00
2025-06-26 14:14:28.790823,599617902771756433,29.00
2025-06-26 14:14:28.790823,599617902771756433,61.00
2025-06-26 14:14:28.790823,599617902771756433,46.00
2025-06-26 14:14:28.790823,599617902771756433,46.00
2025-06-26 14:14:28.790823,599617902771756433,66.00
2025-06-26 14:14:28.790823,599617902771756433,61.00
2025-06-26 14:14:28.790823,599617902771756433,48.00
2025-06-26 14:14:28.790823,599617902771756433,24.00
2025-06-26 14:14:28.790823,599617902771756433,-26.00
2025-06-26 14:14:28.790823,599617902771756433,-58.00
2025-06-26 14:14:28.790823,599617902771756433,-75.00
2025-06-26 14:14:28.790823,599617902771756433,-115.00
2025-06-26 14:14:28.790823,599617902771756433,-142.00
2025-06-26 14:14:28.790823,599617902771756433,-127.00
2025-06-26 14:14:28.790823,599617902771756433,-112.00
2025-06-26 14:14:28.790823,599617902771756433,-122.00
2025-06-26 14:14:28.790823,599617902771756433,-154.00
2025-06-26 14:14:28.790823,599617902771756433,-181.00
2025-06-26 14:14:28.790823,599617902771756433,-137.00
2025-06-26 14:14:28.790823,599617902771756433,-97.00
2025-06-26 14:14:28.790823,599617902771756433,-142.00
2025-06-26 14:14:29.356792,599617903332422956,-161.00
2025-06-26 14:14:29.356792,599617903332422956,-117.00
2025-06-26 14:14:29.356792,599617903332422956,-110.00
2025-06-26 14:14:29.356792,599617903332422956,-122.00
2025-06-26 14:14:29.356792,599617903332422956,-112.00
2025-06-26 14:14:29.356792,599617903332422956,-102.00
2025-06-26 14:14:29.356792,599617903332422956,-107.00
2025-06-26 14:14:29.356792,599617903332422956,-107.00
2025-06-26 14:14:29.356792,599617903332422956,-105.00
2025-06-26 14:14:29.356792,599617903332422956,-107.00
2025-06-26 14:14:29.356792,599617903332422956,-105.00
2025-06-26 14:14:29.356792,599617903332422956,-102.00
2025-06-26 14:14:29.356792,599617903332422956,-100.00
2025-06-26 14:14:29.356792,599617903332422956,-100.00
2025-06-26 14:14:29.356792,599617903332422956,-105.00
2025-06-26 14:14:29.356792,599617903332422956,-102.00
2025-06-26 14:14:29.356792,599617903332422956,-90.00
2025-06-26 14:14:29.356792,599617903332422956,-95.00
2025-06-26 14:14:29.356792,599617903332422956,-97.00
2025-06-26 14:14:29.356792,599617903332422956,-80.00
2025-06-26 14:14:29.356792,599617903332422956,-66.00
2025-06-26 14:14:29.356792,599617903332422956,-66.00
2025-06-26 14:14:29.356792,599617903332422956,-73.00
2025-06-26 14:14:29.356792,599617903332422956,-75.00
2025-06-26 14:14:29.356792,599617903332422956,-78.00
2025-06-26 14:14:29.356792,599617903332422956,-88.00
2025-06-26 14:14:29.356792,599617903332422956,-95.00
2025-06-26 14:14:29.356792,599617903332422956,-93.00
2025-06-26 14:14:29.356792,599617903332422956,-93.00
2025-06-26 14:14:29.356792,599617903332422956,-85.00
2025-06-26 14:14:29.356792,599617903332422956,-68.00
2025-06-26 14:14:29.356792,599617903332422956,-88.00
2025-06-26 14:14:29.356792,599617903332422956,-134.00
2025-06-26 14:14:29.356792,599617903332422956,-78.00
2025-06-26 14:14:29.356792,599617903332422956,120.00
2025-06-26 14:14:29.356792,599617903332422956,364.00
2025-06-26 14:14:29.356792,599617903332422956,499.00
2025-06-26 14:14:29.356792,599617903332422956,338.00
2025-06-26 14:14:29.356792,599617903332422956,-66.00
2025-06-26 14:14:29.356792,599617903332422956,-311.00
2025-06-26 14:14:29.356792,599617903332422956,-200.00
2025-06-26 14:14:29.356792,599617903332422956,-80.00
2025-06-26 14:14:29.356792,599617903332422956,-129.00
2025-06-26 14:14:29.356792,599617903332422956,-156.00
2025-06-26 14:14:29.356792,599617903332422956,-137.00
2025-06-26 14:14:29.356792,599617903332422956,-151.00
2025-06-26 14:14:29.356792,599617903332422956,-149.00
2025-06-26 14:14:29.356792,599617903332422956,-117.00
2025-06-26 14:14:29.356792,599617903332422956,-110.00
2025-06-26 14:14:29.356792,599617903332422956,-110.00
2025-06-26 14:14:29.356792,599617903332422956,-85.00
2025-06-26 14:14:29.356792,599617903332422956,-66.00
2025-06-26 14:14:29.356792,599617903332422956,-58.00
2025-06-26 14:14:29.356792,599617903332422956,-51.00
2025-06-26 14:14:29.356792,599617903332422956,-68.00
2025-06-26 14:14:29.356792,599617903332422956,-88.00
2025-06-26 14:14:29.356792,599617903332422956,-66.00
2025-06-26 14:14:29.356792,599617903332422956,-29.00
2025-06-26 14:14:29.356792,599617903332422956,-9.00
2025-06-26 14:14:29.356792,599617903332422956,2.00
2025-06-26 14:14:29.356792,599617903332422956,14.00
2025-06-26 14:14:29.356792,599617903332422956,34.00
2025-06-26 14:14:29.356792,599617903332422956,53.00
2025-06-26 14:14:29.356792,599617903332422956,36.00
2025-06-26 14:14:29.356792,599617903332422956,22.00
2025-06-26 14:14:29.356792,599617903332422956,39.00
2025-06-26 14:14:29.356792,599617903332422956,31.00
2025-06-26 14:14:29.356792,599617903332422956,2.00
2025-06-26 14:14:29.356792,599617903332422956,-29.00
2025-06-26 14:14:29.356792,599617903332422956,-80.00
2025-06-26 14:14:29.356792,599617903332422956,-127.00
2025-06-26 14:14:29.356792,599617903332422956,-134.00
2025-06-26 14:14:29.356792,599617903332422956,-146.00
2025-06-26 14:14:29.897435,599617903893119997,-171.00
2025-06-26 14:14:29.897435,599617903893119997,-178.00
2025-06-26 14:14:29.897435,599617903893119997,-176.00
2025-06-26 14:14:29.897435,599617903893119997,-173.00
2025-06-26 14:14:29.897435,599617903893119997,-169.00
2025-06-26 14:14:29.897435,599617903893119997,-159.00
2025-06-26 14:14:29.897435,599617903893119997,-149.00
2025-06-26 14:14:29.897435,599617903893119997,-146.00
2025-06-26 14:14:29.897435,599617903893119997,-146.00
2025-06-26 14:14:29.897435,599617903893119997,-137.00
2025-06-26 14:14:29.897435,599617903893119997,-124.00
2025-06-26 14:14:29.897435,599617903893119997,-117.00
2025-06-26 14:14:29.897435,599617903893119997,-107.00
2025-06-26 14:14:29.897435,599617903893119997,-105.00
2025-06-26 14:14:29.897435,599617903893119997,-100.00
2025-06-26 14:14:29.897435,599617903893119997,-90.00
2025-06-26 14:14:29.897435,599617903893119997,-93.00
2025-06-26 14:14:29.897435,599617903893119997,-90.00
2025-06-26 14:14:29.897435,599617903893119997,-80.00
2025-06-26 14:14:29.897435,599617903893119997,-75.00
2025-06-26 14:14:29.897435,599617903893119997,-78.00
2025-06-26 14:14:29.897435,599617903893119997,-75.00
2025-06-26 14:14:29.897435,599617903893119997,-78.00
2025-06-26 14:14:29.897435,599617903893119997,-83.00
2025-06-26 14:14:29.897435,599617903893119997,-75.00
2025-06-26 14:14:29.897435,599617903893119997,-63.00
2025-06-26 14:14:29.897435,599617903893119997,-68.00
2025-06-26 14:14:29.897435,599617903893119997,-78.00
2025-06-26 14:14:29.897435,599617903893119997,-73.00
2025-06-26 14:14:29.897435,599617903893119997,-61.00
2025-06-26 14:14:29.897435,599617903893119997,-36.00
2025-06-26 14:14:29.897435,599617903893119997,-22.00
2025-06-26 14:14:29.897435,599617903893119997,-26.00
2025-06-26 14:14:29.897435,599617903893119997,-22.00
2025-06-26 14:14:29.897435,599617903893119997,-9.00
2025-06-26 14:14:29.897435,599617903893119997,-26.00
2025-06-26 14:14:29.897435,599617903893119997,-66.00
2025-06-26 14:14:29.897435,599617903893119997,-73.00
2025-06-26 14:14:29.897435,599617903893119997,-58.00
2025-06-26 14:14:29.897435,599617903893119997,-53.00
2025-06-26 14:14:29.897435,599617903893119997,-39.00
2025-06-26 14:14:29.897435,599617903893119997,-26.00
2025-06-26 14:14:29.897435,599617903893119997,-34.00
2025-06-26 14:14:29.897435,599617903893119997,4.00
2025-06-26 14:14:29.897435,599617903893119997,161.00
2025-06-26 14:14:29.897435,599617903893119997,416.00
2025-06-26 14:14:29.897435,599617903893119997,651.00
2025-06-26 14:14:29.897435,599617903893119997,602.00
2025-06-26 14:14:29.897435,599617903893119997,149.00
2025-06-26 14:14:29.897435,599617903893119997,-244.00
2025-06-26 14:14:29.897435,599617903893119997,-161.00
2025-06-26 14:14:29.897435,599617903893119997,17.00
2025-06-26 14:14:29.897435,599617903893119997,-46.00
2025-06-26 14:14:29.897435,599617903893119997,-95.00
2025-06-26 14:14:29.897435,599617903893119997,-36.00
2025-06-26 14:14:29.897435,599617903893119997,-14.00
2025-06-26 14:14:29.897435,599617903893119997,-26.00
2025-06-26 14:14:29.897435,599617903893119997,-19.00
2025-06-26 14:14:29.897435,599617903893119997,-7.00
2025-06-26 14:14:29.897435,599617903893119997,2.00
2025-06-26 14:14:29.897435,599617903893119997,4.00
2025-06-26 14:14:29.897435,599617903893119997,12.00
2025-06-26 14:14:29.897435,599617903893119997,26.00
2025-06-26 14:14:29.897435,599617903893119997,39.00
2025-06-26 14:14:29.897435,599617903893119997,51.00
2025-06-26 14:14:29.897435,599617903893119997,66.00
2025-06-26 14:14:29.897435,599617903893119997,68.00
2025-06-26 14:14:29.897435,599617903893119997,58.00
2025-06-26 14:14:29.897435,599617903893119997,68.00
2025-06-26 14:14:29.897435,599617903893119997,110.00
2025-06-26 14:14:29.897435,599617903893119997,142.00
2025-06-26 14:14:29.897435,599617903893119997,134.00
2025-06-26 14:14:29.897435,599617903893119997,122.00
2025-06-26 14:14:30.437541,599617904453786520,134.00
2025-06-26 14:14:30.437541,599617904453786520,151.00
2025-06-26 14:14:30.437541,599617904453786520,149.00
2025-06-26 14:14:30.437541,599617904453786520,144.00
2025-06-26 14:14:30.437541,599617904453786520,139.00
2025-06-26 14:14:30.437541,599617904453786520,110.00
2025-06-26 14:14:30.437541,599617904453786520,51.00
2025-06-26 14:14:30.437541,599617904453786520,-4.00
2025-06-26 14:14:30.437541,599617904453786520,-26.00
2025-06-26 14:14:30.437541,599617904453786520,-41.00
2025-06-26 14:14:30.437541,599617904453786520,-63.00
2025-06-26 14:14:30.437541,599617904453786520,-71.00
2025-06-26 14:14:30.437541,599617904453786520,-75.00
2025-06-26 14:14:30.437541,599617904453786520,-85.00
2025-06-26 14:14:30.437541,599617904453786520,-75.00
2025-06-26 14:14:30.437541,599617904453786520,-58.00
2025-06-26 14:14:30.437541,599617904453786520,-51.00
2025-06-26 14:14:30.437541,599617904453786520,-48.00
2025-06-26 14:14:30.437541,599617904453786520,-63.00
2025-06-26 14:14:30.437541,599617904453786520,-68.00
2025-06-26 14:14:30.437541,599617904453786520,-48.00
2025-06-26 14:14:30.437541,599617904453786520,-36.00
2025-06-26 14:14:30.437541,599617904453786520,-36.00
2025-06-26 14:14:30.437541,599617904453786520,-31.00
2025-06-26 14:14:30.437541,599617904453786520,-24.00
2025-06-26 14:14:30.437541,599617904453786520,-26.00
2025-06-26 14:14:30.437541,599617904453786520,-26.00
2025-06-26 14:14:30.437541,599617904453786520,-24.00
2025-06-26 14:14:30.437541,599617904453786520,-22.00
2025-06-26 14:14:30.437541,599617904453786520,-22.00
