Timestamp,Device Timestamp (ns),ECG Value (uV)
2025-06-26 14:26:35.459518,599618629430361193,-80.00
2025-06-26 14:26:35.459518,599618629430361193,-88.00
2025-06-26 14:26:35.459518,599618629430361193,-68.00
2025-06-26 14:26:35.459518,599618629430361193,61.00
2025-06-26 14:26:35.459518,599618629430361193,311.00
2025-06-26 14:26:35.459518,599618629430361193,563.00
2025-06-26 14:26:35.459518,599618629430361193,587.00
2025-06-26 14:26:35.459518,599618629430361193,230.00
2025-06-26 14:26:35.459518,599618629430361193,-213.00
2025-06-26 14:26:35.459518,599618629430361193,-257.00
2025-06-26 14:26:35.459518,599618629430361193,-63.00
2025-06-26 14:26:35.459518,599618629430361193,-61.00
2025-06-26 14:26:35.459518,599618629430361193,-132.00
2025-06-26 14:26:35.459518,599618629430361193,-93.00
2025-06-26 14:26:35.459518,599618629430361193,-66.00
2025-06-26 14:26:35.459518,599618629430361193,-83.00
2025-06-26 14:26:35.459518,599618629430361193,-68.00
2025-06-26 14:26:35.459518,599618629430361193,-48.00
2025-06-26 14:26:35.459518,599618629430361193,-48.00
2025-06-26 14:26:35.459518,599618629430361193,-39.00
2025-06-26 14:26:35.459518,599618629430361193,-29.00
2025-06-26 14:26:35.459518,599618629430361193,-24.00
2025-06-26 14:26:35.459518,599618629430361193,-17.00
2025-06-26 14:26:35.459518,599618629430361193,-4.00
2025-06-26 14:26:35.459518,599618629430361193,2.00
2025-06-26 14:26:35.459518,599618629430361193,12.00
2025-06-26 14:26:35.459518,599618629430361193,22.00
2025-06-26 14:26:35.459518,599618629430361193,31.00
2025-06-26 14:26:35.459518,599618629430361193,44.00
2025-06-26 14:26:35.459518,599618629430361193,56.00
2025-06-26 14:26:35.459518,599618629430361193,66.00
2025-06-26 14:26:35.459518,599618629430361193,73.00
2025-06-26 14:26:35.459518,599618629430361193,80.00
2025-06-26 14:26:35.459518,599618629430361193,88.00
2025-06-26 14:26:35.459518,599618629430361193,90.00
2025-06-26 14:26:35.459518,599618629430361193,90.00
2025-06-26 14:26:35.459518,599618629430361193,78.00
2025-06-26 14:26:35.459518,599618629430361193,53.00
2025-06-26 14:26:35.459518,599618629430361193,14.00
2025-06-26 14:26:35.459518,599618629430361193,-24.00
2025-06-26 14:26:35.459518,599618629430361193,-61.00
2025-06-26 14:26:35.459518,599618629430361193,-93.00
2025-06-26 14:26:35.459518,599618629430361193,-112.00
2025-06-26 14:26:35.459518,599618629430361193,-122.00
2025-06-26 14:26:35.459518,599618629430361193,-127.00
2025-06-26 14:26:35.459518,599618629430361193,-127.00
2025-06-26 14:26:35.459518,599618629430361193,-124.00
2025-06-26 14:26:35.459518,599618629430361193,-120.00
2025-06-26 14:26:35.459518,599618629430361193,-115.00
2025-06-26 14:26:35.459518,599618629430361193,-110.00
2025-06-26 14:26:35.459518,599618629430361193,-105.00
2025-06-26 14:26:35.459518,599618629430361193,-102.00
2025-06-26 14:26:35.459518,599618629430361193,-97.00
2025-06-26 14:26:35.459518,599618629430361193,-93.00
2025-06-26 14:26:35.459518,599618629430361193,-90.00
2025-06-26 14:26:35.459518,599618629430361193,-88.00
2025-06-26 14:26:35.459518,599618629430361193,-85.00
2025-06-26 14:26:35.459518,599618629430361193,-85.00
2025-06-26 14:26:35.459518,599618629430361193,-83.00
2025-06-26 14:26:35.459518,599618629430361193,-83.00
2025-06-26 14:26:35.459518,599618629430361193,-80.00
2025-06-26 14:26:35.459518,599618629430361193,-78.00
2025-06-26 14:26:35.459518,599618629430361193,-78.00
2025-06-26 14:26:35.459518,599618629430361193,-78.00
2025-06-26 14:26:35.459518,599618629430361193,-75.00
2025-06-26 14:26:35.459518,599618629430361193,-75.00
2025-06-26 14:26:35.459518,599618629430361193,-78.00
2025-06-26 14:26:35.459518,599618629430361193,-80.00
2025-06-26 14:26:35.459518,599618629430361193,-83.00
2025-06-26 14:26:35.459518,599618629430361193,-83.00
2025-06-26 14:26:35.459518,599618629430361193,-71.00
2025-06-26 14:26:35.459518,599618629430361193,-51.00
2025-06-26 14:26:35.459518,599618629430361193,-39.00
2025-06-26 14:26:35.969743,599618629991058234,-44.00
2025-06-26 14:26:35.969743,599618629991058234,-48.00
2025-06-26 14:26:35.969743,599618629991058234,-48.00
2025-06-26 14:26:35.969743,599618629991058234,-56.00
2025-06-26 14:26:35.969743,599618629991058234,-68.00
2025-06-26 14:26:35.969743,599618629991058234,-71.00
2025-06-26 14:26:35.969743,599618629991058234,-71.00
2025-06-26 14:26:35.969743,599618629991058234,-73.00
2025-06-26 14:26:35.969743,599618629991058234,-68.00
2025-06-26 14:26:35.969743,599618629991058234,-68.00
2025-06-26 14:26:35.969743,599618629991058234,-78.00
2025-06-26 14:26:35.969743,599618629991058234,-61.00
2025-06-26 14:26:35.969743,599618629991058234,58.00
2025-06-26 14:26:35.969743,599618629991058234,301.00
2025-06-26 14:26:35.969743,599618629991058234,560.00
2025-06-26 14:26:35.969743,599618629991058234,607.00
2025-06-26 14:26:35.969743,599618629991058234,269.00
2025-06-26 14:26:35.969743,599618629991058234,-186.00
2025-06-26 14:26:35.969743,599618629991058234,-259.00
2025-06-26 14:26:35.969743,599618629991058234,-63.00
2025-06-26 14:26:35.969743,599618629991058234,-51.00
2025-06-26 14:26:35.969743,599618629991058234,-134.00
2025-06-26 14:26:35.969743,599618629991058234,-105.00
2025-06-26 14:26:35.969743,599618629991058234,-75.00
2025-06-26 14:26:35.969743,599618629991058234,-90.00
2025-06-26 14:26:35.969743,599618629991058234,-80.00
2025-06-26 14:26:35.969743,599618629991058234,-58.00
2025-06-26 14:26:35.969743,599618629991058234,-58.00
2025-06-26 14:26:35.969743,599618629991058234,-53.00
2025-06-26 14:26:35.969743,599618629991058234,-44.00
2025-06-26 14:26:35.969743,599618629991058234,-31.00
2025-06-26 14:26:35.969743,599618629991058234,-22.00
2025-06-26 14:26:35.969743,599618629991058234,-14.00
2025-06-26 14:26:35.969743,599618629991058234,-7.00
2025-06-26 14:26:35.969743,599618629991058234,0.00
2025-06-26 14:26:35.969743,599618629991058234,12.00
2025-06-26 14:26:35.969743,599618629991058234,26.00
2025-06-26 14:26:35.969743,599618629991058234,34.00
2025-06-26 14:26:35.969743,599618629991058234,41.00
2025-06-26 14:26:35.969743,599618629991058234,56.00
2025-06-26 14:26:35.969743,599618629991058234,66.00
2025-06-26 14:26:35.969743,599618629991058234,71.00
2025-06-26 14:26:35.969743,599618629991058234,73.00
2025-06-26 14:26:35.969743,599618629991058234,80.00
2025-06-26 14:26:35.969743,599618629991058234,78.00
2025-06-26 14:26:35.969743,599618629991058234,63.00
2025-06-26 14:26:35.969743,599618629991058234,34.00
2025-06-26 14:26:35.969743,599618629991058234,-2.00
2025-06-26 14:26:35.969743,599618629991058234,-44.00
2025-06-26 14:26:35.969743,599618629991058234,-83.00
2025-06-26 14:26:35.969743,599618629991058234,-115.00
2025-06-26 14:26:35.969743,599618629991058234,-132.00
2025-06-26 14:26:35.969743,599618629991058234,-139.00
2025-06-26 14:26:35.969743,599618629991058234,-146.00
2025-06-26 14:26:35.969743,599618629991058234,-146.00
2025-06-26 14:26:35.969743,599618629991058234,-142.00
2025-06-26 14:26:35.969743,599618629991058234,-137.00
2025-06-26 14:26:35.969743,599618629991058234,-134.00
2025-06-26 14:26:35.969743,599618629991058234,-127.00
2025-06-26 14:26:35.969743,599618629991058234,-120.00
2025-06-26 14:26:35.969743,599618629991058234,-115.00
2025-06-26 14:26:35.969743,599618629991058234,-115.00
2025-06-26 14:26:35.969743,599618629991058234,-110.00
2025-06-26 14:26:35.969743,599618629991058234,-105.00
2025-06-26 14:26:35.969743,599618629991058234,-102.00
2025-06-26 14:26:35.969743,599618629991058234,-97.00
2025-06-26 14:26:35.969743,599618629991058234,-95.00
2025-06-26 14:26:35.969743,599618629991058234,-95.00
2025-06-26 14:26:35.969743,599618629991058234,-95.00
2025-06-26 14:26:35.969743,599618629991058234,-97.00
2025-06-26 14:26:35.969743,599618629991058234,-95.00
2025-06-26 14:26:35.969743,599618629991058234,-93.00
2025-06-26 14:26:35.969743,599618629991058234,-90.00
2025-06-26 14:26:36.540036,599618630551785793,-93.00
2025-06-26 14:26:36.540036,599618630551785793,-97.00
2025-06-26 14:26:36.540036,599618630551785793,-100.00
2025-06-26 14:26:36.540036,599618630551785793,-100.00
2025-06-26 14:26:36.540036,599618630551785793,-90.00
2025-06-26 14:26:36.540036,599618630551785793,-68.00
2025-06-26 14:26:36.540036,599618630551785793,-53.00
2025-06-26 14:26:36.540036,599618630551785793,-56.00
2025-06-26 14:26:36.540036,599618630551785793,-68.00
2025-06-26 14:26:36.540036,599618630551785793,-71.00
2025-06-26 14:26:36.540036,599618630551785793,-75.00
2025-06-26 14:26:36.540036,599618630551785793,-83.00
2025-06-26 14:26:36.540036,599618630551785793,-85.00
2025-06-26 14:26:36.540036,599618630551785793,-85.00
2025-06-26 14:26:36.540036,599618630551785793,-83.00
2025-06-26 14:26:36.540036,599618630551785793,-80.00
2025-06-26 14:26:36.540036,599618630551785793,-85.00
2025-06-26 14:26:36.540036,599618630551785793,-90.00
2025-06-26 14:26:36.540036,599618630551785793,-48.00
2025-06-26 14:26:36.540036,599618630551785793,112.00
2025-06-26 14:26:36.540036,599618630551785793,374.00
2025-06-26 14:26:36.540036,599618630551785793,592.00
2025-06-26 14:26:36.540036,599618630551785793,546.00
2025-06-26 14:26:36.540036,599618630551785793,144.00
2025-06-26 14:26:36.540036,599618630551785793,-259.00
2025-06-26 14:26:36.540036,599618630551785793,-237.00
2025-06-26 14:26:36.540036,599618630551785793,-56.00
2025-06-26 14:26:36.540036,599618630551785793,-88.00
2025-06-26 14:26:36.540036,599618630551785793,-142.00
2025-06-26 14:26:36.540036,599618630551785793,-97.00
2025-06-26 14:26:36.540036,599618630551785793,-85.00
2025-06-26 14:26:36.540036,599618630551785793,-97.00
2025-06-26 14:26:36.540036,599618630551785793,-83.00
2025-06-26 14:26:36.540036,599618630551785793,-68.00
2025-06-26 14:26:36.540036,599618630551785793,-68.00
2025-06-26 14:26:36.540036,599618630551785793,-56.00
2025-06-26 14:26:36.540036,599618630551785793,-44.00
2025-06-26 14:26:36.540036,599618630551785793,-39.00
2025-06-26 14:26:36.540036,599618630551785793,-29.00
2025-06-26 14:26:36.540036,599618630551785793,-17.00
2025-06-26 14:26:36.540036,599618630551785793,-9.00
2025-06-26 14:26:36.540036,599618630551785793,2.00
2025-06-26 14:26:36.540036,599618630551785793,14.00
2025-06-26 14:26:36.540036,599618630551785793,26.00
2025-06-26 14:26:36.540036,599618630551785793,39.00
2025-06-26 14:26:36.540036,599618630551785793,48.00
2025-06-26 14:26:36.540036,599618630551785793,58.00
2025-06-26 14:26:36.540036,599618630551785793,63.00
2025-06-26 14:26:36.540036,599618630551785793,71.00
2025-06-26 14:26:36.540036,599618630551785793,78.00
2025-06-26 14:26:36.540036,599618630551785793,80.00
2025-06-26 14:26:36.540036,599618630551785793,73.00
2025-06-26 14:26:36.540036,599618630551785793,56.00
2025-06-26 14:26:36.540036,599618630551785793,22.00
2025-06-26 14:26:36.540036,599618630551785793,-22.00
2025-06-26 14:26:36.540036,599618630551785793,-66.00
2025-06-26 14:26:36.540036,599618630551785793,-100.00
2025-06-26 14:26:36.540036,599618630551785793,-127.00
2025-06-26 14:26:36.540036,599618630551785793,-142.00
2025-06-26 14:26:36.540036,599618630551785793,-149.00
2025-06-26 14:26:36.540036,599618630551785793,-149.00
2025-06-26 14:26:36.540036,599618630551785793,-149.00
2025-06-26 14:26:36.540036,599618630551785793,-144.00
2025-06-26 14:26:36.540036,599618630551785793,-139.00
2025-06-26 14:26:36.540036,599618630551785793,-137.00
2025-06-26 14:26:36.540036,599618630551785793,-129.00
2025-06-26 14:26:36.540036,599618630551785793,-122.00
2025-06-26 14:26:36.540036,599618630551785793,-120.00
2025-06-26 14:26:36.540036,599618630551785793,-115.00
2025-06-26 14:26:36.540036,599618630551785793,-110.00
2025-06-26 14:26:36.540036,599618630551785793,-105.00
2025-06-26 14:26:36.540036,599618630551785793,-105.00
2025-06-26 14:26:36.540036,599618630551785793,-100.00
2025-06-26 14:26:37.110009,599618631112513350,-100.00
2025-06-26 14:26:37.110009,599618631112513350,-100.00
2025-06-26 14:26:37.110009,599618631112513350,-97.00
2025-06-26 14:26:37.110009,599618631112513350,-97.00
2025-06-26 14:26:37.110009,599618631112513350,-97.00
2025-06-26 14:26:37.110009,599618631112513350,-95.00
2025-06-26 14:26:37.110009,599618631112513350,-97.00
2025-06-26 14:26:37.110009,599618631112513350,-97.00
2025-06-26 14:26:37.110009,599618631112513350,-95.00
2025-06-26 14:26:37.110009,599618631112513350,-90.00
2025-06-26 14:26:37.110009,599618631112513350,-90.00
2025-06-26 14:26:37.110009,599618631112513350,-95.00
2025-06-26 14:26:37.110009,599618631112513350,-97.00
2025-06-26 14:26:37.110009,599618631112513350,-95.00
2025-06-26 14:26:37.110009,599618631112513350,-80.00
2025-06-26 14:26:37.110009,599618631112513350,-56.00
2025-06-26 14:26:37.110009,599618631112513350,-44.00
2025-06-26 14:26:37.110009,599618631112513350,-53.00
2025-06-26 14:26:37.110009,599618631112513350,-61.00
2025-06-26 14:26:37.110009,599618631112513350,-61.00
2025-06-26 14:26:37.110009,599618631112513350,-68.00
2025-06-26 14:26:37.110009,599618631112513350,-78.00
2025-06-26 14:26:37.110009,599618631112513350,-78.00
2025-06-26 14:26:37.110009,599618631112513350,-78.00
2025-06-26 14:26:37.110009,599618631112513350,-78.00
2025-06-26 14:26:37.110009,599618631112513350,-75.00
2025-06-26 14:26:37.110009,599618631112513350,-78.00
2025-06-26 14:26:37.110009,599618631112513350,-85.00
2025-06-26 14:26:37.110009,599618631112513350,-46.00
2025-06-26 14:26:37.110009,599618631112513350,105.00
2025-06-26 14:26:37.110009,599618631112513350,367.00
2025-06-26 14:26:37.110009,599618631112513350,607.00
2025-06-26 14:26:37.110009,599618631112513350,580.00
2025-06-26 14:26:37.110009,599618631112513350,159.00
2025-06-26 14:26:37.110009,599618631112513350,-262.00
2025-06-26 14:26:37.110009,599618631112513350,-222.00
2025-06-26 14:26:37.110009,599618631112513350,-39.00
2025-06-26 14:26:37.110009,599618631112513350,-88.00
2025-06-26 14:26:37.110009,599618631112513350,-144.00
2025-06-26 14:26:37.110009,599618631112513350,-93.00
2025-06-26 14:26:37.110009,599618631112513350,-83.00
2025-06-26 14:26:37.110009,599618631112513350,-95.00
2025-06-26 14:26:37.110009,599618631112513350,-75.00
2025-06-26 14:26:37.110009,599618631112513350,-61.00
2025-06-26 14:26:37.110009,599618631112513350,-61.00
2025-06-26 14:26:37.110009,599618631112513350,-48.00
2025-06-26 14:26:37.110009,599618631112513350,-36.00
2025-06-26 14:26:37.110009,599618631112513350,-29.00
2025-06-26 14:26:37.110009,599618631112513350,-22.00
2025-06-26 14:26:37.110009,599618631112513350,-12.00
2025-06-26 14:26:37.110009,599618631112513350,-4.00
2025-06-26 14:26:37.110009,599618631112513350,4.00
2025-06-26 14:26:37.110009,599618631112513350,17.00
2025-06-26 14:26:37.110009,599618631112513350,26.00
2025-06-26 14:26:37.110009,599618631112513350,39.00
2025-06-26 14:26:37.110009,599618631112513350,51.00
2025-06-26 14:26:37.110009,599618631112513350,58.00
2025-06-26 14:26:37.110009,599618631112513350,66.00
2025-06-26 14:26:37.110009,599618631112513350,73.00
2025-06-26 14:26:37.110009,599618631112513350,78.00
2025-06-26 14:26:37.110009,599618631112513350,78.00
2025-06-26 14:26:37.110009,599618631112513350,73.00
2025-06-26 14:26:37.110009,599618631112513350,58.00
2025-06-26 14:26:37.110009,599618631112513350,24.00
2025-06-26 14:26:37.110009,599618631112513350,-19.00
2025-06-26 14:26:37.110009,599618631112513350,-63.00
2025-06-26 14:26:37.110009,599618631112513350,-100.00
2025-06-26 14:26:37.110009,599618631112513350,-129.00
2025-06-26 14:26:37.110009,599618631112513350,-149.00
2025-06-26 14:26:37.110009,599618631112513350,-156.00
2025-06-26 14:26:37.110009,599618631112513350,-156.00
2025-06-26 14:26:37.110009,599618631112513350,-156.00
2025-06-26 14:26:37.110009,599618631112513350,-151.00
2025-06-26 14:26:37.680938,599618631673210395,-146.00
2025-06-26 14:26:37.680938,599618631673210395,-142.00
2025-06-26 14:26:37.680938,599618631673210395,-137.00
2025-06-26 14:26:37.680938,599618631673210395,-129.00
2025-06-26 14:26:37.680938,599618631673210395,-124.00
2025-06-26 14:26:37.680938,599618631673210395,-120.00
2025-06-26 14:26:37.680938,599618631673210395,-115.00
2025-06-26 14:26:37.680938,599618631673210395,-112.00
2025-06-26 14:26:37.680938,599618631673210395,-110.00
2025-06-26 14:26:37.680938,599618631673210395,-105.00
2025-06-26 14:26:37.680938,599618631673210395,-102.00
2025-06-26 14:26:37.680938,599618631673210395,-102.00
2025-06-26 14:26:37.680938,599618631673210395,-100.00
2025-06-26 14:26:37.680938,599618631673210395,-97.00
2025-06-26 14:26:37.680938,599618631673210395,-95.00
2025-06-26 14:26:37.680938,599618631673210395,-97.00
2025-06-26 14:26:37.680938,599618631673210395,-97.00
2025-06-26 14:26:37.680938,599618631673210395,-95.00
2025-06-26 14:26:37.680938,599618631673210395,-95.00
2025-06-26 14:26:37.680938,599618631673210395,-95.00
2025-06-26 14:26:37.680938,599618631673210395,-95.00
2025-06-26 14:26:37.680938,599618631673210395,-95.00
2025-06-26 14:26:37.680938,599618631673210395,-93.00
2025-06-26 14:26:37.680938,599618631673210395,-93.00
2025-06-26 14:26:37.680938,599618631673210395,-90.00
2025-06-26 14:26:37.680938,599618631673210395,-88.00
2025-06-26 14:26:37.680938,599618631673210395,-88.00
2025-06-26 14:26:37.680938,599618631673210395,-85.00
2025-06-26 14:26:37.680938,599618631673210395,-83.00
2025-06-26 14:26:37.680938,599618631673210395,-83.00
2025-06-26 14:26:37.680938,599618631673210395,-83.00
2025-06-26 14:26:37.680938,599618631673210395,-88.00
2025-06-26 14:26:37.680938,599618631673210395,-93.00
2025-06-26 14:26:37.680938,599618631673210395,-88.00
2025-06-26 14:26:37.680938,599618631673210395,-68.00
2025-06-26 14:26:37.680938,599618631673210395,-46.00
2025-06-26 14:26:37.680938,599618631673210395,-39.00
2025-06-26 14:26:37.680938,599618631673210395,-51.00
2025-06-26 14:26:37.680938,599618631673210395,-51.00
2025-06-26 14:26:37.680938,599618631673210395,-48.00
2025-06-26 14:26:37.680938,599618631673210395,-61.00
2025-06-26 14:26:37.680938,599618631673210395,-71.00
2025-06-26 14:26:37.680938,599618631673210395,-71.00
2025-06-26 14:26:37.680938,599618631673210395,-68.00
2025-06-26 14:26:37.680938,599618631673210395,-66.00
2025-06-26 14:26:37.680938,599618631673210395,-63.00
2025-06-26 14:26:37.680938,599618631673210395,-68.00
2025-06-26 14:26:37.680938,599618631673210395,-73.00
2025-06-26 14:26:37.680938,599618631673210395,-14.00
2025-06-26 14:26:37.680938,599618631673210395,166.00
2025-06-26 14:26:37.680938,599618631673210395,440.00
2025-06-26 14:26:37.680938,599618631673210395,658.00
2025-06-26 14:26:37.680938,599618631673210395,565.00
2025-06-26 14:26:37.680938,599618631673210395,90.00
2025-06-26 14:26:37.680938,599618631673210395,-281.00
2025-06-26 14:26:37.680938,599618631673210395,-164.00
2025-06-26 14:26:37.680938,599618631673210395,-4.00
2025-06-26 14:26:37.680938,599618631673210395,-100.00
2025-06-26 14:26:37.680938,599618631673210395,-134.00
2025-06-26 14:26:37.680938,599618631673210395,-73.00
2025-06-26 14:26:37.680938,599618631673210395,-78.00
2025-06-26 14:26:37.680938,599618631673210395,-93.00
2025-06-26 14:26:37.680938,599618631673210395,-66.00
2025-06-26 14:26:37.680938,599618631673210395,-53.00
2025-06-26 14:26:37.680938,599618631673210395,-56.00
2025-06-26 14:26:37.680938,599618631673210395,-44.00
2025-06-26 14:26:37.680938,599618631673210395,-34.00
2025-06-26 14:26:37.680938,599618631673210395,-26.00
2025-06-26 14:26:37.680938,599618631673210395,-19.00
2025-06-26 14:26:37.680938,599618631673210395,-9.00
2025-06-26 14:26:37.680938,599618631673210395,0.00
2025-06-26 14:26:37.680938,599618631673210395,9.00
2025-06-26 14:26:37.680938,599618631673210395,17.00
2025-06-26 14:26:38.279613,599618632233917608,26.00
2025-06-26 14:26:38.279613,599618632233917608,41.00
2025-06-26 14:26:38.279613,599618632233917608,51.00
2025-06-26 14:26:38.279613,599618632233917608,58.00
2025-06-26 14:26:38.279613,599618632233917608,68.00
2025-06-26 14:26:38.279613,599618632233917608,73.00
2025-06-26 14:26:38.279613,599618632233917608,78.00
2025-06-26 14:26:38.279613,599618632233917608,80.00
2025-06-26 14:26:38.279613,599618632233917608,78.00
2025-06-26 14:26:38.279613,599618632233917608,66.00
2025-06-26 14:26:38.279613,599618632233917608,41.00
2025-06-26 14:26:38.279613,599618632233917608,4.00
2025-06-26 14:26:38.279613,599618632233917608,-36.00
2025-06-26 14:26:38.279613,599618632233917608,-73.00
2025-06-26 14:26:38.279613,599618632233917608,-102.00
2025-06-26 14:26:38.279613,599618632233917608,-122.00
2025-06-26 14:26:38.279613,599618632233917608,-137.00
2025-06-26 14:26:38.279613,599618632233917608,-139.00
2025-06-26 14:26:38.279613,599618632233917608,-139.00
2025-06-26 14:26:38.279613,599618632233917608,-137.00
2025-06-26 14:26:38.279613,599618632233917608,-134.00
2025-06-26 14:26:38.279613,599618632233917608,-129.00
2025-06-26 14:26:38.279613,599618632233917608,-122.00
2025-06-26 14:26:38.279613,599618632233917608,-117.00
2025-06-26 14:26:38.279613,599618632233917608,-115.00
2025-06-26 14:26:38.279613,599618632233917608,-110.00
2025-06-26 14:26:38.279613,599618632233917608,-105.00
2025-06-26 14:26:38.279613,599618632233917608,-100.00
2025-06-26 14:26:38.279613,599618632233917608,-95.00
2025-06-26 14:26:38.279613,599618632233917608,-93.00
2025-06-26 14:26:38.279613,599618632233917608,-93.00
2025-06-26 14:26:38.279613,599618632233917608,-90.00
2025-06-26 14:26:38.279613,599618632233917608,-88.00
2025-06-26 14:26:38.279613,599618632233917608,-88.00
2025-06-26 14:26:38.279613,599618632233917608,-85.00
2025-06-26 14:26:38.279613,599618632233917608,-85.00
2025-06-26 14:26:38.279613,599618632233917608,-85.00
2025-06-26 14:26:38.279613,599618632233917608,-83.00
2025-06-26 14:26:38.279613,599618632233917608,-80.00
2025-06-26 14:26:38.279613,599618632233917608,-83.00
2025-06-26 14:26:38.279613,599618632233917608,-83.00
2025-06-26 14:26:38.279613,599618632233917608,-80.00
2025-06-26 14:26:38.279613,599618632233917608,-80.00
2025-06-26 14:26:38.279613,599618632233917608,-80.00
2025-06-26 14:26:38.279613,599618632233917608,-78.00
2025-06-26 14:26:38.279613,599618632233917608,-75.00
2025-06-26 14:26:38.279613,599618632233917608,-75.00
2025-06-26 14:26:38.279613,599618632233917608,-75.00
2025-06-26 14:26:38.279613,599618632233917608,-73.00
2025-06-26 14:26:38.279613,599618632233917608,-71.00
2025-06-26 14:26:38.279613,599618632233917608,-68.00
2025-06-26 14:26:38.279613,599618632233917608,-68.00
2025-06-26 14:26:38.279613,599618632233917608,-66.00
2025-06-26 14:26:38.279613,599618632233917608,-63.00
2025-06-26 14:26:38.279613,599618632233917608,-63.00
2025-06-26 14:26:38.279613,599618632233917608,-63.00
2025-06-26 14:26:38.279613,599618632233917608,-63.00
2025-06-26 14:26:38.279613,599618632233917608,-68.00
2025-06-26 14:26:38.279613,599618632233917608,-71.00
2025-06-26 14:26:38.279613,599618632233917608,-66.00
2025-06-26 14:26:38.279613,599618632233917608,-44.00
2025-06-26 14:26:38.279613,599618632233917608,-24.00
2025-06-26 14:26:38.279613,599618632233917608,-24.00
2025-06-26 14:26:38.279613,599618632233917608,-36.00
2025-06-26 14:26:38.279613,599618632233917608,-36.00
2025-06-26 14:26:38.279613,599618632233917608,-41.00
2025-06-26 14:26:38.279613,599618632233917608,-56.00
2025-06-26 14:26:38.279613,599618632233917608,-58.00
2025-06-26 14:26:38.279613,599618632233917608,-53.00
2025-06-26 14:26:38.279613,599618632233917608,-58.00
2025-06-26 14:26:38.279613,599618632233917608,-58.00
2025-06-26 14:26:38.279613,599618632233917608,-56.00
2025-06-26 14:26:38.279613,599618632233917608,-63.00
2025-06-26 14:26:38.849369,599618632794634995,-58.00
2025-06-26 14:26:38.849369,599618632794634995,31.00
2025-06-26 14:26:38.849369,599618632794634995,237.00
2025-06-26 14:26:38.849369,599618632794634995,497.00
2025-06-26 14:26:38.849369,599618632794634995,636.00
2025-06-26 14:26:38.849369,599618632794634995,418.00
2025-06-26 14:26:38.849369,599618632794634995,-63.00
2025-06-26 14:26:38.849369,599618632794634995,-271.00
2025-06-26 14:26:38.849369,599618632794634995,-93.00
2025-06-26 14:26:38.849369,599618632794634995,-24.00
2025-06-26 14:26:38.849369,599618632794634995,-127.00
2025-06-26 14:26:38.849369,599618632794634995,-117.00
2025-06-26 14:26:38.849369,599618632794634995,-71.00
2025-06-26 14:26:38.849369,599618632794634995,-90.00
2025-06-26 14:26:38.849369,599618632794634995,-88.00
2025-06-26 14:26:38.849369,599618632794634995,-63.00
2025-06-26 14:26:38.849369,599618632794634995,-61.00
2025-06-26 14:26:38.849369,599618632794634995,-61.00
2025-06-26 14:26:38.849369,599618632794634995,-46.00
2025-06-26 14:26:38.849369,599618632794634995,-34.00
2025-06-26 14:26:38.849369,599618632794634995,-26.00
2025-06-26 14:26:38.849369,599618632794634995,-19.00
2025-06-26 14:26:38.849369,599618632794634995,-7.00
2025-06-26 14:26:38.849369,599618632794634995,2.00
2025-06-26 14:26:38.849369,599618632794634995,0.00
2025-06-26 14:26:38.849369,599618632794634995,2.00
2025-06-26 14:26:38.849369,599618632794634995,12.00
2025-06-26 14:26:38.849369,599618632794634995,22.00
2025-06-26 14:26:38.849369,599618632794634995,34.00
2025-06-26 14:26:38.849369,599618632794634995,36.00
2025-06-26 14:26:38.849369,599618632794634995,44.00
2025-06-26 14:26:38.849369,599618632794634995,71.00
2025-06-26 14:26:38.849369,599618632794634995,75.00
2025-06-26 14:26:38.849369,599618632794634995,61.00
2025-06-26 14:26:38.849369,599618632794634995,63.00
2025-06-26 14:26:38.849369,599618632794634995,56.00
2025-06-26 14:26:38.849369,599618632794634995,24.00
2025-06-26 14:26:38.849369,599618632794634995,-7.00
2025-06-26 14:26:38.849369,599618632794634995,-41.00
2025-06-26 14:26:38.849369,599618632794634995,-75.00
2025-06-26 14:26:38.849369,599618632794634995,-102.00
2025-06-26 14:26:38.849369,599618632794634995,-117.00
2025-06-26 14:26:38.849369,599618632794634995,-124.00
2025-06-26 14:26:38.849369,599618632794634995,-127.00
2025-06-26 14:26:38.849369,599618632794634995,-132.00
2025-06-26 14:26:38.849369,599618632794634995,-132.00
2025-06-26 14:26:38.849369,599618632794634995,-120.00
2025-06-26 14:26:38.849369,599618632794634995,-110.00
2025-06-26 14:26:38.849369,599618632794634995,-110.00
2025-06-26 14:26:38.849369,599618632794634995,-107.00
2025-06-26 14:26:38.849369,599618632794634995,-102.00
2025-06-26 14:26:38.849369,599618632794634995,-97.00
2025-06-26 14:26:38.849369,599618632794634995,-93.00
2025-06-26 14:26:38.849369,599618632794634995,-90.00
2025-06-26 14:26:38.849369,599618632794634995,-90.00
2025-06-26 14:26:38.849369,599618632794634995,-90.00
2025-06-26 14:26:38.849369,599618632794634995,-85.00
2025-06-26 14:26:38.849369,599618632794634995,-85.00
2025-06-26 14:26:38.849369,599618632794634995,-85.00
2025-06-26 14:26:38.849369,599618632794634995,-85.00
2025-06-26 14:26:38.849369,599618632794634995,-85.00
2025-06-26 14:26:38.849369,599618632794634995,-85.00
2025-06-26 14:26:38.849369,599618632794634995,-85.00
2025-06-26 14:26:38.849369,599618632794634995,-83.00
2025-06-26 14:26:38.849369,599618632794634995,-83.00
2025-06-26 14:26:38.849369,599618632794634995,-80.00
2025-06-26 14:26:38.849369,599618632794634995,-78.00
2025-06-26 14:26:38.849369,599618632794634995,-78.00
2025-06-26 14:26:38.849369,599618632794634995,-75.00
2025-06-26 14:26:38.849369,599618632794634995,-73.00
2025-06-26 14:26:38.849369,599618632794634995,-73.00
2025-06-26 14:26:38.849369,599618632794634995,-73.00
2025-06-26 14:26:38.849369,599618632794634995,-71.00
2025-06-26 14:26:39.391639,599618633355362554,-68.00
2025-06-26 14:26:39.391639,599618633355362554,-68.00
2025-06-26 14:26:39.391639,599618633355362554,-66.00
2025-06-26 14:26:39.391639,599618633355362554,-63.00
2025-06-26 14:26:39.391639,599618633355362554,-61.00
2025-06-26 14:26:39.391639,599618633355362554,-58.00
2025-06-26 14:26:39.391639,599618633355362554,-53.00
2025-06-26 14:26:39.391639,599618633355362554,-51.00
2025-06-26 14:26:39.391639,599618633355362554,-51.00
2025-06-26 14:26:39.391639,599618633355362554,-48.00
2025-06-26 14:26:39.391639,599618633355362554,-51.00
2025-06-26 14:26:39.391639,599618633355362554,-53.00
2025-06-26 14:26:39.391639,599618633355362554,-41.00
2025-06-26 14:26:39.391639,599618633355362554,-17.00
2025-06-26 14:26:39.391639,599618633355362554,-2.00
2025-06-26 14:26:39.391639,599618633355362554,-7.00
2025-06-26 14:26:39.391639,599618633355362554,-19.00
2025-06-26 14:26:39.391639,599618633355362554,-22.00
2025-06-26 14:26:39.391639,599618633355362554,-29.00
2025-06-26 14:26:39.391639,599618633355362554,-39.00
2025-06-26 14:26:39.391639,599618633355362554,-41.00
2025-06-26 14:26:39.391639,599618633355362554,-44.00
2025-06-26 14:26:39.391639,599618633355362554,-48.00
2025-06-26 14:26:39.391639,599618633355362554,-39.00
2025-06-26 14:26:39.391639,599618633355362554,-31.00
2025-06-26 14:26:39.391639,599618633355362554,-44.00
2025-06-26 14:26:39.391639,599618633355362554,-34.00
2025-06-26 14:26:39.391639,599618633355362554,73.00
2025-06-26 14:26:39.391639,599618633355362554,289.00
2025-06-26 14:26:39.391639,599618633355362554,524.00
2025-06-26 14:26:39.391639,599618633355362554,585.00
2025-06-26 14:26:39.391639,599618633355362554,281.00
2025-06-26 14:26:39.391639,599618633355362554,-151.00
2025-06-26 14:26:39.391639,599618633355362554,-227.00
2025-06-26 14:26:39.391639,599618633355362554,-41.00
2025-06-26 14:26:39.391639,599618633355362554,-31.00
2025-06-26 14:26:39.391639,599618633355362554,-110.00
2025-06-26 14:26:39.391639,599618633355362554,-83.00
2025-06-26 14:26:39.391639,599618633355362554,-53.00
2025-06-26 14:26:39.391639,599618633355362554,-68.00
2025-06-26 14:26:39.391639,599618633355362554,-66.00
2025-06-26 14:26:39.391639,599618633355362554,-51.00
2025-06-26 14:26:39.391639,599618633355362554,-44.00
2025-06-26 14:26:39.391639,599618633355362554,-44.00
2025-06-26 14:26:39.391639,599618633355362554,-36.00
2025-06-26 14:26:39.391639,599618633355362554,-29.00
2025-06-26 14:26:39.391639,599618633355362554,-29.00
2025-06-26 14:26:39.391639,599618633355362554,-22.00
2025-06-26 14:26:39.391639,599618633355362554,-2.00
2025-06-26 14:26:39.391639,599618633355362554,12.00
2025-06-26 14:26:39.391639,599618633355362554,9.00
2025-06-26 14:26:39.391639,599618633355362554,14.00
2025-06-26 14:26:39.391639,599618633355362554,29.00
2025-06-26 14:26:39.391639,599618633355362554,36.00
2025-06-26 14:26:39.391639,599618633355362554,39.00
2025-06-26 14:26:39.391639,599618633355362554,48.00
2025-06-26 14:26:39.391639,599618633355362554,56.00
2025-06-26 14:26:39.391639,599618633355362554,56.00
2025-06-26 14:26:39.391639,599618633355362554,61.00
2025-06-26 14:26:39.391639,599618633355362554,63.00
2025-06-26 14:26:39.391639,599618633355362554,53.00
2025-06-26 14:26:39.391639,599618633355362554,44.00
2025-06-26 14:26:39.391639,599618633355362554,26.00
2025-06-26 14:26:39.391639,599618633355362554,-9.00
2025-06-26 14:26:39.391639,599618633355362554,-44.00
2025-06-26 14:26:39.391639,599618633355362554,-71.00
2025-06-26 14:26:39.391639,599618633355362554,-95.00
2025-06-26 14:26:39.391639,599618633355362554,-115.00
2025-06-26 14:26:39.391639,599618633355362554,-120.00
2025-06-26 14:26:39.391639,599618633355362554,-120.00
2025-06-26 14:26:39.391639,599618633355362554,-122.00
2025-06-26 14:26:39.391639,599618633355362554,-120.00
2025-06-26 14:26:39.391639,599618633355362554,-110.00
2025-06-26 14:26:39.931353,599618633916059595,-105.00
2025-06-26 14:26:39.931353,599618633916059595,-105.00
2025-06-26 14:26:39.931353,599618633916059595,-100.00
2025-06-26 14:26:39.931353,599618633916059595,-93.00
2025-06-26 14:26:39.931353,599618633916059595,-90.00
2025-06-26 14:26:39.931353,599618633916059595,-88.00
2025-06-26 14:26:39.931353,599618633916059595,-83.00
2025-06-26 14:26:39.931353,599618633916059595,-83.00
2025-06-26 14:26:39.931353,599618633916059595,-85.00
2025-06-26 14:26:39.931353,599618633916059595,-80.00
2025-06-26 14:26:39.931353,599618633916059595,-75.00
2025-06-26 14:26:39.931353,599618633916059595,-78.00
2025-06-26 14:26:39.931353,599618633916059595,-80.00
2025-06-26 14:26:39.931353,599618633916059595,-75.00
2025-06-26 14:26:39.931353,599618633916059595,-71.00
2025-06-26 14:26:39.931353,599618633916059595,-71.00
2025-06-26 14:26:39.931353,599618633916059595,-73.00
2025-06-26 14:26:39.931353,599618633916059595,-71.00
2025-06-26 14:26:39.931353,599618633916059595,-68.00
2025-06-26 14:26:39.931353,599618633916059595,-71.00
2025-06-26 14:26:39.931353,599618633916059595,-71.00
2025-06-26 14:26:39.931353,599618633916059595,-68.00
2025-06-26 14:26:39.931353,599618633916059595,-66.00
2025-06-26 14:26:39.931353,599618633916059595,-66.00
2025-06-26 14:26:39.931353,599618633916059595,-66.00
2025-06-26 14:26:39.931353,599618633916059595,-63.00
2025-06-26 14:26:39.931353,599618633916059595,-63.00
2025-06-26 14:26:39.931353,599618633916059595,-61.00
2025-06-26 14:26:39.931353,599618633916059595,-61.00
2025-06-26 14:26:39.931353,599618633916059595,-58.00
2025-06-26 14:26:39.931353,599618633916059595,-58.00
2025-06-26 14:26:39.931353,599618633916059595,-61.00
2025-06-26 14:26:39.931353,599618633916059595,-66.00
2025-06-26 14:26:39.931353,599618633916059595,-68.00
2025-06-26 14:26:39.931353,599618633916059595,-61.00
2025-06-26 14:26:39.931353,599618633916059595,-41.00
2025-06-26 14:26:39.931353,599618633916059595,-19.00
2025-06-26 14:26:39.931353,599618633916059595,-19.00
2025-06-26 14:26:39.931353,599618633916059595,-31.00
2025-06-26 14:26:39.931353,599618633916059595,-36.00
2025-06-26 14:26:39.931353,599618633916059595,-39.00
2025-06-26 14:26:39.931353,599618633916059595,-48.00
2025-06-26 14:26:39.931353,599618633916059595,-53.00
2025-06-26 14:26:39.931353,599618633916059595,-56.00
2025-06-26 14:26:39.931353,599618633916059595,-58.00
2025-06-26 14:26:39.931353,599618633916059595,-56.00
2025-06-26 14:26:39.931353,599618633916059595,-53.00
2025-06-26 14:26:39.931353,599618633916059595,-61.00
2025-06-26 14:26:39.931353,599618633916059595,-63.00
2025-06-26 14:26:39.931353,599618633916059595,0.00
2025-06-26 14:26:39.931353,599618633916059595,178.00
2025-06-26 14:26:39.931353,599618633916059595,423.00
2025-06-26 14:26:39.931353,599618633916059595,575.00
2025-06-26 14:26:39.931353,599618633916059595,431.00
2025-06-26 14:26:39.931353,599618633916059595,0.00
2025-06-26 14:26:39.931353,599618633916059595,-269.00
2025-06-26 14:26:39.931353,599618633916059595,-124.00
2025-06-26 14:26:39.931353,599618633916059595,-7.00
2025-06-26 14:26:39.931353,599618633916059595,-97.00
2025-06-26 14:26:39.931353,599618633916059595,-120.00
2025-06-26 14:26:39.931353,599618633916059595,-75.00
2025-06-26 14:26:39.931353,599618633916059595,-90.00
2025-06-26 14:26:39.931353,599618633916059595,-102.00
2025-06-26 14:26:39.931353,599618633916059595,-73.00
2025-06-26 14:26:39.931353,599618633916059595,-48.00
2025-06-26 14:26:39.931353,599618633916059595,-46.00
2025-06-26 14:26:39.931353,599618633916059595,-44.00
2025-06-26 14:26:39.931353,599618633916059595,-36.00
2025-06-26 14:26:39.931353,599618633916059595,-29.00
2025-06-26 14:26:39.931353,599618633916059595,-26.00
2025-06-26 14:26:39.931353,599618633916059595,-24.00
2025-06-26 14:26:39.931353,599618633916059595,-19.00
2025-06-26 14:26:39.931353,599618633916059595,-9.00
2025-06-26 14:26:40.470329,599618634476787152,7.00
2025-06-26 14:26:40.470329,599618634476787152,19.00
2025-06-26 14:26:40.470329,599618634476787152,24.00
2025-06-26 14:26:40.470329,599618634476787152,26.00
2025-06-26 14:26:40.470329,599618634476787152,41.00
2025-06-26 14:26:40.470329,599618634476787152,68.00
2025-06-26 14:26:40.470329,599618634476787152,73.00
2025-06-26 14:26:40.470329,599618634476787152,63.00
2025-06-26 14:26:40.470329,599618634476787152,61.00
2025-06-26 14:26:40.470329,599618634476787152,61.00
2025-06-26 14:26:40.470329,599618634476787152,56.00
2025-06-26 14:26:40.470329,599618634476787152,31.00
2025-06-26 14:26:40.470329,599618634476787152,-12.00
2025-06-26 14:26:40.470329,599618634476787152,-41.00
2025-06-26 14:26:40.470329,599618634476787152,-63.00
2025-06-26 14:26:40.470329,599618634476787152,-97.00
2025-06-26 14:26:40.470329,599618634476787152,-129.00
2025-06-26 14:26:40.470329,599618634476787152,-139.00
2025-06-26 14:26:40.470329,599618634476787152,-129.00
2025-06-26 14:26:40.470329,599618634476787152,-122.00
2025-06-26 14:26:40.470329,599618634476787152,-112.00
2025-06-26 14:26:40.470329,599618634476787152,-105.00
2025-06-26 14:26:40.470329,599618634476787152,-120.00
2025-06-26 14:26:40.470329,599618634476787152,-132.00
2025-06-26 14:26:40.470329,599618634476787152,-112.00
2025-06-26 14:26:40.470329,599618634476787152,-85.00
2025-06-26 14:26:40.470329,599618634476787152,-93.00
2025-06-26 14:26:40.470329,599618634476787152,-88.00
2025-06-26 14:26:40.470329,599618634476787152,-58.00
2025-06-26 14:26:40.470329,599618634476787152,-63.00
2025-06-26 14:26:40.470329,599618634476787152,-80.00
2025-06-26 14:26:40.470329,599618634476787152,-68.00
2025-06-26 14:26:40.470329,599618634476787152,-51.00
2025-06-26 14:26:40.470329,599618634476787152,-66.00
2025-06-26 14:26:40.470329,599618634476787152,-80.00
2025-06-26 14:26:40.470329,599618634476787152,-66.00
2025-06-26 14:26:40.470329,599618634476787152,-58.00
2025-06-26 14:26:40.470329,599618634476787152,-63.00
2025-06-26 14:26:40.470329,599618634476787152,-53.00
2025-06-26 14:26:40.470329,599618634476787152,-48.00
2025-06-26 14:26:40.470329,599618634476787152,-58.00
2025-06-26 14:26:40.470329,599618634476787152,-53.00
2025-06-26 14:26:40.470329,599618634476787152,-53.00
2025-06-26 14:26:40.470329,599618634476787152,-58.00
2025-06-26 14:26:40.470329,599618634476787152,-53.00
2025-06-26 14:26:40.470329,599618634476787152,-51.00
2025-06-26 14:26:40.470329,599618634476787152,-31.00
2025-06-26 14:26:40.470329,599618634476787152,-17.00
2025-06-26 14:26:40.470329,599618634476787152,-41.00
2025-06-26 14:26:40.470329,599618634476787152,-56.00
2025-06-26 14:26:40.470329,599618634476787152,-39.00
2025-06-26 14:26:40.470329,599618634476787152,-26.00
2025-06-26 14:26:40.470329,599618634476787152,-7.00
2025-06-26 14:26:40.470329,599618634476787152,12.00
2025-06-26 14:26:40.470329,599618634476787152,12.00
2025-06-26 14:26:40.470329,599618634476787152,2.00
2025-06-26 14:26:40.470329,599618634476787152,0.00
2025-06-26 14:26:40.470329,599618634476787152,-4.00
2025-06-26 14:26:40.470329,599618634476787152,-17.00
2025-06-26 14:26:40.470329,599618634476787152,-17.00
2025-06-26 14:26:40.470329,599618634476787152,-2.00
2025-06-26 14:26:40.470329,599618634476787152,-7.00
2025-06-26 14:26:40.470329,599618634476787152,-26.00
2025-06-26 14:26:40.470329,599618634476787152,-12.00
2025-06-26 14:26:40.470329,599618634476787152,2.00
2025-06-26 14:26:40.470329,599618634476787152,31.00
2025-06-26 14:26:40.470329,599618634476787152,188.00
2025-06-26 14:26:40.470329,599618634476787152,462.00
2025-06-26 14:26:40.470329,599618634476787152,715.00
2025-06-26 14:26:40.470329,599618634476787152,737.00
2025-06-26 14:26:40.470329,599618634476787152,333.00
2025-06-26 14:26:40.470329,599618634476787152,-159.00
2025-06-26 14:26:40.470329,599618634476787152,-166.00
2025-06-26 14:26:41.041619,599618635037484197,31.00
2025-06-26 14:26:41.041619,599618635037484197,-26.00
2025-06-26 14:26:41.041619,599618635037484197,-85.00
2025-06-26 14:26:41.041619,599618635037484197,-12.00
2025-06-26 14:26:41.041619,599618635037484197,-9.00
2025-06-26 14:26:41.041619,599618635037484197,-41.00
2025-06-26 14:26:41.041619,599618635037484197,-7.00
2025-06-26 14:26:41.041619,599618635037484197,7.00
2025-06-26 14:26:41.041619,599618635037484197,-14.00
2025-06-26 14:26:41.041619,599618635037484197,4.00
2025-06-26 14:26:41.041619,599618635037484197,19.00
2025-06-26 14:26:41.041619,599618635037484197,-7.00
2025-06-26 14:26:41.041619,599618635037484197,0.00
2025-06-26 14:26:41.041619,599618635037484197,26.00
2025-06-26 14:26:41.041619,599618635037484197,29.00
2025-06-26 14:26:41.041619,599618635037484197,29.00
2025-06-26 14:26:41.041619,599618635037484197,46.00
2025-06-26 14:26:41.041619,599618635037484197,71.00
2025-06-26 14:26:41.041619,599618635037484197,71.00
2025-06-26 14:26:41.041619,599618635037484197,61.00
2025-06-26 14:26:41.041619,599618635037484197,68.00
2025-06-26 14:26:41.041619,599618635037484197,78.00
2025-06-26 14:26:41.041619,599618635037484197,68.00
2025-06-26 14:26:41.041619,599618635037484197,53.00
2025-06-26 14:26:41.041619,599618635037484197,63.00
2025-06-26 14:26:41.041619,599618635037484197,75.00
2025-06-26 14:26:41.041619,599618635037484197,56.00
2025-06-26 14:26:41.041619,599618635037484197,9.00
2025-06-26 14:26:41.041619,599618635037484197,-22.00
2025-06-26 14:26:41.041619,599618635037484197,-56.00
2025-06-26 14:26:41.041619,599618635037484197,-95.00
2025-06-26 14:26:41.041619,599618635037484197,-124.00
2025-06-26 14:26:41.041619,599618635037484197,-144.00
2025-06-26 14:26:41.041619,599618635037484197,-144.00
2025-06-26 14:26:41.041619,599618635037484197,-146.00
2025-06-26 14:26:41.041619,599618635037484197,-156.00
2025-06-26 14:26:41.041619,599618635037484197,-149.00
2025-06-26 14:26:41.041619,599618635037484197,-137.00
2025-06-26 14:26:41.041619,599618635037484197,-144.00
2025-06-26 14:26:41.041619,599618635037484197,-151.00
2025-06-26 14:26:41.041619,599618635037484197,-127.00
2025-06-26 14:26:41.041619,599618635037484197,-112.00
2025-06-26 14:26:41.041619,599618635037484197,-134.00
2025-06-26 14:26:41.041619,599618635037484197,-134.00
2025-06-26 14:26:41.041619,599618635037484197,-105.00
2025-06-26 14:26:41.041619,599618635037484197,-107.00
2025-06-26 14:26:41.041619,599618635037484197,-127.00
2025-06-26 14:26:41.041619,599618635037484197,-124.00
2025-06-26 14:26:41.041619,599618635037484197,-110.00
2025-06-26 14:26:41.041619,599618635037484197,-107.00
2025-06-26 14:26:41.041619,599618635037484197,-117.00
2025-06-26 14:26:41.041619,599618635037484197,-120.00
2025-06-26 14:26:41.041619,599618635037484197,-102.00
2025-06-26 14:26:41.041619,599618635037484197,-107.00
2025-06-26 14:26:41.041619,599618635037484197,-132.00
2025-06-26 14:26:41.041619,599618635037484197,-117.00
2025-06-26 14:26:41.041619,599618635037484197,-95.00
2025-06-26 14:26:41.041619,599618635037484197,-115.00
2025-06-26 14:26:41.041619,599618635037484197,-132.00
2025-06-26 14:26:41.041619,599618635037484197,-117.00
2025-06-26 14:26:41.041619,599618635037484197,-102.00
2025-06-26 14:26:41.041619,599618635037484197,-100.00
2025-06-26 14:26:41.041619,599618635037484197,-105.00
2025-06-26 14:26:41.041619,599618635037484197,-107.00
2025-06-26 14:26:41.041619,599618635037484197,-112.00
2025-06-26 14:26:41.041619,599618635037484197,-117.00
2025-06-26 14:26:41.041619,599618635037484197,-112.00
2025-06-26 14:26:41.041619,599618635037484197,-85.00
2025-06-26 14:26:41.041619,599618635037484197,-63.00
2025-06-26 14:26:41.041619,599618635037484197,-63.00
2025-06-26 14:26:41.041619,599618635037484197,-71.00
2025-06-26 14:26:41.041619,599618635037484197,-73.00
2025-06-26 14:26:41.041619,599618635037484197,-80.00
2025-06-26 14:26:41.609882,599618635598181238,-83.00
2025-06-26 14:26:41.609882,599618635598181238,-90.00
2025-06-26 14:26:41.609882,599618635598181238,-102.00
2025-06-26 14:26:41.609882,599618635598181238,-97.00
2025-06-26 14:26:41.609882,599618635598181238,-75.00
2025-06-26 14:26:41.609882,599618635598181238,-71.00
2025-06-26 14:26:41.609882,599618635598181238,-88.00
2025-06-26 14:26:41.609882,599618635598181238,-22.00
2025-06-26 14:26:41.609882,599618635598181238,213.00
2025-06-26 14:26:41.609882,599618635598181238,534.00
2025-06-26 14:26:41.609882,599618635598181238,727.00
2025-06-26 14:26:41.609882,599618635598181238,556.00
2025-06-26 14:26:41.609882,599618635598181238,19.00
2025-06-26 14:26:41.609882,599618635598181238,-330.00
2025-06-26 14:26:41.609882,599618635598181238,-161.00
2025-06-26 14:26:41.609882,599618635598181238,-14.00
2025-06-26 14:26:41.609882,599618635598181238,-122.00
2025-06-26 14:26:41.609882,599618635598181238,-146.00
2025-06-26 14:26:41.609882,599618635598181238,-88.00
2025-06-26 14:26:41.609882,599618635598181238,-97.00
2025-06-26 14:26:41.609882,599618635598181238,-107.00
2025-06-26 14:26:41.609882,599618635598181238,-80.00
2025-06-26 14:26:41.609882,599618635598181238,-71.00
2025-06-26 14:26:41.609882,599618635598181238,-75.00
2025-06-26 14:26:41.609882,599618635598181238,-71.00
2025-06-26 14:26:41.609882,599618635598181238,-56.00
2025-06-26 14:26:41.609882,599618635598181238,-31.00
2025-06-26 14:26:41.609882,599618635598181238,-24.00
2025-06-26 14:26:41.609882,599618635598181238,-29.00
2025-06-26 14:26:41.609882,599618635598181238,-17.00
2025-06-26 14:26:41.609882,599618635598181238,2.00
2025-06-26 14:26:41.609882,599618635598181238,14.00
2025-06-26 14:26:41.609882,599618635598181238,19.00
2025-06-26 14:26:41.609882,599618635598181238,22.00
2025-06-26 14:26:41.609882,599618635598181238,34.00
2025-06-26 14:26:41.609882,599618635598181238,53.00
2025-06-26 14:26:41.609882,599618635598181238,56.00
2025-06-26 14:26:41.609882,599618635598181238,48.00
2025-06-26 14:26:41.609882,599618635598181238,58.00
2025-06-26 14:26:41.609882,599618635598181238,68.00
2025-06-26 14:26:41.609882,599618635598181238,56.00
2025-06-26 14:26:41.609882,599618635598181238,36.00
2025-06-26 14:26:41.609882,599618635598181238,12.00
2025-06-26 14:26:41.609882,599618635598181238,-26.00
2025-06-26 14:26:41.609882,599618635598181238,-73.00
2025-06-26 14:26:41.609882,599618635598181238,-102.00
2025-06-26 14:26:41.609882,599618635598181238,-122.00
2025-06-26 14:26:41.609882,599618635598181238,-139.00
2025-06-26 14:26:41.609882,599618635598181238,-144.00
2025-06-26 14:26:41.609882,599618635598181238,-139.00
2025-06-26 14:26:41.609882,599618635598181238,-134.00
2025-06-26 14:26:41.609882,599618635598181238,-134.00
2025-06-26 14:26:41.609882,599618635598181238,-134.00
2025-06-26 14:26:41.609882,599618635598181238,-127.00
2025-06-26 14:26:41.609882,599618635598181238,-105.00
2025-06-26 14:26:41.609882,599618635598181238,-95.00
2025-06-26 14:26:41.609882,599618635598181238,-102.00
2025-06-26 14:26:41.609882,599618635598181238,-102.00
2025-06-26 14:26:41.609882,599618635598181238,-93.00
2025-06-26 14:26:41.609882,599618635598181238,-85.00
2025-06-26 14:26:41.609882,599618635598181238,-90.00
2025-06-26 14:26:41.609882,599618635598181238,-85.00
2025-06-26 14:26:41.609882,599618635598181238,-73.00
2025-06-26 14:26:41.609882,599618635598181238,-73.00
2025-06-26 14:26:41.609882,599618635598181238,-75.00
2025-06-26 14:26:41.609882,599618635598181238,-80.00
2025-06-26 14:26:41.609882,599618635598181238,-80.00
2025-06-26 14:26:41.609882,599618635598181238,-75.00
2025-06-26 14:26:41.609882,599618635598181238,-88.00
2025-06-26 14:26:41.609882,599618635598181238,-95.00
2025-06-26 14:26:41.609882,599618635598181238,-75.00
2025-06-26 14:26:41.609882,599618635598181238,-68.00
2025-06-26 14:26:41.609882,599618635598181238,-75.00
