Timestamp,Device Timestamp (ns),ECG Value (uV)
2025-06-26 18:39:19.702071,599619192277426144,754.00
2025-06-26 18:39:19.702071,599619192277426144,-150.00
2025-06-26 18:39:19.702071,599619192277426144,-265.00
2025-06-26 18:39:19.702071,599619192277426144,-172.00
2025-06-26 18:39:19.702071,599619192277426144,-289.00
2025-06-26 18:39:19.702071,599619192277426144,-345.00
2025-06-26 18:39:19.702071,599619192277426144,-282.00
2025-06-26 18:39:19.702071,599619192277426144,-282.00
2025-06-26 18:39:19.702071,599619192277426144,-291.00
2025-06-26 18:39:19.702071,599619192277426144,-255.00
2025-06-26 18:39:19.702071,599619192277426144,-240.00
2025-06-26 18:39:19.702071,599619192277426144,-238.00
2025-06-26 18:39:19.702071,599619192277426144,-218.00
2025-06-26 18:39:19.702071,599619192277426144,-197.00
2025-06-26 18:39:19.702071,599619192277426144,-184.00
2025-06-26 18:39:19.702071,599619192277426144,-167.00
2025-06-26 18:39:19.702071,599619192277426144,-145.00
2025-06-26 18:39:19.702071,599619192277426144,-124.00
2025-06-26 18:39:19.702071,599619192277426144,-102.00
2025-06-26 18:39:19.702071,599619192277426144,-77.00
2025-06-26 18:39:19.702071,599619192277426144,-53.00
2025-06-26 18:39:19.702071,599619192277426144,-29.00
2025-06-26 18:39:19.702071,599619192277426144,-12.00
2025-06-26 18:39:19.702071,599619192277426144,0.00
2025-06-26 18:39:19.702071,599619192277426144,4.00
2025-06-26 18:39:19.702071,599619192277426144,7.00
2025-06-26 18:39:19.702071,599619192277426144,2.00
2025-06-26 18:39:19.702071,599619192277426144,-9.00
2025-06-26 18:39:19.702071,599619192277426144,-31.00
2025-06-26 18:39:19.702071,599619192277426144,-63.00
2025-06-26 18:39:19.702071,599619192277426144,-90.00
2025-06-26 18:39:19.702071,599619192277426144,-111.00
2025-06-26 18:39:19.702071,599619192277426144,-126.00
2025-06-26 18:39:19.702071,599619192277426144,-138.00
2025-06-26 18:39:19.702071,599619192277426144,-150.00
2025-06-26 18:39:19.702071,599619192277426144,-150.00
2025-06-26 18:39:19.702071,599619192277426144,-148.00
2025-06-26 18:39:19.702071,599619192277426144,-148.00
2025-06-26 18:39:19.702071,599619192277426144,-145.00
2025-06-26 18:39:19.702071,599619192277426144,-141.00
2025-06-26 18:39:19.702071,599619192277426144,-136.00
2025-06-26 18:39:19.702071,599619192277426144,-133.00
2025-06-26 18:39:19.702071,599619192277426144,-128.00
2025-06-26 18:39:19.702071,599619192277426144,-126.00
2025-06-26 18:39:19.702071,599619192277426144,-124.00
2025-06-26 18:39:19.702071,599619192277426144,-121.00
2025-06-26 18:39:19.702071,599619192277426144,-121.00
2025-06-26 18:39:19.702071,599619192277426144,-119.00
2025-06-26 18:39:19.702071,599619192277426144,-114.00
2025-06-26 18:39:19.702071,599619192277426144,-109.00
2025-06-26 18:39:19.702071,599619192277426144,-102.00
2025-06-26 18:39:19.702071,599619192277426144,-94.00
2025-06-26 18:39:19.702071,599619192277426144,-92.00
2025-06-26 18:39:19.702071,599619192277426144,-85.00
2025-06-26 18:39:19.702071,599619192277426144,-80.00
2025-06-26 18:39:19.702071,599619192277426144,-77.00
2025-06-26 18:39:19.702071,599619192277426144,-75.00
2025-06-26 18:39:19.702071,599619192277426144,-72.00
2025-06-26 18:39:19.702071,599619192277426144,-72.00
2025-06-26 18:39:19.702071,599619192277426144,-68.00
2025-06-26 18:39:19.702071,599619192277426144,-68.00
2025-06-26 18:39:19.702071,599619192277426144,-68.00
2025-06-26 18:39:19.702071,599619192277426144,-63.00
2025-06-26 18:39:19.702071,599619192277426144,-60.00
2025-06-26 18:39:19.702071,599619192277426144,-63.00
2025-06-26 18:39:19.702071,599619192277426144,-63.00
2025-06-26 18:39:19.702071,599619192277426144,-58.00
2025-06-26 18:39:19.702071,599619192277426144,-55.00
2025-06-26 18:39:19.702071,599619192277426144,-55.00
2025-06-26 18:39:19.702071,599619192277426144,-53.00
2025-06-26 18:39:19.702071,599619192277426144,-51.00
2025-06-26 18:39:19.702071,599619192277426144,-51.00
2025-06-26 18:39:19.702071,599619192277426144,-51.00
2025-06-26 18:39:20.272497,599619192838158789,-43.00
2025-06-26 18:39:20.272497,599619192838158789,-38.00
2025-06-26 18:39:20.272497,599619192838158789,-41.00
2025-06-26 18:39:20.272497,599619192838158789,-43.00
2025-06-26 18:39:20.272497,599619192838158789,-43.00
2025-06-26 18:39:20.272497,599619192838158789,-46.00
2025-06-26 18:39:20.272497,599619192838158789,-53.00
2025-06-26 18:39:20.272497,599619192838158789,-60.00
2025-06-26 18:39:20.272497,599619192838158789,-65.00
2025-06-26 18:39:20.272497,599619192838158789,-58.00
2025-06-26 18:39:20.272497,599619192838158789,-41.00
2025-06-26 18:39:20.272497,599619192838158789,-29.00
2025-06-26 18:39:20.272497,599619192838158789,-12.00
2025-06-26 18:39:20.272497,599619192838158789,12.00
2025-06-26 18:39:20.272497,599619192838158789,17.00
2025-06-26 18:39:20.272497,599619192838158789,-12.00
2025-06-26 18:39:20.272497,599619192838158789,-31.00
2025-06-26 18:39:20.272497,599619192838158789,-21.00
2025-06-26 18:39:20.272497,599619192838158789,-14.00
2025-06-26 18:39:20.272497,599619192838158789,-19.00
2025-06-26 18:39:20.272497,599619192838158789,-24.00
2025-06-26 18:39:20.272497,599619192838158789,-24.00
2025-06-26 18:39:20.272497,599619192838158789,-31.00
2025-06-26 18:39:20.272497,599619192838158789,-48.00
2025-06-26 18:39:20.272497,599619192838158789,-70.00
2025-06-26 18:39:20.272497,599619192838158789,-58.00
2025-06-26 18:39:20.272497,599619192838158789,201.00
2025-06-26 18:39:20.272497,599619192838158789,963.00
2025-06-26 18:39:20.272497,599619192838158789,1956.00
2025-06-26 18:39:20.272497,599619192838158789,2345.00
2025-06-26 18:39:20.272497,599619192838158789,1683.00
2025-06-26 18:39:20.272497,599619192838158789,501.00
2025-06-26 18:39:20.272497,599619192838158789,-211.00
2025-06-26 18:39:20.272497,599619192838158789,-218.00
2025-06-26 18:39:20.272497,599619192838158789,-172.00
2025-06-26 18:39:20.272497,599619192838158789,-311.00
2025-06-26 18:39:20.272497,599619192838158789,-330.00
2025-06-26 18:39:20.272497,599619192838158789,-270.00
2025-06-26 18:39:20.272497,599619192838158789,-284.00
2025-06-26 18:39:20.272497,599619192838158789,-284.00
2025-06-26 18:39:20.272497,599619192838158789,-250.00
2025-06-26 18:39:20.272497,599619192838158789,-238.00
2025-06-26 18:39:20.272497,599619192838158789,-228.00
2025-06-26 18:39:20.272497,599619192838158789,-204.00
2025-06-26 18:39:20.272497,599619192838158789,-189.00
2025-06-26 18:39:20.272497,599619192838158789,-180.00
2025-06-26 18:39:20.272497,599619192838158789,-160.00
2025-06-26 18:39:20.272497,599619192838158789,-136.00
2025-06-26 18:39:20.272497,599619192838158789,-116.00
2025-06-26 18:39:20.272497,599619192838158789,-99.00
2025-06-26 18:39:20.272497,599619192838158789,-75.00
2025-06-26 18:39:20.272497,599619192838158789,-51.00
2025-06-26 18:39:20.272497,599619192838158789,-31.00
2025-06-26 18:39:20.272497,599619192838158789,-17.00
2025-06-26 18:39:20.272497,599619192838158789,-12.00
2025-06-26 18:39:20.272497,599619192838158789,-14.00
2025-06-26 18:39:20.272497,599619192838158789,-17.00
2025-06-26 18:39:20.272497,599619192838158789,-24.00
2025-06-26 18:39:20.272497,599619192838158789,-41.00
2025-06-26 18:39:20.272497,599619192838158789,-63.00
2025-06-26 18:39:20.272497,599619192838158789,-87.00
2025-06-26 18:39:20.272497,599619192838158789,-109.00
2025-06-26 18:39:20.272497,599619192838158789,-131.00
2025-06-26 18:39:20.272497,599619192838158789,-148.00
2025-06-26 18:39:20.272497,599619192838158789,-158.00
2025-06-26 18:39:20.272497,599619192838158789,-163.00
2025-06-26 18:39:20.272497,599619192838158789,-160.00
2025-06-26 18:39:20.272497,599619192838158789,-158.00
2025-06-26 18:39:20.272497,599619192838158789,-155.00
2025-06-26 18:39:20.272497,599619192838158789,-150.00
2025-06-26 18:39:20.272497,599619192838158789,-150.00
2025-06-26 18:39:20.272497,599619192838158789,-150.00
2025-06-26 18:39:20.272497,599619192838158789,-148.00
2025-06-26 18:39:20.782009,599619193398901608,-141.00
2025-06-26 18:39:20.782009,599619193398901608,-133.00
2025-06-26 18:39:20.782009,599619193398901608,-133.00
2025-06-26 18:39:20.782009,599619193398901608,-126.00
2025-06-26 18:39:20.782009,599619193398901608,-116.00
2025-06-26 18:39:20.782009,599619193398901608,-111.00
2025-06-26 18:39:20.782009,599619193398901608,-107.00
2025-06-26 18:39:20.782009,599619193398901608,-104.00
2025-06-26 18:39:20.782009,599619193398901608,-97.00
2025-06-26 18:39:20.782009,599619193398901608,-92.00
2025-06-26 18:39:20.782009,599619193398901608,-92.00
2025-06-26 18:39:20.782009,599619193398901608,-87.00
2025-06-26 18:39:20.782009,599619193398901608,-82.00
2025-06-26 18:39:20.782009,599619193398901608,-82.00
2025-06-26 18:39:20.782009,599619193398901608,-80.00
2025-06-26 18:39:20.782009,599619193398901608,-80.00
2025-06-26 18:39:20.782009,599619193398901608,-77.00
2025-06-26 18:39:20.782009,599619193398901608,-75.00
2025-06-26 18:39:20.782009,599619193398901608,-75.00
2025-06-26 18:39:20.782009,599619193398901608,-75.00
2025-06-26 18:39:20.782009,599619193398901608,-72.00
2025-06-26 18:39:20.782009,599619193398901608,-70.00
2025-06-26 18:39:20.782009,599619193398901608,-72.00
2025-06-26 18:39:20.782009,599619193398901608,-70.00
2025-06-26 18:39:20.782009,599619193398901608,-65.00
2025-06-26 18:39:20.782009,599619193398901608,-65.00
2025-06-26 18:39:20.782009,599619193398901608,-65.00
2025-06-26 18:39:20.782009,599619193398901608,-65.00
2025-06-26 18:39:20.782009,599619193398901608,-70.00
2025-06-26 18:39:20.782009,599619193398901608,-77.00
2025-06-26 18:39:20.782009,599619193398901608,-87.00
2025-06-26 18:39:20.782009,599619193398901608,-90.00
2025-06-26 18:39:20.782009,599619193398901608,-77.00
2025-06-26 18:39:20.782009,599619193398901608,-63.00
2025-06-26 18:39:20.782009,599619193398901608,-53.00
2025-06-26 18:39:20.782009,599619193398901608,-31.00
2025-06-26 18:39:20.782009,599619193398901608,-2.00
2025-06-26 18:39:20.782009,599619193398901608,-7.00
2025-06-26 18:39:20.782009,599619193398901608,-38.00
2025-06-26 18:39:20.782009,599619193398901608,-53.00
2025-06-26 18:39:20.782009,599619193398901608,-43.00
2025-06-26 18:39:20.782009,599619193398901608,-38.00
2025-06-26 18:39:20.782009,599619193398901608,-43.00
2025-06-26 18:39:20.782009,599619193398901608,-41.00
2025-06-26 18:39:20.782009,599619193398901608,-43.00
2025-06-26 18:39:20.782009,599619193398901608,-48.00
2025-06-26 18:39:20.782009,599619193398901608,-60.00
2025-06-26 18:39:20.782009,599619193398901608,-80.00
2025-06-26 18:39:20.782009,599619193398901608,-55.00
2025-06-26 18:39:20.782009,599619193398901608,216.00
2025-06-26 18:39:20.782009,599619193398901608,963.00
2025-06-26 18:39:20.782009,599619193398901608,1905.00
2025-06-26 18:39:20.782009,599619193398901608,2243.00
2025-06-26 18:39:20.782009,599619193398901608,1564.00
2025-06-26 18:39:20.782009,599619193398901608,420.00
2025-06-26 18:39:20.782009,599619193398901608,-238.00
2025-06-26 18:39:20.782009,599619193398901608,-216.00
2025-06-26 18:39:20.782009,599619193398901608,-172.00
2025-06-26 18:39:20.782009,599619193398901608,-318.00
2025-06-26 18:39:20.782009,599619193398901608,-328.00
2025-06-26 18:39:20.782009,599619193398901608,-265.00
2025-06-26 18:39:20.782009,599619193398901608,-284.00
2025-06-26 18:39:20.782009,599619193398901608,-287.00
2025-06-26 18:39:20.782009,599619193398901608,-248.00
2025-06-26 18:39:20.782009,599619193398901608,-236.00
2025-06-26 18:39:20.782009,599619193398901608,-231.00
2025-06-26 18:39:20.782009,599619193398901608,-209.00
2025-06-26 18:39:20.782009,599619193398901608,-189.00
2025-06-26 18:39:20.782009,599619193398901608,-180.00
2025-06-26 18:39:20.782009,599619193398901608,-165.00
2025-06-26 18:39:20.782009,599619193398901608,-143.00
2025-06-26 18:39:20.782009,599619193398901608,-124.00
2025-06-26 18:39:20.782009,599619193398901608,-107.00
2025-06-26 18:39:21.381943,599619193959629167,-87.00
2025-06-26 18:39:21.381943,599619193959629167,-68.00
2025-06-26 18:39:21.381943,599619193959629167,-51.00
2025-06-26 18:39:21.381943,599619193959629167,-36.00
2025-06-26 18:39:21.381943,599619193959629167,-31.00
2025-06-26 18:39:21.381943,599619193959629167,-34.00
2025-06-26 18:39:21.381943,599619193959629167,-38.00
2025-06-26 18:39:21.381943,599619193959629167,-48.00
2025-06-26 18:39:21.381943,599619193959629167,-65.00
2025-06-26 18:39:21.381943,599619193959629167,-82.00
2025-06-26 18:39:21.381943,599619193959629167,-104.00
2025-06-26 18:39:21.381943,599619193959629167,-121.00
2025-06-26 18:39:21.381943,599619193959629167,-133.00
2025-06-26 18:39:21.381943,599619193959629167,-141.00
2025-06-26 18:39:21.381943,599619193959629167,-150.00
2025-06-26 18:39:21.381943,599619193959629167,-153.00
2025-06-26 18:39:21.381943,599619193959629167,-153.00
2025-06-26 18:39:21.381943,599619193959629167,-153.00
2025-06-26 18:39:21.381943,599619193959629167,-150.00
2025-06-26 18:39:21.381943,599619193959629167,-148.00
2025-06-26 18:39:21.381943,599619193959629167,-148.00
2025-06-26 18:39:21.381943,599619193959629167,-143.00
2025-06-26 18:39:21.381943,599619193959629167,-141.00
2025-06-26 18:39:21.381943,599619193959629167,-136.00
2025-06-26 18:39:21.381943,599619193959629167,-126.00
2025-06-26 18:39:21.381943,599619193959629167,-119.00
2025-06-26 18:39:21.381943,599619193959629167,-111.00
2025-06-26 18:39:21.381943,599619193959629167,-107.00
2025-06-26 18:39:21.381943,599619193959629167,-97.00
2025-06-26 18:39:21.381943,599619193959629167,-90.00
2025-06-26 18:39:21.381943,599619193959629167,-85.00
2025-06-26 18:39:21.381943,599619193959629167,-82.00
2025-06-26 18:39:21.381943,599619193959629167,-77.00
2025-06-26 18:39:21.381943,599619193959629167,-72.00
2025-06-26 18:39:21.381943,599619193959629167,-72.00
2025-06-26 18:39:21.381943,599619193959629167,-72.00
2025-06-26 18:39:21.381943,599619193959629167,-72.00
2025-06-26 18:39:21.381943,599619193959629167,-72.00
2025-06-26 18:39:21.381943,599619193959629167,-72.00
2025-06-26 18:39:21.381943,599619193959629167,-72.00
2025-06-26 18:39:21.381943,599619193959629167,-70.00
2025-06-26 18:39:21.381943,599619193959629167,-68.00
2025-06-26 18:39:21.381943,599619193959629167,-70.00
2025-06-26 18:39:21.381943,599619193959629167,-70.00
2025-06-26 18:39:21.381943,599619193959629167,-65.00
2025-06-26 18:39:21.381943,599619193959629167,-65.00
2025-06-26 18:39:21.381943,599619193959629167,-65.00
2025-06-26 18:39:21.381943,599619193959629167,-63.00
2025-06-26 18:39:21.381943,599619193959629167,-63.00
2025-06-26 18:39:21.381943,599619193959629167,-65.00
2025-06-26 18:39:21.381943,599619193959629167,-72.00
2025-06-26 18:39:21.381943,599619193959629167,-82.00
2025-06-26 18:39:21.381943,599619193959629167,-87.00
2025-06-26 18:39:21.381943,599619193959629167,-82.00
2025-06-26 18:39:21.381943,599619193959629167,-68.00
2025-06-26 18:39:21.381943,599619193959629167,-63.00
2025-06-26 18:39:21.381943,599619193959629167,-48.00
2025-06-26 18:39:21.381943,599619193959629167,-14.00
2025-06-26 18:39:21.381943,599619193959629167,12.00
2025-06-26 18:39:21.381943,599619193959629167,-4.00
2025-06-26 18:39:21.381943,599619193959629167,-34.00
2025-06-26 18:39:21.381943,599619193959629167,-43.00
2025-06-26 18:39:21.381943,599619193959629167,-34.00
2025-06-26 18:39:21.381943,599619193959629167,-29.00
2025-06-26 18:39:21.381943,599619193959629167,-31.00
2025-06-26 18:39:21.381943,599619193959629167,-34.00
2025-06-26 18:39:21.381943,599619193959629167,-34.00
2025-06-26 18:39:21.381943,599619193959629167,-38.00
2025-06-26 18:39:21.381943,599619193959629167,-53.00
2025-06-26 18:39:21.381943,599619193959629167,-72.00
2025-06-26 18:39:21.381943,599619193959629167,-4.00
2025-06-26 18:39:21.381943,599619193959629167,420.00
2025-06-26 18:39:21.381943,599619193959629167,1330.00
2025-06-26 18:39:21.893262,599619194520356726,2199.00
2025-06-26 18:39:21.893262,599619194520356726,2187.00
2025-06-26 18:39:21.893262,599619194520356726,1214.00
2025-06-26 18:39:21.893262,599619194520356726,119.00
2025-06-26 18:39:21.893262,599619194520356726,-284.00
2025-06-26 18:39:21.893262,599619194520356726,-187.00
2025-06-26 18:39:21.893262,599619194520356726,-231.00
2025-06-26 18:39:21.893262,599619194520356726,-343.00
2025-06-26 18:39:21.893262,599619194520356726,-301.00
2025-06-26 18:39:21.893262,599619194520356726,-270.00
2025-06-26 18:39:21.893262,599619194520356726,-291.00
2025-06-26 18:39:21.893262,599619194520356726,-270.00
2025-06-26 18:39:21.893262,599619194520356726,-240.00
2025-06-26 18:39:21.893262,599619194520356726,-236.00
2025-06-26 18:39:21.893262,599619194520356726,-221.00
2025-06-26 18:39:21.893262,599619194520356726,-197.00
2025-06-26 18:39:21.893262,599619194520356726,-184.00
2025-06-26 18:39:21.893262,599619194520356726,-172.00
2025-06-26 18:39:21.893262,599619194520356726,-150.00
2025-06-26 18:39:21.893262,599619194520356726,-133.00
2025-06-26 18:39:21.893262,599619194520356726,-116.00
2025-06-26 18:39:21.893262,599619194520356726,-97.00
2025-06-26 18:39:21.893262,599619194520356726,-72.00
2025-06-26 18:39:21.893262,599619194520356726,-51.00
2025-06-26 18:39:21.893262,599619194520356726,-34.00
2025-06-26 18:39:21.893262,599619194520356726,-24.00
2025-06-26 18:39:21.893262,599619194520356726,-17.00
2025-06-26 18:39:21.893262,599619194520356726,-17.00
2025-06-26 18:39:21.893262,599619194520356726,-21.00
2025-06-26 18:39:21.893262,599619194520356726,-31.00
2025-06-26 18:39:21.893262,599619194520356726,-46.00
2025-06-26 18:39:21.893262,599619194520356726,-68.00
2025-06-26 18:39:21.893262,599619194520356726,-92.00
2025-06-26 18:39:21.893262,599619194520356726,-111.00
2025-06-26 18:39:21.893262,599619194520356726,-124.00
2025-06-26 18:39:21.893262,599619194520356726,-133.00
2025-06-26 18:39:21.893262,599619194520356726,-141.00
2025-06-26 18:39:21.893262,599619194520356726,-143.00
2025-06-26 18:39:21.893262,599619194520356726,-143.00
2025-06-26 18:39:21.893262,599619194520356726,-141.00
2025-06-26 18:39:21.893262,599619194520356726,-138.00
2025-06-26 18:39:21.893262,599619194520356726,-133.00
2025-06-26 18:39:21.893262,599619194520356726,-128.00
2025-06-26 18:39:21.893262,599619194520356726,-126.00
2025-06-26 18:39:21.893262,599619194520356726,-121.00
2025-06-26 18:39:21.893262,599619194520356726,-114.00
2025-06-26 18:39:21.893262,599619194520356726,-109.00
2025-06-26 18:39:21.893262,599619194520356726,-109.00
2025-06-26 18:39:21.893262,599619194520356726,-104.00
2025-06-26 18:39:21.893262,599619194520356726,-97.00
2025-06-26 18:39:21.893262,599619194520356726,-94.00
2025-06-26 18:39:21.893262,599619194520356726,-90.00
2025-06-26 18:39:21.893262,599619194520356726,-85.00
2025-06-26 18:39:21.893262,599619194520356726,-82.00
2025-06-26 18:39:21.893262,599619194520356726,-80.00
2025-06-26 18:39:21.893262,599619194520356726,-75.00
2025-06-26 18:39:21.893262,599619194520356726,-72.00
2025-06-26 18:39:21.893262,599619194520356726,-72.00
2025-06-26 18:39:21.893262,599619194520356726,-70.00
2025-06-26 18:39:21.893262,599619194520356726,-65.00
2025-06-26 18:39:21.893262,599619194520356726,-65.00
2025-06-26 18:39:21.893262,599619194520356726,-65.00
2025-06-26 18:39:21.893262,599619194520356726,-60.00
2025-06-26 18:39:21.893262,599619194520356726,-58.00
2025-06-26 18:39:21.893262,599619194520356726,-58.00
2025-06-26 18:39:21.893262,599619194520356726,-58.00
2025-06-26 18:39:21.893262,599619194520356726,-55.00
2025-06-26 18:39:21.893262,599619194520356726,-55.00
2025-06-26 18:39:21.893262,599619194520356726,-55.00
2025-06-26 18:39:21.893262,599619194520356726,-60.00
2025-06-26 18:39:21.893262,599619194520356726,-70.00
2025-06-26 18:39:21.893262,599619194520356726,-80.00
2025-06-26 18:39:21.893262,599619194520356726,-82.00
2025-06-26 18:39:22.521982,599619195081089373,-70.00
2025-06-26 18:39:22.521982,599619195081089373,-58.00
2025-06-26 18:39:22.521982,599619195081089373,-51.00
2025-06-26 18:39:22.521982,599619195081089373,-31.00
2025-06-26 18:39:22.521982,599619195081089373,2.00
2025-06-26 18:39:22.521982,599619195081089373,12.00
2025-06-26 18:39:22.521982,599619195081089373,-17.00
2025-06-26 18:39:22.521982,599619195081089373,-38.00
2025-06-26 18:39:22.521982,599619195081089373,-29.00
2025-06-26 18:39:22.521982,599619195081089373,-17.00
2025-06-26 18:39:22.521982,599619195081089373,-21.00
2025-06-26 18:39:22.521982,599619195081089373,-24.00
2025-06-26 18:39:22.521982,599619195081089373,-24.00
2025-06-26 18:39:22.521982,599619195081089373,-26.00
2025-06-26 18:39:22.521982,599619195081089373,-34.00
2025-06-26 18:39:22.521982,599619195081089373,-46.00
2025-06-26 18:39:22.521982,599619195081089373,-51.00
2025-06-26 18:39:22.521982,599619195081089373,104.00
2025-06-26 18:39:22.521982,599619195081089373,732.00
2025-06-26 18:39:22.521982,599619195081089373,1737.00
2025-06-26 18:39:22.521982,599619195081089373,2352.00
2025-06-26 18:39:22.521982,599619195081089373,1907.00
2025-06-26 18:39:22.521982,599619195081089373,717.00
2025-06-26 18:39:22.521982,599619195081089373,-155.00
2025-06-26 18:39:22.521982,599619195081089373,-250.00
2025-06-26 18:39:22.521982,599619195081089373,-165.00
2025-06-26 18:39:22.521982,599619195081089373,-289.00
2025-06-26 18:39:22.521982,599619195081089373,-340.00
2025-06-26 18:39:22.521982,599619195081089373,-274.00
2025-06-26 18:39:22.521982,599619195081089373,-274.00
2025-06-26 18:39:22.521982,599619195081089373,-289.00
2025-06-26 18:39:22.521982,599619195081089373,-255.00
2025-06-26 18:39:22.521982,599619195081089373,-236.00
2025-06-26 18:39:22.521982,599619195081089373,-236.00
2025-06-26 18:39:22.521982,599619195081089373,-218.00
2025-06-26 18:39:22.521982,599619195081089373,-197.00
2025-06-26 18:39:22.521982,599619195081089373,-182.00
2025-06-26 18:39:22.521982,599619195081089373,-165.00
2025-06-26 18:39:22.521982,599619195081089373,-143.00
2025-06-26 18:39:22.521982,599619195081089373,-128.00
2025-06-26 18:39:22.521982,599619195081089373,-109.00
2025-06-26 18:39:22.521982,599619195081089373,-87.00
2025-06-26 18:39:22.521982,599619195081089373,-65.00
2025-06-26 18:39:22.521982,599619195081089373,-46.00
2025-06-26 18:39:22.521982,599619195081089373,-34.00
2025-06-26 18:39:22.521982,599619195081089373,-31.00
2025-06-26 18:39:22.521982,599619195081089373,-29.00
2025-06-26 18:39:22.521982,599619195081089373,-29.00
2025-06-26 18:39:22.521982,599619195081089373,-38.00
2025-06-26 18:39:22.521982,599619195081089373,-53.00
2025-06-26 18:39:22.521982,599619195081089373,-68.00
2025-06-26 18:39:22.521982,599619195081089373,-85.00
2025-06-26 18:39:22.521982,599619195081089373,-104.00
2025-06-26 18:39:22.521982,599619195081089373,-121.00
2025-06-26 18:39:22.521982,599619195081089373,-133.00
2025-06-26 18:39:22.521982,599619195081089373,-141.00
2025-06-26 18:39:22.521982,599619195081089373,-141.00
2025-06-26 18:39:22.521982,599619195081089373,-143.00
2025-06-26 18:39:22.521982,599619195081089373,-143.00
2025-06-26 18:39:22.521982,599619195081089373,-141.00
2025-06-26 18:39:22.521982,599619195081089373,-136.00
2025-06-26 18:39:22.521982,599619195081089373,-133.00
2025-06-26 18:39:22.521982,599619195081089373,-126.00
2025-06-26 18:39:22.521982,599619195081089373,-124.00
2025-06-26 18:39:22.521982,599619195081089373,-124.00
2025-06-26 18:39:22.521982,599619195081089373,-116.00
2025-06-26 18:39:22.521982,599619195081089373,-109.00
2025-06-26 18:39:22.521982,599619195081089373,-109.00
2025-06-26 18:39:22.521982,599619195081089373,-109.00
2025-06-26 18:39:22.521982,599619195081089373,-102.00
2025-06-26 18:39:22.521982,599619195081089373,-94.00
2025-06-26 18:39:22.521982,599619195081089373,-87.00
2025-06-26 18:39:22.521982,599619195081089373,-85.00
2025-06-26 18:39:23.062373,599619195641842364,-85.00
2025-06-26 18:39:23.062373,599619195641842364,-80.00
2025-06-26 18:39:23.062373,599619195641842364,-72.00
2025-06-26 18:39:23.062373,599619195641842364,-72.00
2025-06-26 18:39:23.062373,599619195641842364,-72.00
2025-06-26 18:39:23.062373,599619195641842364,-72.00
2025-06-26 18:39:23.062373,599619195641842364,-72.00
2025-06-26 18:39:23.062373,599619195641842364,-70.00
2025-06-26 18:39:23.062373,599619195641842364,-68.00
2025-06-26 18:39:23.062373,599619195641842364,-65.00
2025-06-26 18:39:23.062373,599619195641842364,-65.00
2025-06-26 18:39:23.062373,599619195641842364,-65.00
2025-06-26 18:39:23.062373,599619195641842364,-65.00
2025-06-26 18:39:23.062373,599619195641842364,-68.00
2025-06-26 18:39:23.062373,599619195641842364,-72.00
2025-06-26 18:39:23.062373,599619195641842364,-80.00
2025-06-26 18:39:23.062373,599619195641842364,-94.00
2025-06-26 18:39:23.062373,599619195641842364,-87.00
2025-06-26 18:39:23.062373,599619195641842364,-70.00
2025-06-26 18:39:23.062373,599619195641842364,-65.00
2025-06-26 18:39:23.062373,599619195641842364,-53.00
2025-06-26 18:39:23.062373,599619195641842364,-14.00
2025-06-26 18:39:23.062373,599619195641842364,7.00
2025-06-26 18:39:23.062373,599619195641842364,-21.00
2025-06-26 18:39:23.062373,599619195641842364,-55.00
2025-06-26 18:39:23.062373,599619195641842364,-51.00
2025-06-26 18:39:23.062373,599619195641842364,-38.00
2025-06-26 18:39:23.062373,599619195641842364,-38.00
2025-06-26 18:39:23.062373,599619195641842364,-41.00
2025-06-26 18:39:23.062373,599619195641842364,-41.00
2025-06-26 18:39:23.062373,599619195641842364,-38.00
2025-06-26 18:39:23.062373,599619195641842364,-41.00
2025-06-26 18:39:23.062373,599619195641842364,-53.00
2025-06-26 18:39:23.062373,599619195641842364,-68.00
2025-06-26 18:39:23.062373,599619195641842364,31.00
2025-06-26 18:39:23.062373,599619195641842364,518.00
2025-06-26 18:39:23.062373,599619195641842364,1440.00
2025-06-26 18:39:23.062373,599619195641842364,2202.00
2025-06-26 18:39:23.062373,599619195641842364,2019.00
2025-06-26 18:39:23.062373,599619195641842364,958.00
2025-06-26 18:39:23.062373,599619195641842364,-24.00
2025-06-26 18:39:23.062373,599619195641842364,-257.00
2025-06-26 18:39:23.062373,599619195641842364,-141.00
2025-06-26 18:39:23.062373,599619195641842364,-236.00
2025-06-26 18:39:23.062373,599619195641842364,-335.00
2025-06-26 18:39:23.062373,599619195641842364,-272.00
2025-06-26 18:39:23.062373,599619195641842364,-255.00
2025-06-26 18:39:23.062373,599619195641842364,-277.00
2025-06-26 18:39:23.062373,599619195641842364,-250.00
2025-06-26 18:39:23.062373,599619195641842364,-226.00
2025-06-26 18:39:23.062373,599619195641842364,-226.00
2025-06-26 18:39:23.062373,599619195641842364,-209.00
2025-06-26 18:39:23.062373,599619195641842364,-184.00
2025-06-26 18:39:23.062373,599619195641842364,-177.00
2025-06-26 18:39:23.062373,599619195641842364,-165.00
2025-06-26 18:39:23.062373,599619195641842364,-141.00
2025-06-26 18:39:23.062373,599619195641842364,-119.00
2025-06-26 18:39:23.062373,599619195641842364,-102.00
2025-06-26 18:39:23.062373,599619195641842364,-87.00
2025-06-26 18:39:23.062373,599619195641842364,-65.00
2025-06-26 18:39:23.062373,599619195641842364,-48.00
2025-06-26 18:39:23.062373,599619195641842364,-41.00
2025-06-26 18:39:23.062373,599619195641842364,-31.00
2025-06-26 18:39:23.062373,599619195641842364,-29.00
2025-06-26 18:39:23.062373,599619195641842364,-43.00
2025-06-26 18:39:23.062373,599619195641842364,-55.00
2025-06-26 18:39:23.062373,599619195641842364,-63.00
2025-06-26 18:39:23.062373,599619195641842364,-80.00
2025-06-26 18:39:23.062373,599619195641842364,-99.00
2025-06-26 18:39:23.062373,599619195641842364,-111.00
2025-06-26 18:39:23.062373,599619195641842364,-128.00
2025-06-26 18:39:23.062373,599619195641842364,-143.00
2025-06-26 18:39:23.062373,599619195641842364,-148.00
2025-06-26 18:39:23.602724,599619196202569923,-153.00
2025-06-26 18:39:23.602724,599619196202569923,-150.00
2025-06-26 18:39:23.602724,599619196202569923,-150.00
2025-06-26 18:39:23.602724,599619196202569923,-150.00
2025-06-26 18:39:23.602724,599619196202569923,-153.00
2025-06-26 18:39:23.602724,599619196202569923,-145.00
2025-06-26 18:39:23.602724,599619196202569923,-141.00
2025-06-26 18:39:23.602724,599619196202569923,-136.00
2025-06-26 18:39:23.602724,599619196202569923,-128.00
2025-06-26 18:39:23.602724,599619196202569923,-119.00
2025-06-26 18:39:23.602724,599619196202569923,-114.00
2025-06-26 18:39:23.602724,599619196202569923,-109.00
2025-06-26 18:39:23.602724,599619196202569923,-99.00
2025-06-26 18:39:23.602724,599619196202569923,-90.00
2025-06-26 18:39:23.602724,599619196202569923,-82.00
2025-06-26 18:39:23.602724,599619196202569923,-77.00
2025-06-26 18:39:23.602724,599619196202569923,-77.00
2025-06-26 18:39:23.602724,599619196202569923,-77.00
2025-06-26 18:39:23.602724,599619196202569923,-72.00
2025-06-26 18:39:23.602724,599619196202569923,-72.00
2025-06-26 18:39:23.602724,599619196202569923,-75.00
2025-06-26 18:39:23.602724,599619196202569923,-70.00
2025-06-26 18:39:23.602724,599619196202569923,-70.00
2025-06-26 18:39:23.602724,599619196202569923,-72.00
2025-06-26 18:39:23.602724,599619196202569923,-70.00
2025-06-26 18:39:23.602724,599619196202569923,-72.00
2025-06-26 18:39:23.602724,599619196202569923,-77.00
2025-06-26 18:39:23.602724,599619196202569923,-85.00
2025-06-26 18:39:23.602724,599619196202569923,-97.00
2025-06-26 18:39:23.602724,599619196202569923,-99.00
2025-06-26 18:39:23.602724,599619196202569923,-85.00
2025-06-26 18:39:23.602724,599619196202569923,-72.00
2025-06-26 18:39:23.602724,599619196202569923,-60.00
2025-06-26 18:39:23.602724,599619196202569923,-34.00
2025-06-26 18:39:23.602724,599619196202569923,-9.00
2025-06-26 18:39:23.602724,599619196202569923,-26.00
2025-06-26 18:39:23.602724,599619196202569923,-60.00
2025-06-26 18:39:23.602724,599619196202569923,-63.00
2025-06-26 18:39:23.602724,599619196202569923,-48.00
2025-06-26 18:39:23.602724,599619196202569923,-51.00
2025-06-26 18:39:23.602724,599619196202569923,-58.00
2025-06-26 18:39:23.602724,599619196202569923,-51.00
2025-06-26 18:39:23.602724,599619196202569923,-51.00
2025-06-26 18:39:23.602724,599619196202569923,-60.00
2025-06-26 18:39:23.602724,599619196202569923,-72.00
2025-06-26 18:39:23.602724,599619196202569923,-82.00
2025-06-26 18:39:23.602724,599619196202569923,-38.00
2025-06-26 18:39:23.602724,599619196202569923,284.00
2025-06-26 18:39:23.602724,599619196202569923,1077.00
2025-06-26 18:39:23.602724,599619196202569923,1963.00
2025-06-26 18:39:23.602724,599619196202569923,2126.00
2025-06-26 18:39:23.602724,599619196202569923,1294.00
2025-06-26 18:39:23.602724,599619196202569923,187.00
2025-06-26 18:39:23.602724,599619196202569923,-284.00
2025-06-26 18:39:23.602724,599619196202569923,-170.00
2025-06-26 18:39:23.602724,599619196202569923,-182.00
2025-06-26 18:39:23.602724,599619196202569923,-333.00
2025-06-26 18:39:23.602724,599619196202569923,-304.00
2025-06-26 18:39:23.602724,599619196202569923,-257.00
2025-06-26 18:39:23.602724,599619196202569923,-289.00
2025-06-26 18:39:23.602724,599619196202569923,-277.00
2025-06-26 18:39:23.602724,599619196202569923,-233.00
2025-06-26 18:39:23.602724,599619196202569923,-228.00
2025-06-26 18:39:23.602724,599619196202569923,-223.00
2025-06-26 18:39:23.602724,599619196202569923,-201.00
2025-06-26 18:39:23.602724,599619196202569923,-182.00
2025-06-26 18:39:23.602724,599619196202569923,-167.00
2025-06-26 18:39:23.602724,599619196202569923,-150.00
2025-06-26 18:39:23.602724,599619196202569923,-133.00
2025-06-26 18:39:23.602724,599619196202569923,-119.00
2025-06-26 18:39:23.602724,599619196202569923,-99.00
2025-06-26 18:39:23.602724,599619196202569923,-82.00
2025-06-26 18:39:23.602724,599619196202569923,-65.00
2025-06-26 18:39:24.202884,599619196763297482,-55.00
2025-06-26 18:39:24.202884,599619196763297482,-55.00
2025-06-26 18:39:24.202884,599619196763297482,-58.00
2025-06-26 18:39:24.202884,599619196763297482,-63.00
2025-06-26 18:39:24.202884,599619196763297482,-75.00
2025-06-26 18:39:24.202884,599619196763297482,-87.00
2025-06-26 18:39:24.202884,599619196763297482,-97.00
2025-06-26 18:39:24.202884,599619196763297482,-107.00
2025-06-26 18:39:24.202884,599619196763297482,-124.00
2025-06-26 18:39:24.202884,599619196763297482,-133.00
2025-06-26 18:39:24.202884,599619196763297482,-136.00
2025-06-26 18:39:24.202884,599619196763297482,-141.00
2025-06-26 18:39:24.202884,599619196763297482,-143.00
2025-06-26 18:39:24.202884,599619196763297482,-143.00
2025-06-26 18:39:24.202884,599619196763297482,-145.00
2025-06-26 18:39:24.202884,599619196763297482,-143.00
2025-06-26 18:39:24.202884,599619196763297482,-136.00
2025-06-26 18:39:24.202884,599619196763297482,-136.00
2025-06-26 18:39:24.202884,599619196763297482,-136.00
2025-06-26 18:39:24.202884,599619196763297482,-128.00
2025-06-26 18:39:24.202884,599619196763297482,-116.00
2025-06-26 18:39:24.202884,599619196763297482,-107.00
2025-06-26 18:39:24.202884,599619196763297482,-104.00
2025-06-26 18:39:24.202884,599619196763297482,-99.00
2025-06-26 18:39:24.202884,599619196763297482,-90.00
2025-06-26 18:39:24.202884,599619196763297482,-82.00
2025-06-26 18:39:24.202884,599619196763297482,-77.00
2025-06-26 18:39:24.202884,599619196763297482,-68.00
2025-06-26 18:39:24.202884,599619196763297482,-65.00
2025-06-26 18:39:24.202884,599619196763297482,-68.00
2025-06-26 18:39:24.202884,599619196763297482,-68.00
2025-06-26 18:39:24.202884,599619196763297482,-65.00
2025-06-26 18:39:24.202884,599619196763297482,-65.00
2025-06-26 18:39:24.202884,599619196763297482,-70.00
2025-06-26 18:39:24.202884,599619196763297482,-75.00
2025-06-26 18:39:24.202884,599619196763297482,-72.00
2025-06-26 18:39:24.202884,599619196763297482,-70.00
2025-06-26 18:39:24.202884,599619196763297482,-70.00
2025-06-26 18:39:24.202884,599619196763297482,-72.00
2025-06-26 18:39:24.202884,599619196763297482,-75.00
2025-06-26 18:39:24.202884,599619196763297482,-80.00
2025-06-26 18:39:24.202884,599619196763297482,-90.00
2025-06-26 18:39:24.202884,599619196763297482,-99.00
2025-06-26 18:39:24.202884,599619196763297482,-104.00
2025-06-26 18:39:24.202884,599619196763297482,-92.00
2025-06-26 18:39:24.202884,599619196763297482,-80.00
2025-06-26 18:39:24.202884,599619196763297482,-70.00
2025-06-26 18:39:24.202884,599619196763297482,-48.00
2025-06-26 18:39:24.202884,599619196763297482,-21.00
2025-06-26 18:39:24.202884,599619196763297482,-17.00
2025-06-26 18:39:24.202884,599619196763297482,-38.00
2025-06-26 18:39:24.202884,599619196763297482,-63.00
2025-06-26 18:39:24.202884,599619196763297482,-60.00
2025-06-26 18:39:24.202884,599619196763297482,-48.00
2025-06-26 18:39:24.202884,599619196763297482,-51.00
2025-06-26 18:39:24.202884,599619196763297482,-58.00
2025-06-26 18:39:24.202884,599619196763297482,-53.00
2025-06-26 18:39:24.202884,599619196763297482,-55.00
2025-06-26 18:39:24.202884,599619196763297482,-68.00
2025-06-26 18:39:24.202884,599619196763297482,-80.00
2025-06-26 18:39:24.202884,599619196763297482,-72.00
2025-06-26 18:39:24.202884,599619196763297482,111.00
2025-06-26 18:39:24.202884,599619196763297482,742.00
2025-06-26 18:39:24.202884,599619196763297482,1700.00
2025-06-26 18:39:24.202884,599619196763297482,2245.00
2025-06-26 18:39:24.202884,599619196763297482,1773.00
2025-06-26 18:39:24.202884,599619196763297482,630.00
2025-06-26 18:39:24.202884,599619196763297482,-187.00
2025-06-26 18:39:24.202884,599619196763297482,-257.00
2025-06-26 18:39:24.202884,599619196763297482,-177.00
2025-06-26 18:39:24.202884,599619196763297482,-304.00
2025-06-26 18:39:24.202884,599619196763297482,-345.00
2025-06-26 18:39:24.202884,599619196763297482,-282.00
2025-06-26 18:39:24.713473,599619197324025041,-287.00
2025-06-26 18:39:24.713473,599619197324025041,-296.00
2025-06-26 18:39:24.713473,599619197324025041,-260.00
2025-06-26 18:39:24.713473,599619197324025041,-243.00
2025-06-26 18:39:24.713473,599619197324025041,-240.00
2025-06-26 18:39:24.713473,599619197324025041,-216.00
2025-06-26 18:39:24.713473,599619197324025041,-192.00
2025-06-26 18:39:24.713473,599619197324025041,-180.00
2025-06-26 18:39:24.713473,599619197324025041,-165.00
2025-06-26 18:39:24.713473,599619197324025041,-145.00
2025-06-26 18:39:24.713473,599619197324025041,-126.00
2025-06-26 18:39:24.713473,599619197324025041,-109.00
2025-06-26 18:39:24.713473,599619197324025041,-90.00
2025-06-26 18:39:24.713473,599619197324025041,-70.00
2025-06-26 18:39:24.713473,599619197324025041,-58.00
2025-06-26 18:39:24.713473,599619197324025041,-48.00
2025-06-26 18:39:24.713473,599619197324025041,-43.00
2025-06-26 18:39:24.713473,599619197324025041,-46.00
2025-06-26 18:39:24.713473,599619197324025041,-46.00
2025-06-26 18:39:24.713473,599619197324025041,-53.00
2025-06-26 18:39:24.713473,599619197324025041,-68.00
2025-06-26 18:39:24.713473,599619197324025041,-85.00
2025-06-26 18:39:24.713473,599619197324025041,-99.00
2025-06-26 18:39:24.713473,599619197324025041,-109.00
2025-06-26 18:39:24.713473,599619197324025041,-119.00
2025-06-26 18:39:24.713473,599619197324025041,-131.00
2025-06-26 18:39:24.713473,599619197324025041,-143.00
2025-06-26 18:39:24.713473,599619197324025041,-148.00
2025-06-26 18:39:24.713473,599619197324025041,-141.00
2025-06-26 18:39:24.713473,599619197324025041,-131.00
2025-06-26 18:39:24.713473,599619197324025041,-131.00
2025-06-26 18:39:24.713473,599619197324025041,-128.00
2025-06-26 18:39:24.713473,599619197324025041,-124.00
2025-06-26 18:39:24.713473,599619197324025041,-121.00
2025-06-26 18:39:24.713473,599619197324025041,-111.00
2025-06-26 18:39:24.713473,599619197324025041,-102.00
2025-06-26 18:39:24.713473,599619197324025041,-94.00
2025-06-26 18:39:24.713473,599619197324025041,-94.00
2025-06-26 18:39:24.713473,599619197324025041,-90.00
2025-06-26 18:39:24.713473,599619197324025041,-80.00
2025-06-26 18:39:24.713473,599619197324025041,-75.00
2025-06-26 18:39:24.713473,599619197324025041,-72.00
2025-06-26 18:39:24.713473,599619197324025041,-72.00
2025-06-26 18:39:24.713473,599619197324025041,-70.00
2025-06-26 18:39:24.713473,599619197324025041,-65.00
2025-06-26 18:39:24.713473,599619197324025041,-63.00
2025-06-26 18:39:24.713473,599619197324025041,-65.00
2025-06-26 18:39:24.713473,599619197324025041,-65.00
2025-06-26 18:39:24.713473,599619197324025041,-63.00
2025-06-26 18:39:24.713473,599619197324025041,-60.00
2025-06-26 18:39:24.713473,599619197324025041,-60.00
2025-06-26 18:39:24.713473,599619197324025041,-60.00
2025-06-26 18:39:24.713473,599619197324025041,-60.00
2025-06-26 18:39:24.713473,599619197324025041,-65.00
2025-06-26 18:39:24.713473,599619197324025041,-75.00
2025-06-26 18:39:24.713473,599619197324025041,-85.00
2025-06-26 18:39:24.713473,599619197324025041,-85.00
2025-06-26 18:39:24.713473,599619197324025041,-72.00
2025-06-26 18:39:24.713473,599619197324025041,-58.00
2025-06-26 18:39:24.713473,599619197324025041,-46.00
2025-06-26 18:39:24.713473,599619197324025041,-21.00
2025-06-26 18:39:24.713473,599619197324025041,0.00
2025-06-26 18:39:24.713473,599619197324025041,-7.00
2025-06-26 18:39:24.713473,599619197324025041,-41.00
2025-06-26 18:39:24.713473,599619197324025041,-55.00
2025-06-26 18:39:24.713473,599619197324025041,-38.00
2025-06-26 18:39:24.713473,599619197324025041,-31.00
2025-06-26 18:39:24.713473,599619197324025041,-38.00
2025-06-26 18:39:24.713473,599619197324025041,-43.00
2025-06-26 18:39:24.713473,599619197324025041,-38.00
2025-06-26 18:39:24.713473,599619197324025041,-43.00
2025-06-26 18:39:24.713473,599619197324025041,-58.00
2025-06-26 18:39:24.713473,599619197324025041,-72.00
2025-06-26 18:39:25.255893,599619197884752600,-60.00
2025-06-26 18:39:25.255893,599619197884752600,163.00
2025-06-26 18:39:25.255893,599619197884752600,829.00
2025-06-26 18:39:25.255893,599619197884752600,1747.00
2025-06-26 18:39:25.255893,599619197884752600,2180.00
2025-06-26 18:39:25.255893,599619197884752600,1622.00
2025-06-26 18:39:25.255893,599619197884752600,501.00
2025-06-26 18:39:25.255893,599619197884752600,-206.00
2025-06-26 18:39:25.255893,599619197884752600,-199.00
2025-06-26 18:39:25.255893,599619197884752600,-141.00
2025-06-26 18:39:25.255893,599619197884752600,-294.00
2025-06-26 18:39:25.255893,599619197884752600,-318.00
2025-06-26 18:39:25.255893,599619197884752600,-250.00
2025-06-26 18:39:25.255893,599619197884752600,-260.00
2025-06-26 18:39:25.255893,599619197884752600,-262.00
2025-06-26 18:39:25.255893,599619197884752600,-231.00
2025-06-26 18:39:25.255893,599619197884752600,-221.00
2025-06-26 18:39:25.255893,599619197884752600,-216.00
2025-06-26 18:39:25.255893,599619197884752600,-197.00
2025-06-26 18:39:25.255893,599619197884752600,-170.00
2025-06-26 18:39:25.255893,599619197884752600,-158.00
2025-06-26 18:39:25.255893,599619197884752600,-148.00
2025-06-26 18:39:25.255893,599619197884752600,-126.00
2025-06-26 18:39:25.255893,599619197884752600,-99.00
2025-06-26 18:39:25.255893,599619197884752600,-92.00
2025-06-26 18:39:25.255893,599619197884752600,-77.00
2025-06-26 18:39:25.255893,599619197884752600,-41.00
2025-06-26 18:39:25.255893,599619197884752600,-34.00
2025-06-26 18:39:25.255893,599619197884752600,-55.00
2025-06-26 18:39:25.255893,599619197884752600,-72.00
2025-06-26 18:39:25.255893,599619197884752600,-82.00
2025-06-26 18:39:25.255893,599619197884752600,-97.00
2025-06-26 18:39:25.255893,599619197884752600,-116.00
2025-06-26 18:39:25.255893,599619197884752600,-99.00
2025-06-26 18:39:25.255893,599619197884752600,-55.00
2025-06-26 18:39:25.255893,599619197884752600,-128.00
2025-06-26 18:39:25.255893,599619197884752600,-184.00
2025-06-26 18:39:25.255893,599619197884752600,-68.00
2025-06-26 18:39:25.255893,599619197884752600,-26.00
2025-06-26 18:39:25.255893,599619197884752600,-116.00
2025-06-26 18:39:25.255893,599619197884752600,-150.00
2025-06-26 18:39:25.255893,599619197884752600,-136.00
2025-06-26 18:39:25.255893,599619197884752600,-148.00
2025-06-26 18:39:25.255893,599619197884752600,-189.00
2025-06-26 18:39:25.255893,599619197884752600,-177.00
2025-06-26 18:39:25.255893,599619197884752600,-126.00
2025-06-26 18:39:25.255893,599619197884752600,-126.00
2025-06-26 18:39:25.255893,599619197884752600,-136.00
2025-06-26 18:39:25.255893,599619197884752600,-126.00
2025-06-26 18:39:25.255893,599619197884752600,-143.00
2025-06-26 18:39:25.255893,599619197884752600,-148.00
2025-06-26 18:39:25.255893,599619197884752600,-124.00
2025-06-26 18:39:25.255893,599619197884752600,-121.00
2025-06-26 18:39:25.255893,599619197884752600,-116.00
2025-06-26 18:39:25.255893,599619197884752600,-90.00
2025-06-26 18:39:25.255893,599619197884752600,-85.00
2025-06-26 18:39:25.255893,599619197884752600,-90.00
2025-06-26 18:39:25.255893,599619197884752600,-80.00
2025-06-26 18:39:25.255893,599619197884752600,-70.00
2025-06-26 18:39:25.255893,599619197884752600,-63.00
2025-06-26 18:39:25.255893,599619197884752600,-55.00
2025-06-26 18:39:25.255893,599619197884752600,-63.00
2025-06-26 18:39:25.255893,599619197884752600,-63.00
2025-06-26 18:39:25.255893,599619197884752600,-53.00
2025-06-26 18:39:25.255893,599619197884752600,-51.00
2025-06-26 18:39:25.255893,599619197884752600,-58.00
2025-06-26 18:39:25.255893,599619197884752600,-68.00
2025-06-26 18:39:25.255893,599619197884752600,-63.00
2025-06-26 18:39:25.255893,599619197884752600,-43.00
2025-06-26 18:39:25.255893,599619197884752600,-38.00
2025-06-26 18:39:25.255893,599619197884752600,-17.00
2025-06-26 18:39:25.255893,599619197884752600,24.00
2025-06-26 18:39:25.255893,599619197884752600,36.00
2025-06-26 18:39:25.882909,599619198445485247,4.00
2025-06-26 18:39:25.882909,599619198445485247,-21.00
2025-06-26 18:39:25.882909,599619198445485247,-19.00
2025-06-26 18:39:25.882909,599619198445485247,-4.00
2025-06-26 18:39:25.882909,599619198445485247,-4.00
2025-06-26 18:39:25.882909,599619198445485247,-12.00
2025-06-26 18:39:25.882909,599619198445485247,-9.00
2025-06-26 18:39:25.882909,599619198445485247,-4.00
2025-06-26 18:39:25.882909,599619198445485247,-9.00
2025-06-26 18:39:25.882909,599619198445485247,-21.00
2025-06-26 18:39:25.882909,599619198445485247,-38.00
2025-06-26 18:39:25.882909,599619198445485247,-7.00
2025-06-26 18:39:25.882909,599619198445485247,272.00
2025-06-26 18:39:25.882909,599619198445485247,1004.00
2025-06-26 18:39:25.882909,599619198445485247,1902.00
2025-06-26 18:39:25.882909,599619198445485247,2185.00
2025-06-26 18:39:25.882909,599619198445485247,1467.00
2025-06-26 18:39:25.882909,599619198445485247,345.00
2025-06-26 18:39:25.882909,599619198445485247,-231.00
2025-06-26 18:39:25.882909,599619198445485247,-155.00
2025-06-26 18:39:25.882909,599619198445485247,-107.00
2025-06-26 18:39:25.882909,599619198445485247,-243.00
2025-06-26 18:39:25.882909,599619198445485247,-253.00
2025-06-26 18:39:25.882909,599619198445485247,-209.00
2025-06-26 18:39:25.882909,599619198445485247,-236.00
2025-06-26 18:39:25.882909,599619198445485247,-221.00
2025-06-26 18:39:25.882909,599619198445485247,-175.00
2025-06-26 18:39:25.882909,599619198445485247,-182.00
2025-06-26 18:39:25.882909,599619198445485247,-192.00
2025-06-26 18:39:25.882909,599619198445485247,-141.00
2025-06-26 18:39:25.882909,599619198445485247,-92.00
2025-06-26 18:39:25.882909,599619198445485247,-102.00
2025-06-26 18:39:25.882909,599619198445485247,-114.00
2025-06-26 18:39:25.882909,599619198445485247,-94.00
2025-06-26 18:39:25.882909,599619198445485247,-75.00
2025-06-26 18:39:25.882909,599619198445485247,-70.00
2025-06-26 18:39:25.882909,599619198445485247,-60.00
2025-06-26 18:39:25.882909,599619198445485247,-38.00
2025-06-26 18:39:25.882909,599619198445485247,-31.00
2025-06-26 18:39:25.882909,599619198445485247,-46.00
2025-06-26 18:39:25.882909,599619198445485247,-41.00
2025-06-26 18:39:25.882909,599619198445485247,-9.00
2025-06-26 18:39:25.882909,599619198445485247,-41.00
2025-06-26 18:39:25.882909,599619198445485247,-111.00
2025-06-26 18:39:25.882909,599619198445485247,-72.00
2025-06-26 18:39:25.882909,599619198445485247,-38.00
2025-06-26 18:39:25.882909,599619198445485247,-116.00
2025-06-26 18:39:25.882909,599619198445485247,-158.00
2025-06-26 18:39:25.882909,599619198445485247,-138.00
2025-06-26 18:39:25.882909,599619198445485247,-145.00
2025-06-26 18:39:25.882909,599619198445485247,-158.00
2025-06-26 18:39:25.882909,599619198445485247,-160.00
2025-06-26 18:39:25.882909,599619198445485247,-163.00
2025-06-26 18:39:25.882909,599619198445485247,-155.00
2025-06-26 18:39:25.882909,599619198445485247,-150.00
2025-06-26 18:39:25.882909,599619198445485247,-155.00
2025-06-26 18:39:25.882909,599619198445485247,-158.00
2025-06-26 18:39:25.882909,599619198445485247,-158.00
2025-06-26 18:39:25.882909,599619198445485247,-150.00
2025-06-26 18:39:25.882909,599619198445485247,-126.00
2025-06-26 18:39:25.882909,599619198445485247,-111.00
2025-06-26 18:39:25.882909,599619198445485247,-119.00
2025-06-26 18:39:25.882909,599619198445485247,-111.00
2025-06-26 18:39:25.882909,599619198445485247,-92.00
2025-06-26 18:39:25.882909,599619198445485247,-82.00
2025-06-26 18:39:25.882909,599619198445485247,-77.00
2025-06-26 18:39:25.882909,599619198445485247,-80.00
2025-06-26 18:39:25.882909,599619198445485247,-80.00
2025-06-26 18:39:25.882909,599619198445485247,-63.00
2025-06-26 18:39:25.882909,599619198445485247,-55.00
2025-06-26 18:39:25.882909,599619198445485247,-75.00
2025-06-26 18:39:25.882909,599619198445485247,-80.00
2025-06-26 18:39:25.882909,599619198445485247,-65.00
2025-06-26 18:39:26.422958,599619199006238238,-63.00
2025-06-26 18:39:26.422958,599619199006238238,-82.00
2025-06-26 18:39:26.422958,599619199006238238,-97.00
2025-06-26 18:39:26.422958,599619199006238238,-92.00
2025-06-26 18:39:26.422958,599619199006238238,-94.00
2025-06-26 18:39:26.422958,599619199006238238,-99.00
2025-06-26 18:39:26.422958,599619199006238238,-90.00
2025-06-26 18:39:26.422958,599619199006238238,-82.00
2025-06-26 18:39:26.422958,599619199006238238,-65.00
2025-06-26 18:39:26.422958,599619199006238238,-38.00
2025-06-26 18:39:26.422958,599619199006238238,-26.00
2025-06-26 18:39:26.422958,599619199006238238,-46.00
2025-06-26 18:39:26.422958,599619199006238238,-70.00
2025-06-26 18:39:26.422958,599619199006238238,-80.00
2025-06-26 18:39:26.422958,599619199006238238,-75.00
2025-06-26 18:39:26.422958,599619199006238238,-70.00
2025-06-26 18:39:26.422958,599619199006238238,-65.00
2025-06-26 18:39:26.422958,599619199006238238,-65.00
2025-06-26 18:39:26.422958,599619199006238238,-75.00
2025-06-26 18:39:26.422958,599619199006238238,-90.00
2025-06-26 18:39:26.422958,599619199006238238,-99.00
2025-06-26 18:39:26.422958,599619199006238238,-102.00
2025-06-26 18:39:26.422958,599619199006238238,-48.00
2025-06-26 18:39:26.422958,599619199006238238,270.00
2025-06-26 18:39:26.422958,599619199006238238,1051.00
2025-06-26 18:39:26.422958,599619199006238238,1941.00
2025-06-26 18:39:26.422958,599619199006238238,2136.00
2025-06-26 18:39:26.422958,599619199006238238,1357.00
2025-06-26 18:39:26.422958,599619199006238238,245.00
2025-06-26 18:39:26.422958,599619199006238238,-306.00
2025-06-26 18:39:26.422958,599619199006238238,-240.00
2025-06-26 18:39:26.422958,599619199006238238,-223.00
2025-06-26 18:39:26.422958,599619199006238238,-345.00
2025-06-26 18:39:26.422958,599619199006238238,-328.00
2025-06-26 18:39:26.422958,599619199006238238,-291.00
2025-06-26 18:39:26.422958,599619199006238238,-316.00
2025-06-26 18:39:26.422958,599619199006238238,-301.00
2025-06-26 18:39:26.422958,599619199006238238,-270.00
2025-06-26 18:39:26.422958,599619199006238238,-267.00
2025-06-26 18:39:26.422958,599619199006238238,-255.00
2025-06-26 18:39:26.422958,599619199006238238,-238.00
2025-06-26 18:39:26.422958,599619199006238238,-233.00
2025-06-26 18:39:26.422958,599619199006238238,-216.00
2025-06-26 18:39:26.422958,599619199006238238,-189.00
2025-06-26 18:39:26.422958,599619199006238238,-184.00
2025-06-26 18:39:26.422958,599619199006238238,-175.00
2025-06-26 18:39:26.422958,599619199006238238,-141.00
2025-06-26 18:39:26.422958,599619199006238238,-119.00
2025-06-26 18:39:26.422958,599619199006238238,-111.00
2025-06-26 18:39:26.422958,599619199006238238,-104.00
2025-06-26 18:39:26.422958,599619199006238238,-94.00
2025-06-26 18:39:26.422958,599619199006238238,-99.00
2025-06-26 18:39:26.422958,599619199006238238,-109.00
2025-06-26 18:39:26.422958,599619199006238238,-107.00
2025-06-26 18:39:26.422958,599619199006238238,-107.00
2025-06-26 18:39:26.422958,599619199006238238,-114.00
2025-06-26 18:39:26.422958,599619199006238238,-121.00
2025-06-26 18:39:26.422958,599619199006238238,-128.00
2025-06-26 18:39:26.422958,599619199006238238,-136.00
2025-06-26 18:39:26.422958,599619199006238238,-143.00
2025-06-26 18:39:26.422958,599619199006238238,-148.00
2025-06-26 18:39:26.422958,599619199006238238,-145.00
2025-06-26 18:39:26.422958,599619199006238238,-150.00
2025-06-26 18:39:26.422958,599619199006238238,-155.00
2025-06-26 18:39:26.422958,599619199006238238,-148.00
2025-06-26 18:39:26.422958,599619199006238238,-141.00
2025-06-26 18:39:26.422958,599619199006238238,-128.00
2025-06-26 18:39:26.422958,599619199006238238,-119.00
2025-06-26 18:39:26.422958,599619199006238238,-128.00
2025-06-26 18:39:26.422958,599619199006238238,-133.00
2025-06-26 18:39:26.422958,599619199006238238,-121.00
2025-06-26 18:39:26.422958,599619199006238238,-121.00
2025-06-26 18:39:26.422958,599619199006238238,-131.00
2025-06-26 18:39:26.965840,599619199566965797,-119.00
2025-06-26 18:39:26.965840,599619199566965797,-104.00
2025-06-26 18:39:26.965840,599619199566965797,-114.00
2025-06-26 18:39:26.965840,599619199566965797,-119.00
2025-06-26 18:39:26.965840,599619199566965797,-102.00
2025-06-26 18:39:26.965840,599619199566965797,-82.00
2025-06-26 18:39:26.965840,599619199566965797,-82.00
2025-06-26 18:39:26.965840,599619199566965797,-94.00
2025-06-26 18:39:26.965840,599619199566965797,-92.00
2025-06-26 18:39:26.965840,599619199566965797,-82.00
2025-06-26 18:39:26.965840,599619199566965797,-80.00
2025-06-26 18:39:26.965840,599619199566965797,-77.00
2025-06-26 18:39:26.965840,599619199566965797,-80.00
2025-06-26 18:39:26.965840,599619199566965797,-99.00
2025-06-26 18:39:26.965840,599619199566965797,-107.00
2025-06-26 18:39:26.965840,599619199566965797,-97.00
2025-06-26 18:39:26.965840,599619199566965797,-92.00
2025-06-26 18:39:26.965840,599619199566965797,-90.00
2025-06-26 18:39:26.965840,599619199566965797,-75.00
2025-06-26 18:39:26.965840,599619199566965797,-46.00
2025-06-26 18:39:26.965840,599619199566965797,-14.00
2025-06-26 18:39:26.965840,599619199566965797,-9.00
2025-06-26 18:39:26.965840,599619199566965797,-43.00
2025-06-26 18:39:26.965840,599619199566965797,-72.00
2025-06-26 18:39:26.965840,599619199566965797,-72.00
2025-06-26 18:39:26.965840,599619199566965797,-63.00
2025-06-26 18:39:26.965840,599619199566965797,-65.00
2025-06-26 18:39:26.965840,599619199566965797,-68.00
2025-06-26 18:39:26.965840,599619199566965797,-63.00
2025-06-26 18:39:26.965840,599619199566965797,-65.00
2025-06-26 18:39:26.965840,599619199566965797,-75.00
2025-06-26 18:39:26.965840,599619199566965797,-75.00
2025-06-26 18:39:26.965840,599619199566965797,-75.00
2025-06-26 18:39:26.965840,599619199566965797,17.00
2025-06-26 18:39:26.965840,599619199566965797,486.00
2025-06-26 18:39:26.965840,599619199566965797,1399.00
2025-06-26 18:39:26.965840,599619199566965797,2155.00
2025-06-26 18:39:26.965840,599619199566965797,2000.00
2025-06-26 18:39:26.965840,599619199566965797,980.00
2025-06-26 18:39:26.965840,599619199566965797,-17.00
2025-06-26 18:39:26.965840,599619199566965797,-296.00
2025-06-26 18:39:26.965840,599619199566965797,-192.00
2025-06-26 18:39:26.965840,599619199566965797,-257.00
2025-06-26 18:39:26.965840,599619199566965797,-343.00
2025-06-26 18:39:26.965840,599619199566965797,-279.00
2025-06-26 18:39:26.965840,599619199566965797,-260.00
2025-06-26 18:39:26.965840,599619199566965797,-296.00
2025-06-26 18:39:26.965840,599619199566965797,-277.00
2025-06-26 18:39:26.965840,599619199566965797,-238.00
2025-06-26 18:39:26.965840,599619199566965797,-233.00
2025-06-26 18:39:26.965840,599619199566965797,-226.00
2025-06-26 18:39:26.965840,599619199566965797,-194.00
2025-06-26 18:39:26.965840,599619199566965797,-163.00
2025-06-26 18:39:26.965840,599619199566965797,-150.00
2025-06-26 18:39:26.965840,599619199566965797,-143.00
2025-06-26 18:39:26.965840,599619199566965797,-128.00
2025-06-26 18:39:26.965840,599619199566965797,-114.00
2025-06-26 18:39:26.965840,599619199566965797,-94.00
2025-06-26 18:39:26.965840,599619199566965797,-72.00
2025-06-26 18:39:26.965840,599619199566965797,-60.00
2025-06-26 18:39:26.965840,599619199566965797,-53.00
2025-06-26 18:39:26.965840,599619199566965797,-41.00
2025-06-26 18:39:26.965840,599619199566965797,-38.00
2025-06-26 18:39:26.965840,599619199566965797,-43.00
2025-06-26 18:39:26.965840,599619199566965797,-46.00
2025-06-26 18:39:26.965840,599619199566965797,-55.00
2025-06-26 18:39:26.965840,599619199566965797,-75.00
2025-06-26 18:39:26.965840,599619199566965797,-94.00
2025-06-26 18:39:26.965840,599619199566965797,-109.00
2025-06-26 18:39:26.965840,599619199566965797,-116.00
2025-06-26 18:39:26.965840,599619199566965797,-124.00
2025-06-26 18:39:26.965840,599619199566965797,-128.00
2025-06-26 18:39:26.965840,599619199566965797,-131.00
2025-06-26 18:39:27.537552,599619200127693356,-126.00
2025-06-26 18:39:27.537552,599619200127693356,-121.00
2025-06-26 18:39:27.537552,599619200127693356,-126.00
2025-06-26 18:39:27.537552,599619200127693356,-121.00
2025-06-26 18:39:27.537552,599619200127693356,-114.00
2025-06-26 18:39:27.537552,599619200127693356,-109.00
2025-06-26 18:39:27.537552,599619200127693356,-102.00
2025-06-26 18:39:27.537552,599619200127693356,-92.00
2025-06-26 18:39:27.537552,599619200127693356,-94.00
2025-06-26 18:39:27.537552,599619200127693356,-99.00
2025-06-26 18:39:27.537552,599619200127693356,-92.00
2025-06-26 18:39:27.537552,599619200127693356,-90.00
2025-06-26 18:39:27.537552,599619200127693356,-92.00
2025-06-26 18:39:27.537552,599619200127693356,-92.00
2025-06-26 18:39:27.537552,599619200127693356,-92.00
2025-06-26 18:39:27.537552,599619200127693356,-80.00
2025-06-26 18:39:27.537552,599619200127693356,-63.00
2025-06-26 18:39:27.537552,599619200127693356,-68.00
2025-06-26 18:39:27.537552,599619200127693356,-70.00
2025-06-26 18:39:27.537552,599619200127693356,-55.00
2025-06-26 18:39:27.537552,599619200127693356,-55.00
2025-06-26 18:39:27.537552,599619200127693356,-60.00
2025-06-26 18:39:27.537552,599619200127693356,-53.00
2025-06-26 18:39:27.537552,599619200127693356,-46.00
2025-06-26 18:39:27.537552,599619200127693356,-53.00
2025-06-26 18:39:27.537552,599619200127693356,-48.00
2025-06-26 18:39:27.537552,599619200127693356,-46.00
2025-06-26 18:39:27.537552,599619200127693356,-58.00
2025-06-26 18:39:27.537552,599619200127693356,-65.00
2025-06-26 18:39:27.537552,599619200127693356,-63.00
2025-06-26 18:39:27.537552,599619200127693356,-58.00
2025-06-26 18:39:27.537552,599619200127693356,-53.00
2025-06-26 18:39:27.537552,599619200127693356,-53.00
2025-06-26 18:39:27.537552,599619200127693356,-48.00
2025-06-26 18:39:27.537552,599619200127693356,-19.00
2025-06-26 18:39:27.537552,599619200127693356,2.00
2025-06-26 18:39:27.537552,599619200127693356,-17.00
2025-06-26 18:39:27.537552,599619200127693356,-51.00
2025-06-26 18:39:27.537552,599619200127693356,-58.00
2025-06-26 18:39:27.537552,599619200127693356,-41.00
2025-06-26 18:39:27.537552,599619200127693356,-41.00
2025-06-26 18:39:27.537552,599619200127693356,-51.00
2025-06-26 18:39:27.537552,599619200127693356,-41.00
2025-06-26 18:39:27.537552,599619200127693356,-24.00
2025-06-26 18:39:27.537552,599619200127693356,-29.00
2025-06-26 18:39:27.537552,599619200127693356,-53.00
2025-06-26 18:39:27.537552,599619200127693356,-68.00
2025-06-26 18:39:27.537552,599619200127693356,2.00
2025-06-26 18:39:27.537552,599619200127693356,408.00
2025-06-26 18:39:27.537552,599619200127693356,1279.00
2025-06-26 18:39:27.537552,599619200127693356,2138.00
2025-06-26 18:39:27.537552,599619200127693356,2187.00
2025-06-26 18:39:27.537552,599619200127693356,1265.00
2025-06-26 18:39:27.537552,599619200127693356,155.00
2025-06-26 18:39:27.537552,599619200127693356,-277.00
2025-06-26 18:39:27.537552,599619200127693356,-158.00
2025-06-26 18:39:27.537552,599619200127693356,-182.00
2025-06-26 18:39:27.537552,599619200127693356,-321.00
2025-06-26 18:39:27.537552,599619200127693356,-291.00
2025-06-26 18:39:27.537552,599619200127693356,-238.00
2025-06-26 18:39:27.537552,599619200127693356,-245.00
2025-06-26 18:39:27.537552,599619200127693356,-238.00
2025-06-26 18:39:27.537552,599619200127693356,-223.00
2025-06-26 18:39:27.537552,599619200127693356,-214.00
2025-06-26 18:39:27.537552,599619200127693356,-189.00
2025-06-26 18:39:27.537552,599619200127693356,-170.00
2025-06-26 18:39:27.537552,599619200127693356,-158.00
2025-06-26 18:39:27.537552,599619200127693356,-138.00
2025-06-26 18:39:27.537552,599619200127693356,-116.00
2025-06-26 18:39:27.537552,599619200127693356,-104.00
2025-06-26 18:39:27.537552,599619200127693356,-82.00
2025-06-26 18:39:27.537552,599619200127693356,-55.00
2025-06-26 18:39:27.537552,599619200127693356,-41.00
2025-06-26 18:39:28.107115,599619200688420915,-29.00
2025-06-26 18:39:28.107115,599619200688420915,-14.00
2025-06-26 18:39:28.107115,599619200688420915,2.00
2025-06-26 18:39:28.107115,599619200688420915,7.00
2025-06-26 18:39:28.107115,599619200688420915,4.00
2025-06-26 18:39:28.107115,599619200688420915,0.00
2025-06-26 18:39:28.107115,599619200688420915,-17.00
2025-06-26 18:39:28.107115,599619200688420915,-38.00
2025-06-26 18:39:28.107115,599619200688420915,-70.00
2025-06-26 18:39:28.107115,599619200688420915,-109.00
2025-06-26 18:39:28.107115,599619200688420915,-128.00
2025-06-26 18:39:28.107115,599619200688420915,-133.00
2025-06-26 18:39:28.107115,599619200688420915,-136.00
2025-06-26 18:39:28.107115,599619200688420915,-138.00
2025-06-26 18:39:28.107115,599619200688420915,-133.00
2025-06-26 18:39:28.107115,599619200688420915,-131.00
2025-06-26 18:39:28.107115,599619200688420915,-136.00
2025-06-26 18:39:28.107115,599619200688420915,-126.00
2025-06-26 18:39:28.107115,599619200688420915,-102.00
2025-06-26 18:39:28.107115,599619200688420915,-85.00
2025-06-26 18:39:28.107115,599619200688420915,-90.00
2025-06-26 18:39:28.107115,599619200688420915,-94.00
2025-06-26 18:39:28.107115,599619200688420915,-82.00
2025-06-26 18:39:28.107115,599619200688420915,-104.00
2025-06-26 18:39:28.107115,599619200688420915,-143.00
2025-06-26 18:39:28.107115,599619200688420915,-102.00
2025-06-26 18:39:28.107115,599619200688420915,-41.00
2025-06-26 18:39:28.107115,599619200688420915,-75.00
2025-06-26 18:39:28.107115,599619200688420915,-107.00
2025-06-26 18:39:28.107115,599619200688420915,-34.00
2025-06-26 18:39:28.107115,599619200688420915,34.00
2025-06-26 18:39:28.107115,599619200688420915,31.00
2025-06-26 18:39:28.107115,599619200688420915,0.00
2025-06-26 18:39:28.107115,599619200688420915,-85.00
2025-06-26 18:39:28.107115,599619200688420915,-128.00
2025-06-26 18:39:28.107115,599619200688420915,-85.00
2025-06-26 18:39:28.107115,599619200688420915,-63.00
2025-06-26 18:39:28.107115,599619200688420915,-65.00
2025-06-26 18:39:28.107115,599619200688420915,-53.00
2025-06-26 18:39:28.107115,599619200688420915,-43.00
2025-06-26 18:39:28.107115,599619200688420915,-38.00
2025-06-26 18:39:28.107115,599619200688420915,-41.00
2025-06-26 18:39:28.107115,599619200688420915,-60.00
2025-06-26 18:39:28.107115,599619200688420915,-63.00
2025-06-26 18:39:28.107115,599619200688420915,-29.00
2025-06-26 18:39:28.107115,599619200688420915,-9.00
2025-06-26 18:39:28.107115,599619200688420915,0.00
2025-06-26 18:39:28.107115,599619200688420915,38.00
2025-06-26 18:39:28.107115,599619200688420915,65.00
2025-06-26 18:39:28.107115,599619200688420915,24.00
2025-06-26 18:39:28.107115,599619200688420915,-17.00
2025-06-26 18:39:28.107115,599619200688420915,-12.00
2025-06-26 18:39:28.107115,599619200688420915,0.00
2025-06-26 18:39:28.107115,599619200688420915,7.00
2025-06-26 18:39:28.107115,599619200688420915,19.00
2025-06-26 18:39:28.107115,599619200688420915,14.00
2025-06-26 18:39:28.107115,599619200688420915,-4.00
2025-06-26 18:39:28.107115,599619200688420915,-19.00
2025-06-26 18:39:28.107115,599619200688420915,-48.00
2025-06-26 18:39:28.107115,599619200688420915,-70.00
2025-06-26 18:39:28.107115,599619200688420915,-7.00
2025-06-26 18:39:28.107115,599619200688420915,214.00
2025-06-26 18:39:28.107115,599619200688420915,798.00
2025-06-26 18:39:28.107115,599619200688420915,1761.00
2025-06-26 18:39:28.107115,599619200688420915,2379.00
2025-06-26 18:39:28.107115,599619200688420915,1907.00
2025-06-26 18:39:28.107115,599619200688420915,700.00
2025-06-26 18:39:28.107115,599619200688420915,-136.00
2025-06-26 18:39:28.107115,599619200688420915,-211.00
2025-06-26 18:39:28.107115,599619200688420915,-138.00
2025-06-26 18:39:28.107115,599619200688420915,-262.00
2025-06-26 18:39:28.107115,599619200688420915,-306.00
2025-06-26 18:39:28.107115,599619200688420915,-243.00
2025-06-26 18:39:28.672297,599619201249148474,-243.00
2025-06-26 18:39:28.672297,599619201249148474,-248.00
2025-06-26 18:39:28.672297,599619201249148474,-214.00
2025-06-26 18:39:28.672297,599619201249148474,-209.00
2025-06-26 18:39:28.672297,599619201249148474,-214.00
2025-06-26 18:39:28.672297,599619201249148474,-182.00
2025-06-26 18:39:28.672297,599619201249148474,-153.00
2025-06-26 18:39:28.672297,599619201249148474,-153.00
2025-06-26 18:39:28.672297,599619201249148474,-143.00
2025-06-26 18:39:28.672297,599619201249148474,-114.00
2025-06-26 18:39:28.672297,599619201249148474,-90.00
2025-06-26 18:39:28.672297,599619201249148474,-80.00
2025-06-26 18:39:28.672297,599619201249148474,-70.00
2025-06-26 18:39:28.672297,599619201249148474,-58.00
2025-06-26 18:39:28.672297,599619201249148474,-46.00
2025-06-26 18:39:28.672297,599619201249148474,-36.00
2025-06-26 18:39:28.672297,599619201249148474,-36.00
2025-06-26 18:39:28.672297,599619201249148474,-41.00
2025-06-26 18:39:28.672297,599619201249148474,-48.00
2025-06-26 18:39:28.672297,599619201249148474,-60.00
2025-06-26 18:39:28.672297,599619201249148474,-77.00
2025-06-26 18:39:28.672297,599619201249148474,-87.00
2025-06-26 18:39:28.672297,599619201249148474,-99.00
2025-06-26 18:39:28.672297,599619201249148474,-119.00
2025-06-26 18:39:28.672297,599619201249148474,-126.00
2025-06-26 18:39:28.672297,599619201249148474,-124.00
2025-06-26 18:39:28.672297,599619201249148474,-126.00
2025-06-26 18:39:28.672297,599619201249148474,-128.00
2025-06-26 18:39:28.672297,599619201249148474,-124.00
2025-06-26 18:39:28.672297,599619201249148474,-121.00
2025-06-26 18:39:28.672297,599619201249148474,-119.00
2025-06-26 18:39:28.672297,599619201249148474,-116.00
2025-06-26 18:39:28.672297,599619201249148474,-114.00
2025-06-26 18:39:28.672297,599619201249148474,-104.00
2025-06-26 18:39:28.672297,599619201249148474,-90.00
2025-06-26 18:39:28.672297,599619201249148474,-90.00
2025-06-26 18:39:28.672297,599619201249148474,-94.00
2025-06-26 18:39:28.672297,599619201249148474,-90.00
2025-06-26 18:39:28.672297,599619201249148474,-82.00
2025-06-26 18:39:28.672297,599619201249148474,-75.00
2025-06-26 18:39:28.672297,599619201249148474,-68.00
2025-06-26 18:39:28.672297,599619201249148474,-68.00
2025-06-26 18:39:28.672297,599619201249148474,-68.00
2025-06-26 18:39:28.672297,599619201249148474,-55.00
2025-06-26 18:39:28.672297,599619201249148474,-43.00
2025-06-26 18:39:28.672297,599619201249148474,-43.00
2025-06-26 18:39:28.672297,599619201249148474,-51.00
2025-06-26 18:39:28.672297,599619201249148474,-63.00
2025-06-26 18:39:28.672297,599619201249148474,-63.00
2025-06-26 18:39:28.672297,599619201249148474,-60.00
2025-06-26 18:39:28.672297,599619201249148474,-60.00
2025-06-26 18:39:28.672297,599619201249148474,-60.00
2025-06-26 18:39:28.672297,599619201249148474,-58.00
2025-06-26 18:39:28.672297,599619201249148474,-53.00
2025-06-26 18:39:28.672297,599619201249148474,-53.00
2025-06-26 18:39:28.672297,599619201249148474,-55.00
2025-06-26 18:39:28.672297,599619201249148474,-55.00
2025-06-26 18:39:28.672297,599619201249148474,-60.00
2025-06-26 18:39:28.672297,599619201249148474,-72.00
2025-06-26 18:39:28.672297,599619201249148474,-77.00
2025-06-26 18:39:28.672297,599619201249148474,-68.00
2025-06-26 18:39:28.672297,599619201249148474,-51.00
2025-06-26 18:39:28.672297,599619201249148474,-46.00
2025-06-26 18:39:28.672297,599619201249148474,-34.00
2025-06-26 18:39:28.672297,599619201249148474,0.00
2025-06-26 18:39:28.672297,599619201249148474,14.00
2025-06-26 18:39:28.672297,599619201249148474,-12.00
2025-06-26 18:39:28.672297,599619201249148474,-41.00
2025-06-26 18:39:28.672297,599619201249148474,-38.00
2025-06-26 18:39:28.672297,599619201249148474,-26.00
2025-06-26 18:39:28.672297,599619201249148474,-31.00
2025-06-26 18:39:28.672297,599619201249148474,-36.00
2025-06-26 18:39:28.672297,599619201249148474,-34.00
2025-06-26 18:39:29.272432,599619201809906553,-36.00
2025-06-26 18:39:29.272432,599619201809906553,-41.00
2025-06-26 18:39:29.272432,599619201809906553,-46.00
2025-06-26 18:39:29.272432,599619201809906553,-58.00
2025-06-26 18:39:29.272432,599619201809906553,26.00
2025-06-26 18:39:29.272432,599619201809906553,489.00
2025-06-26 18:39:29.272432,599619201809906553,1408.00
2025-06-26 18:39:29.272432,599619201809906553,2219.00
2025-06-26 18:39:29.272432,599619201809906553,2112.00
2025-06-26 18:39:29.272432,599619201809906553,1063.00
2025-06-26 18:39:29.272432,599619201809906553,14.00
2025-06-26 18:39:29.272432,599619201809906553,-267.00
2025-06-26 18:39:29.272432,599619201809906553,-148.00
2025-06-26 18:39:29.272432,599619201809906553,-226.00
2025-06-26 18:39:29.272432,599619201809906553,-330.00
2025-06-26 18:39:29.272432,599619201809906553,-274.00
2025-06-26 18:39:29.272432,599619201809906553,-253.00
2025-06-26 18:39:29.272432,599619201809906553,-277.00
2025-06-26 18:39:29.272432,599619201809906553,-245.00
2025-06-26 18:39:29.272432,599619201809906553,-214.00
2025-06-26 18:39:29.272432,599619201809906553,-209.00
2025-06-26 18:39:29.272432,599619201809906553,-197.00
2025-06-26 18:39:29.272432,599619201809906553,-182.00
2025-06-26 18:39:29.272432,599619201809906553,-175.00
2025-06-26 18:39:29.272432,599619201809906553,-158.00
2025-06-26 18:39:29.272432,599619201809906553,-136.00
2025-06-26 18:39:29.272432,599619201809906553,-116.00
2025-06-26 18:39:29.272432,599619201809906553,-97.00
2025-06-26 18:39:29.272432,599619201809906553,-82.00
2025-06-26 18:39:29.272432,599619201809906553,-72.00
2025-06-26 18:39:29.272432,599619201809906553,-63.00
2025-06-26 18:39:29.272432,599619201809906553,-51.00
2025-06-26 18:39:29.272432,599619201809906553,-46.00
2025-06-26 18:39:29.272432,599619201809906553,-53.00
2025-06-26 18:39:29.272432,599619201809906553,-65.00
2025-06-26 18:39:29.272432,599619201809906553,-70.00
2025-06-26 18:39:29.272432,599619201809906553,-75.00
2025-06-26 18:39:29.272432,599619201809906553,-85.00
2025-06-26 18:39:29.272432,599619201809906553,-99.00
2025-06-26 18:39:29.272432,599619201809906553,-107.00
2025-06-26 18:39:29.272432,599619201809906553,-111.00
2025-06-26 18:39:29.272432,599619201809906553,-124.00
2025-06-26 18:39:29.272432,599619201809906553,-133.00
2025-06-26 18:39:29.272432,599619201809906553,-136.00
2025-06-26 18:39:29.272432,599619201809906553,-133.00
2025-06-26 18:39:29.272432,599619201809906553,-126.00
2025-06-26 18:39:29.272432,599619201809906553,-116.00
2025-06-26 18:39:29.272432,599619201809906553,-116.00
2025-06-26 18:39:29.272432,599619201809906553,-116.00
2025-06-26 18:39:29.272432,599619201809906553,-107.00
2025-06-26 18:39:29.272432,599619201809906553,-94.00
2025-06-26 18:39:29.272432,599619201809906553,-97.00
2025-06-26 18:39:29.272432,599619201809906553,-94.00
2025-06-26 18:39:29.272432,599619201809906553,-77.00
2025-06-26 18:39:29.272432,599619201809906553,-70.00
2025-06-26 18:39:29.272432,599619201809906553,-68.00
2025-06-26 18:39:29.272432,599619201809906553,-55.00
2025-06-26 18:39:29.272432,599619201809906553,-48.00
2025-06-26 18:39:29.272432,599619201809906553,-48.00
2025-06-26 18:39:29.272432,599619201809906553,-41.00
2025-06-26 18:39:29.272432,599619201809906553,-34.00
2025-06-26 18:39:29.272432,599619201809906553,-34.00
2025-06-26 18:39:29.272432,599619201809906553,-38.00
2025-06-26 18:39:29.272432,599619201809906553,-36.00
2025-06-26 18:39:29.272432,599619201809906553,-29.00
2025-06-26 18:39:29.272432,599619201809906553,-26.00
2025-06-26 18:39:29.272432,599619201809906553,-29.00
2025-06-26 18:39:29.272432,599619201809906553,-34.00
2025-06-26 18:39:29.272432,599619201809906553,-31.00
2025-06-26 18:39:29.272432,599619201809906553,-26.00
2025-06-26 18:39:29.272432,599619201809906553,-21.00
2025-06-26 18:39:29.272432,599619201809906553,-26.00
2025-06-26 18:39:29.272432,599619201809906553,-34.00
2025-06-26 18:39:29.785790,599619202370613766,-36.00
2025-06-26 18:39:29.785790,599619202370613766,-41.00
2025-06-26 18:39:29.785790,599619202370613766,-46.00
2025-06-26 18:39:29.785790,599619202370613766,-31.00
2025-06-26 18:39:29.785790,599619202370613766,-7.00
2025-06-26 18:39:29.785790,599619202370613766,0.00
2025-06-26 18:39:29.785790,599619202370613766,17.00
2025-06-26 18:39:29.785790,599619202370613766,48.00
2025-06-26 18:39:29.785790,599619202370613766,58.00
2025-06-26 18:39:29.785790,599619202370613766,31.00
2025-06-26 18:39:29.785790,599619202370613766,12.00
2025-06-26 18:39:29.785790,599619202370613766,24.00
2025-06-26 18:39:29.785790,599619202370613766,41.00
2025-06-26 18:39:29.785790,599619202370613766,46.00
2025-06-26 18:39:29.785790,599619202370613766,36.00
2025-06-26 18:39:29.785790,599619202370613766,36.00
2025-06-26 18:39:29.785790,599619202370613766,46.00
2025-06-26 18:39:29.785790,599619202370613766,38.00
2025-06-26 18:39:29.785790,599619202370613766,12.00
2025-06-26 18:39:29.785790,599619202370613766,9.00
2025-06-26 18:39:29.785790,599619202370613766,172.00
2025-06-26 18:39:29.785790,599619202370613766,781.00
2025-06-26 18:39:29.785790,599619202370613766,1768.00
2025-06-26 18:39:29.785790,599619202370613766,2404.00
2025-06-26 18:39:29.785790,599619202370613766,1944.00
2025-06-26 18:39:29.785790,599619202370613766,710.00
2025-06-26 18:39:29.785790,599619202370613766,-114.00
2025-06-26 18:39:29.785790,599619202370613766,-138.00
2025-06-26 18:39:29.785790,599619202370613766,-65.00
2025-06-26 18:39:29.785790,599619202370613766,-209.00
2025-06-26 18:39:29.785790,599619202370613766,-240.00
2025-06-26 18:39:29.785790,599619202370613766,-172.00
2025-06-26 18:39:29.785790,599619202370613766,-184.00
2025-06-26 18:39:29.785790,599619202370613766,-194.00
2025-06-26 18:39:29.785790,599619202370613766,-153.00
2025-06-26 18:39:29.785790,599619202370613766,-136.00
2025-06-26 18:39:29.785790,599619202370613766,-145.00
2025-06-26 18:39:29.785790,599619202370613766,-128.00
2025-06-26 18:39:29.785790,599619202370613766,-99.00
2025-06-26 18:39:29.785790,599619202370613766,-92.00
2025-06-26 18:39:29.785790,599619202370613766,-82.00
2025-06-26 18:39:29.785790,599619202370613766,-58.00
2025-06-26 18:39:29.785790,599619202370613766,-43.00
2025-06-26 18:39:29.785790,599619202370613766,-34.00
2025-06-26 18:39:29.785790,599619202370613766,-17.00
2025-06-26 18:39:29.785790,599619202370613766,0.00
2025-06-26 18:39:29.785790,599619202370613766,7.00
2025-06-26 18:39:29.785790,599619202370613766,9.00
2025-06-26 18:39:29.785790,599619202370613766,4.00
2025-06-26 18:39:29.785790,599619202370613766,-9.00
2025-06-26 18:39:29.785790,599619202370613766,-24.00
2025-06-26 18:39:29.785790,599619202370613766,-34.00
2025-06-26 18:39:29.785790,599619202370613766,-43.00
2025-06-26 18:39:29.785790,599619202370613766,-48.00
2025-06-26 18:39:29.785790,599619202370613766,-48.00
2025-06-26 18:39:29.785790,599619202370613766,-51.00
2025-06-26 18:39:29.785790,599619202370613766,-60.00
2025-06-26 18:39:29.785790,599619202370613766,-63.00
2025-06-26 18:39:29.785790,599619202370613766,-58.00
2025-06-26 18:39:29.785790,599619202370613766,-55.00
2025-06-26 18:39:29.785790,599619202370613766,-55.00
2025-06-26 18:39:29.785790,599619202370613766,-55.00
2025-06-26 18:39:29.785790,599619202370613766,-63.00
2025-06-26 18:39:29.785790,599619202370613766,-63.00
2025-06-26 18:39:29.785790,599619202370613766,-46.00
2025-06-26 18:39:29.785790,599619202370613766,-31.00
2025-06-26 18:39:29.785790,599619202370613766,-41.00
2025-06-26 18:39:29.785790,599619202370613766,-55.00
2025-06-26 18:39:29.785790,599619202370613766,-21.00
2025-06-26 18:39:29.785790,599619202370613766,34.00
2025-06-26 18:39:29.785790,599619202370613766,14.00
2025-06-26 18:39:29.785790,599619202370613766,-7.00
2025-06-26 18:39:29.785790,599619202370613766,41.00
2025-06-26 18:39:30.382449,599619202931346411,51.00
2025-06-26 18:39:30.382449,599619202931346411,21.00
2025-06-26 18:39:30.382449,599619202931346411,29.00
2025-06-26 18:39:30.382449,599619202931346411,31.00
2025-06-26 18:39:30.382449,599619202931346411,21.00
2025-06-26 18:39:30.382449,599619202931346411,34.00
2025-06-26 18:39:30.382449,599619202931346411,51.00
2025-06-26 18:39:30.382449,599619202931346411,46.00
2025-06-26 18:39:30.382449,599619202931346411,36.00
2025-06-26 18:39:30.382449,599619202931346411,55.00
2025-06-26 18:39:30.382449,599619202931346411,63.00
2025-06-26 18:39:30.382449,599619202931346411,26.00
2025-06-26 18:39:30.382449,599619202931346411,46.00
2025-06-26 18:39:30.382449,599619202931346411,104.00
2025-06-26 18:39:30.382449,599619202931346411,80.00
2025-06-26 18:39:30.382449,599619202931346411,41.00
2025-06-26 18:39:30.382449,599619202931346411,58.00
2025-06-26 18:39:30.382449,599619202931346411,75.00
2025-06-26 18:39:30.382449,599619202931346411,68.00
2025-06-26 18:39:30.382449,599619202931346411,72.00
2025-06-26 18:39:30.382449,599619202931346411,102.00
2025-06-26 18:39:30.382449,599619202931346411,121.00
2025-06-26 18:39:30.382449,599619202931346411,99.00
2025-06-26 18:39:30.382449,599619202931346411,63.00
2025-06-26 18:39:30.382449,599619202931346411,53.00
2025-06-26 18:39:30.382449,599619202931346411,58.00
2025-06-26 18:39:30.382449,599619202931346411,80.00
2025-06-26 18:39:30.382449,599619202931346411,92.00
2025-06-26 18:39:30.382449,599619202931346411,63.00
2025-06-26 18:39:30.382449,599619202931346411,48.00
2025-06-26 18:39:30.382449,599619202931346411,77.00
2025-06-26 18:39:30.382449,599619202931346411,80.00
2025-06-26 18:39:30.382449,599619202931346411,24.00
2025-06-26 18:39:30.382449,599619202931346411,2.00
2025-06-26 18:39:30.382449,599619202931346411,330.00
2025-06-26 18:39:30.382449,599619202931346411,1206.00
2025-06-26 18:39:30.382449,599619202931346411,2187.00
2025-06-26 18:39:30.382449,599619202931346411,2365.00
2025-06-26 18:39:30.382449,599619202931346411,1394.00
2025-06-26 18:39:30.382449,599619202931346411,175.00
2025-06-26 18:39:30.382449,599619202931346411,-206.00
2025-06-26 18:39:30.382449,599619202931346411,-26.00
2025-06-26 18:39:30.382449,599619202931346411,-90.00
2025-06-26 18:39:30.382449,599619202931346411,-240.00
2025-06-26 18:39:30.382449,599619202931346411,-189.00
2025-06-26 18:39:30.382449,599619202931346411,-150.00
2025-06-26 18:39:30.382449,599619202931346411,-180.00
2025-06-26 18:39:30.382449,599619202931346411,-170.00
2025-06-26 18:39:30.382449,599619202931346411,-148.00
2025-06-26 18:39:30.382449,599619202931346411,-145.00
2025-06-26 18:39:30.382449,599619202931346411,-131.00
2025-06-26 18:39:30.382449,599619202931346411,-107.00
2025-06-26 18:39:30.382449,599619202931346411,-90.00
2025-06-26 18:39:30.382449,599619202931346411,-80.00
2025-06-26 18:39:30.382449,599619202931346411,-68.00
2025-06-26 18:39:30.382449,599619202931346411,-51.00
2025-06-26 18:39:30.382449,599619202931346411,-38.00
2025-06-26 18:39:30.382449,599619202931346411,-24.00
2025-06-26 18:39:30.382449,599619202931346411,-2.00
2025-06-26 18:39:30.382449,599619202931346411,7.00
2025-06-26 18:39:30.382449,599619202931346411,4.00
2025-06-26 18:39:30.382449,599619202931346411,0.00
2025-06-26 18:39:30.382449,599619202931346411,-9.00
2025-06-26 18:39:30.382449,599619202931346411,-31.00
2025-06-26 18:39:30.382449,599619202931346411,-53.00
2025-06-26 18:39:30.382449,599619202931346411,-65.00
2025-06-26 18:39:30.382449,599619202931346411,-70.00
2025-06-26 18:39:30.382449,599619202931346411,-75.00
2025-06-26 18:39:30.382449,599619202931346411,-82.00
2025-06-26 18:39:30.382449,599619202931346411,-90.00
2025-06-26 18:39:30.382449,599619202931346411,-94.00
2025-06-26 18:39:30.382449,599619202931346411,-102.00
2025-06-26 18:39:30.382449,599619202931346411,-107.00
2025-06-26 18:39:30.892676,599619203492079056,-104.00
2025-06-26 18:39:30.892676,599619203492079056,-104.00
2025-06-26 18:39:30.892676,599619203492079056,-104.00
2025-06-26 18:39:30.892676,599619203492079056,-99.00
2025-06-26 18:39:30.892676,599619203492079056,-94.00
2025-06-26 18:39:30.892676,599619203492079056,-90.00
2025-06-26 18:39:30.892676,599619203492079056,-80.00
2025-06-26 18:39:30.892676,599619203492079056,-72.00
2025-06-26 18:39:30.892676,599619203492079056,-70.00
2025-06-26 18:39:30.892676,599619203492079056,-60.00
2025-06-26 18:39:30.892676,599619203492079056,-48.00
2025-06-26 18:39:30.892676,599619203492079056,-48.00
2025-06-26 18:39:30.892676,599619203492079056,-53.00
2025-06-26 18:39:30.892676,599619203492079056,-51.00
2025-06-26 18:39:30.892676,599619203492079056,-51.00
2025-06-26 18:39:30.892676,599619203492079056,-51.00
2025-06-26 18:39:30.892676,599619203492079056,-48.00
2025-06-26 18:39:30.892676,599619203492079056,-53.00
2025-06-26 18:39:30.892676,599619203492079056,-60.00
2025-06-26 18:39:30.892676,599619203492079056,-60.00
2025-06-26 18:39:30.892676,599619203492079056,-65.00
2025-06-26 18:39:30.892676,599619203492079056,-72.00
2025-06-26 18:39:30.892676,599619203492079056,-77.00
2025-06-26 18:39:30.892676,599619203492079056,-77.00
2025-06-26 18:39:30.892676,599619203492079056,-82.00
2025-06-26 18:39:30.892676,599619203492079056,-92.00
2025-06-26 18:39:30.892676,599619203492079056,-109.00
2025-06-26 18:39:30.892676,599619203492079056,-126.00
2025-06-26 18:39:30.892676,599619203492079056,-138.00
2025-06-26 18:39:30.892676,599619203492079056,-143.00
2025-06-26 18:39:30.892676,599619203492079056,-136.00
2025-06-26 18:39:30.892676,599619203492079056,-126.00
2025-06-26 18:39:30.892676,599619203492079056,-121.00
2025-06-26 18:39:30.892676,599619203492079056,-102.00
2025-06-26 18:39:30.892676,599619203492079056,-82.00
2025-06-26 18:39:30.892676,599619203492079056,-92.00
2025-06-26 18:39:30.892676,599619203492079056,-126.00
2025-06-26 18:39:30.892676,599619203492079056,-148.00
2025-06-26 18:39:30.892676,599619203492079056,-148.00
2025-06-26 18:39:30.892676,599619203492079056,-150.00
2025-06-26 18:39:30.892676,599619203492079056,-167.00
2025-06-26 18:39:30.892676,599619203492079056,-175.00
2025-06-26 18:39:30.892676,599619203492079056,-172.00
2025-06-26 18:39:30.892676,599619203492079056,-177.00
2025-06-26 18:39:30.892676,599619203492079056,-192.00
2025-06-26 18:39:30.892676,599619203492079056,-211.00
2025-06-26 18:39:30.892676,599619203492079056,-223.00
2025-06-26 18:39:30.892676,599619203492079056,-36.00
2025-06-26 18:39:30.892676,599619203492079056,637.00
2025-06-26 18:39:30.892676,599619203492079056,1622.00
2025-06-26 18:39:30.892676,599619203492079056,2141.00
2025-06-26 18:39:30.892676,599619203492079056,1559.00
2025-06-26 18:39:30.892676,599619203492079056,311.00
2025-06-26 18:39:30.892676,599619203492079056,-428.00
2025-06-26 18:39:30.892676,599619203492079056,-374.00
2025-06-26 18:39:30.892676,599619203492079056,-316.00
2025-06-26 18:39:30.892676,599619203492079056,-484.00
2025-06-26 18:39:30.892676,599619203492079056,-493.00
2025-06-26 18:39:30.892676,599619203492079056,-418.00
2025-06-26 18:39:30.892676,599619203492079056,-442.00
2025-06-26 18:39:30.892676,599619203492079056,-450.00
2025-06-26 18:39:30.892676,599619203492079056,-403.00
2025-06-26 18:39:30.892676,599619203492079056,-384.00
2025-06-26 18:39:30.892676,599619203492079056,-377.00
2025-06-26 18:39:30.892676,599619203492079056,-350.00
2025-06-26 18:39:30.892676,599619203492079056,-326.00
2025-06-26 18:39:30.892676,599619203492079056,-311.00
2025-06-26 18:39:30.892676,599619203492079056,-294.00
2025-06-26 18:39:30.892676,599619203492079056,-277.00
2025-06-26 18:39:30.892676,599619203492079056,-262.00
2025-06-26 18:39:30.892676,599619203492079056,-243.00
2025-06-26 18:39:30.892676,599619203492079056,-223.00
2025-06-26 18:39:30.892676,599619203492079056,-211.00
2025-06-26 18:39:31.433564,599619204052786271,-201.00
2025-06-26 18:39:31.433564,599619204052786271,-199.00
2025-06-26 18:39:31.433564,599619204052786271,-204.00
2025-06-26 18:39:31.433564,599619204052786271,-211.00
2025-06-26 18:39:31.433564,599619204052786271,-221.00
2025-06-26 18:39:31.433564,599619204052786271,-233.00
2025-06-26 18:39:31.433564,599619204052786271,-238.00
2025-06-26 18:39:31.433564,599619204052786271,-240.00
2025-06-26 18:39:31.433564,599619204052786271,-243.00
2025-06-26 18:39:31.433564,599619204052786271,-245.00
2025-06-26 18:39:31.433564,599619204052786271,-248.00
2025-06-26 18:39:31.433564,599619204052786271,-245.00
2025-06-26 18:39:31.433564,599619204052786271,-245.00
2025-06-26 18:39:31.433564,599619204052786271,-243.00
2025-06-26 18:39:31.433564,599619204052786271,-238.00
2025-06-26 18:39:31.433564,599619204052786271,-233.00
2025-06-26 18:39:31.433564,599619204052786271,-228.00
2025-06-26 18:39:31.433564,599619204052786271,-221.00
2025-06-26 18:39:31.433564,599619204052786271,-216.00
2025-06-26 18:39:31.433564,599619204052786271,-211.00
2025-06-26 18:39:31.433564,599619204052786271,-204.00
2025-06-26 18:39:31.433564,599619204052786271,-192.00
2025-06-26 18:39:31.433564,599619204052786271,-177.00
2025-06-26 18:39:31.433564,599619204052786271,-170.00
2025-06-26 18:39:31.433564,599619204052786271,-160.00
2025-06-26 18:39:31.433564,599619204052786271,-150.00
2025-06-26 18:39:31.433564,599619204052786271,-145.00
2025-06-26 18:39:31.433564,599619204052786271,-141.00
2025-06-26 18:39:31.433564,599619204052786271,-136.00
2025-06-26 18:39:31.433564,599619204052786271,-133.00
2025-06-26 18:39:31.433564,599619204052786271,-138.00
2025-06-26 18:39:31.433564,599619204052786271,-143.00
2025-06-26 18:39:31.433564,599619204052786271,-143.00
2025-06-26 18:39:31.433564,599619204052786271,-143.00
2025-06-26 18:39:31.433564,599619204052786271,-143.00
2025-06-26 18:39:31.433564,599619204052786271,-138.00
2025-06-26 18:39:31.433564,599619204052786271,-136.00
2025-06-26 18:39:31.433564,599619204052786271,-143.00
2025-06-26 18:39:31.433564,599619204052786271,-153.00
2025-06-26 18:39:31.433564,599619204052786271,-158.00
2025-06-26 18:39:31.433564,599619204052786271,-153.00
2025-06-26 18:39:31.433564,599619204052786271,-141.00
2025-06-26 18:39:31.433564,599619204052786271,-138.00
2025-06-26 18:39:31.433564,599619204052786271,-124.00
2025-06-26 18:39:31.433564,599619204052786271,-90.00
2025-06-26 18:39:31.433564,599619204052786271,-70.00
2025-06-26 18:39:31.433564,599619204052786271,-87.00
2025-06-26 18:39:31.433564,599619204052786271,-114.00
2025-06-26 18:39:31.433564,599619204052786271,-114.00
2025-06-26 18:39:31.433564,599619204052786271,-97.00
2025-06-26 18:39:31.433564,599619204052786271,-97.00
2025-06-26 18:39:31.433564,599619204052786271,-109.00
2025-06-26 18:39:31.433564,599619204052786271,-109.00
2025-06-26 18:39:31.433564,599619204052786271,-102.00
2025-06-26 18:39:31.433564,599619204052786271,-102.00
2025-06-26 18:39:31.433564,599619204052786271,-107.00
2025-06-26 18:39:31.433564,599619204052786271,-119.00
2025-06-26 18:39:31.433564,599619204052786271,-97.00
2025-06-26 18:39:31.433564,599619204052786271,184.00
2025-06-26 18:39:31.433564,599619204052786271,941.00
2025-06-26 18:39:31.433564,599619204052786271,1880.00
2025-06-26 18:39:31.433564,599619204052786271,2204.00
2025-06-26 18:39:31.433564,599619204052786271,1464.00
2025-06-26 18:39:31.433564,599619204052786271,257.00
2025-06-26 18:39:31.433564,599619204052786271,-335.00
2025-06-26 18:39:31.433564,599619204052786271,-223.00
2025-06-26 18:39:31.433564,599619204052786271,-197.00
2025-06-26 18:39:31.433564,599619204052786271,-357.00
2025-06-26 18:39:31.433564,599619204052786271,-345.00
2025-06-26 18:39:31.433564,599619204052786271,-284.00
2025-06-26 18:39:31.433564,599619204052786271,-316.00
2025-06-26 18:39:31.433564,599619204052786271,-313.00
2025-06-26 18:39:31.433564,599619204052786271,-270.00
2025-06-26 18:39:32.031809,599619204613513830,-260.00
2025-06-26 18:39:32.031809,599619204613513830,-255.00
2025-06-26 18:39:32.031809,599619204613513830,-231.00
2025-06-26 18:39:32.031809,599619204613513830,-211.00
2025-06-26 18:39:32.031809,599619204613513830,-199.00
2025-06-26 18:39:32.031809,599619204613513830,-177.00
2025-06-26 18:39:32.031809,599619204613513830,-160.00
2025-06-26 18:39:32.031809,599619204613513830,-145.00
2025-06-26 18:39:32.031809,599619204613513830,-121.00
2025-06-26 18:39:32.031809,599619204613513830,-102.00
2025-06-26 18:39:32.031809,599619204613513830,-99.00
2025-06-26 18:39:32.031809,599619204613513830,-102.00
2025-06-26 18:39:32.031809,599619204613513830,-99.00
2025-06-26 18:39:32.031809,599619204613513830,-102.00
2025-06-26 18:39:32.031809,599619204613513830,-116.00
2025-06-26 18:39:32.031809,599619204613513830,-128.00
2025-06-26 18:39:32.031809,599619204613513830,-136.00
2025-06-26 18:39:32.031809,599619204613513830,-138.00
2025-06-26 18:39:32.031809,599619204613513830,-145.00
2025-06-26 18:39:32.031809,599619204613513830,-155.00
2025-06-26 18:39:32.031809,599619204613513830,-158.00
2025-06-26 18:39:32.031809,599619204613513830,-155.00
2025-06-26 18:39:32.031809,599619204613513830,-158.00
2025-06-26 18:39:32.031809,599619204613513830,-158.00
2025-06-26 18:39:32.031809,599619204613513830,-155.00
2025-06-26 18:39:32.031809,599619204613513830,-153.00
2025-06-26 18:39:32.031809,599619204613513830,-150.00
2025-06-26 18:39:32.031809,599619204613513830,-148.00
2025-06-26 18:39:32.031809,599619204613513830,-143.00
2025-06-26 18:39:32.031809,599619204613513830,-141.00
2025-06-26 18:39:32.031809,599619204613513830,-128.00
2025-06-26 18:39:32.031809,599619204613513830,-119.00
2025-06-26 18:39:32.031809,599619204613513830,-116.00
2025-06-26 18:39:32.031809,599619204613513830,-107.00
2025-06-26 18:39:32.031809,599619204613513830,-94.00
2025-06-26 18:39:32.031809,599619204613513830,-90.00
2025-06-26 18:39:32.031809,599619204613513830,-85.00
2025-06-26 18:39:32.031809,599619204613513830,-80.00
2025-06-26 18:39:32.031809,599619204613513830,-77.00
2025-06-26 18:39:32.031809,599619204613513830,-75.00
2025-06-26 18:39:32.031809,599619204613513830,-72.00
2025-06-26 18:39:32.031809,599619204613513830,-72.00
2025-06-26 18:39:32.031809,599619204613513830,-72.00
2025-06-26 18:39:32.031809,599619204613513830,-72.00
2025-06-26 18:39:32.031809,599619204613513830,-75.00
2025-06-26 18:39:32.031809,599619204613513830,-75.00
2025-06-26 18:39:32.031809,599619204613513830,-75.00
2025-06-26 18:39:32.031809,599619204613513830,-75.00
2025-06-26 18:39:32.031809,599619204613513830,-77.00
2025-06-26 18:39:32.031809,599619204613513830,-82.00
2025-06-26 18:39:32.031809,599619204613513830,-90.00
2025-06-26 18:39:32.031809,599619204613513830,-99.00
2025-06-26 18:39:32.031809,599619204613513830,-99.00
2025-06-26 18:39:32.031809,599619204613513830,-85.00
2025-06-26 18:39:32.031809,599619204613513830,-77.00
2025-06-26 18:39:32.031809,599619204613513830,-70.00
2025-06-26 18:39:32.031809,599619204613513830,-46.00
2025-06-26 18:39:32.031809,599619204613513830,-19.00
2025-06-26 18:39:32.031809,599619204613513830,-21.00
2025-06-26 18:39:32.031809,599619204613513830,-58.00
2025-06-26 18:39:32.031809,599619204613513830,-72.00
2025-06-26 18:39:32.031809,599619204613513830,-58.00
2025-06-26 18:39:32.031809,599619204613513830,-51.00
2025-06-26 18:39:32.031809,599619204613513830,-58.00
2025-06-26 18:39:32.031809,599619204613513830,-55.00
2025-06-26 18:39:32.031809,599619204613513830,-53.00
2025-06-26 18:39:32.031809,599619204613513830,-60.00
2025-06-26 18:39:32.031809,599619204613513830,-68.00
2025-06-26 18:39:32.031809,599619204613513830,-77.00
2025-06-26 18:39:32.031809,599619204613513830,-82.00
2025-06-26 18:39:32.031809,599619204613513830,97.00
2025-06-26 18:39:32.031809,599619204613513830,749.00
2025-06-26 18:39:32.031809,599619204613513830,1739.00
2025-06-26 18:39:32.632334,599619205174246477,2306.00
2025-06-26 18:39:32.632334,599619205174246477,1810.00
2025-06-26 18:39:32.632334,599619205174246477,608.00
2025-06-26 18:39:32.632334,599619205174246477,-214.00
2025-06-26 18:39:32.632334,599619205174246477,-250.00
2025-06-26 18:39:32.632334,599619205174246477,-160.00
2025-06-26 18:39:32.632334,599619205174246477,-301.00
2025-06-26 18:39:32.632334,599619205174246477,-343.00
2025-06-26 18:39:32.632334,599619205174246477,-272.00
2025-06-26 18:39:32.632334,599619205174246477,-279.00
2025-06-26 18:39:32.632334,599619205174246477,-291.00
2025-06-26 18:39:32.632334,599619205174246477,-255.00
2025-06-26 18:39:32.632334,599619205174246477,-240.00
2025-06-26 18:39:32.632334,599619205174246477,-233.00
2025-06-26 18:39:32.632334,599619205174246477,-209.00
2025-06-26 18:39:32.632334,599619205174246477,-189.00
2025-06-26 18:39:32.632334,599619205174246477,-184.00
2025-06-26 18:39:32.632334,599619205174246477,-172.00
2025-06-26 18:39:32.632334,599619205174246477,-148.00
2025-06-26 18:39:32.632334,599619205174246477,-133.00
2025-06-26 18:39:32.632334,599619205174246477,-121.00
2025-06-26 18:39:32.632334,599619205174246477,-102.00
2025-06-26 18:39:32.632334,599619205174246477,-82.00
2025-06-26 18:39:32.632334,599619205174246477,-75.00
2025-06-26 18:39:32.632334,599619205174246477,-77.00
2025-06-26 18:39:32.632334,599619205174246477,-77.00
2025-06-26 18:39:32.632334,599619205174246477,-85.00
2025-06-26 18:39:32.632334,599619205174246477,-94.00
2025-06-26 18:39:32.632334,599619205174246477,-104.00
2025-06-26 18:39:32.632334,599619205174246477,-111.00
2025-06-26 18:39:32.632334,599619205174246477,-119.00
2025-06-26 18:39:32.632334,599619205174246477,-131.00
2025-06-26 18:39:32.632334,599619205174246477,-136.00
2025-06-26 18:39:32.632334,599619205174246477,-138.00
2025-06-26 18:39:32.632334,599619205174246477,-141.00
2025-06-26 18:39:32.632334,599619205174246477,-141.00
2025-06-26 18:39:32.632334,599619205174246477,-143.00
2025-06-26 18:39:32.632334,599619205174246477,-143.00
2025-06-26 18:39:32.632334,599619205174246477,-138.00
2025-06-26 18:39:32.632334,599619205174246477,-133.00
2025-06-26 18:39:32.632334,599619205174246477,-128.00
2025-06-26 18:39:32.632334,599619205174246477,-124.00
2025-06-26 18:39:32.632334,599619205174246477,-124.00
2025-06-26 18:39:32.632334,599619205174246477,-116.00
2025-06-26 18:39:32.632334,599619205174246477,-102.00
2025-06-26 18:39:32.632334,599619205174246477,-92.00
2025-06-26 18:39:32.632334,599619205174246477,-90.00
2025-06-26 18:39:32.632334,599619205174246477,-85.00
2025-06-26 18:39:32.632334,599619205174246477,-77.00
2025-06-26 18:39:32.632334,599619205174246477,-72.00
2025-06-26 18:39:32.632334,599619205174246477,-70.00
2025-06-26 18:39:32.632334,599619205174246477,-68.00
2025-06-26 18:39:32.632334,599619205174246477,-65.00
2025-06-26 18:39:32.632334,599619205174246477,-63.00
2025-06-26 18:39:32.632334,599619205174246477,-60.00
2025-06-26 18:39:32.632334,599619205174246477,-60.00
2025-06-26 18:39:32.632334,599619205174246477,-63.00
2025-06-26 18:39:32.632334,599619205174246477,-63.00
2025-06-26 18:39:32.632334,599619205174246477,-63.00
2025-06-26 18:39:32.632334,599619205174246477,-63.00
2025-06-26 18:39:32.632334,599619205174246477,-65.00
2025-06-26 18:39:32.632334,599619205174246477,-68.00
2025-06-26 18:39:32.632334,599619205174246477,-72.00
2025-06-26 18:39:32.632334,599619205174246477,-80.00
2025-06-26 18:39:32.632334,599619205174246477,-90.00
2025-06-26 18:39:32.632334,599619205174246477,-92.00
2025-06-26 18:39:32.632334,599619205174246477,-80.00
2025-06-26 18:39:32.632334,599619205174246477,-65.00
2025-06-26 18:39:32.632334,599619205174246477,-58.00
2025-06-26 18:39:32.632334,599619205174246477,-38.00
2025-06-26 18:39:32.632334,599619205174246477,-9.00
2025-06-26 18:39:32.632334,599619205174246477,-9.00
2025-06-26 18:39:32.632334,599619205174246477,-36.00
2025-06-26 18:39:33.142241,599619205734979122,-58.00
2025-06-26 18:39:33.142241,599619205734979122,-48.00
2025-06-26 18:39:33.142241,599619205734979122,-38.00
2025-06-26 18:39:33.142241,599619205734979122,-41.00
2025-06-26 18:39:33.142241,599619205734979122,-46.00
2025-06-26 18:39:33.142241,599619205734979122,-48.00
2025-06-26 18:39:33.142241,599619205734979122,-48.00
2025-06-26 18:39:33.142241,599619205734979122,-51.00
2025-06-26 18:39:33.142241,599619205734979122,-60.00
2025-06-26 18:39:33.142241,599619205734979122,-77.00
2025-06-26 18:39:33.142241,599619205734979122,21.00
2025-06-26 18:39:33.142241,599619205734979122,537.00
2025-06-26 18:39:33.142241,599619205734979122,1506.00
2025-06-26 18:39:33.142241,599619205734979122,2284.00
2025-06-26 18:39:33.142241,599619205734979122,2070.00
2025-06-26 18:39:33.142241,599619205734979122,939.00
2025-06-26 18:39:33.142241,599619205734979122,-80.00
2025-06-26 18:39:33.142241,599619205734979122,-284.00
2025-06-26 18:39:33.142241,599619205734979122,-155.00
2025-06-26 18:39:33.142241,599619205734979122,-260.00
2025-06-26 18:39:33.142241,599619205734979122,-347.00
2025-06-26 18:39:33.142241,599619205734979122,-282.00
2025-06-26 18:39:33.142241,599619205734979122,-272.00
2025-06-26 18:39:33.142241,599619205734979122,-296.00
2025-06-26 18:39:33.142241,599619205734979122,-265.00
2025-06-26 18:39:33.142241,599619205734979122,-240.00
2025-06-26 18:39:33.142241,599619205734979122,-236.00
2025-06-26 18:39:33.142241,599619205734979122,-218.00
2025-06-26 18:39:33.142241,599619205734979122,-197.00
2025-06-26 18:39:33.142241,599619205734979122,-184.00
2025-06-26 18:39:33.142241,599619205734979122,-167.00
2025-06-26 18:39:33.142241,599619205734979122,-148.00
2025-06-26 18:39:33.142241,599619205734979122,-131.00
2025-06-26 18:39:33.142241,599619205734979122,-116.00
2025-06-26 18:39:33.142241,599619205734979122,-102.00
2025-06-26 18:39:33.142241,599619205734979122,-85.00
2025-06-26 18:39:33.142241,599619205734979122,-72.00
2025-06-26 18:39:33.142241,599619205734979122,-70.00
2025-06-26 18:39:33.142241,599619205734979122,-70.00
2025-06-26 18:39:33.142241,599619205734979122,-75.00
2025-06-26 18:39:33.142241,599619205734979122,-85.00
2025-06-26 18:39:33.142241,599619205734979122,-94.00
2025-06-26 18:39:33.142241,599619205734979122,-102.00
2025-06-26 18:39:33.142241,599619205734979122,-114.00
2025-06-26 18:39:33.142241,599619205734979122,-121.00
2025-06-26 18:39:33.142241,599619205734979122,-128.00
2025-06-26 18:39:33.142241,599619205734979122,-133.00
2025-06-26 18:39:33.142241,599619205734979122,-138.00
2025-06-26 18:39:33.142241,599619205734979122,-141.00
2025-06-26 18:39:33.142241,599619205734979122,-141.00
2025-06-26 18:39:33.142241,599619205734979122,-136.00
2025-06-26 18:39:33.142241,599619205734979122,-133.00
2025-06-26 18:39:33.142241,599619205734979122,-136.00
2025-06-26 18:39:33.142241,599619205734979122,-131.00
2025-06-26 18:39:33.142241,599619205734979122,-121.00
2025-06-26 18:39:33.142241,599619205734979122,-119.00
2025-06-26 18:39:33.142241,599619205734979122,-116.00
2025-06-26 18:39:33.142241,599619205734979122,-109.00
2025-06-26 18:39:33.142241,599619205734979122,-99.00
2025-06-26 18:39:33.142241,599619205734979122,-92.00
2025-06-26 18:39:33.142241,599619205734979122,-87.00
2025-06-26 18:39:33.142241,599619205734979122,-82.00
2025-06-26 18:39:33.142241,599619205734979122,-75.00
2025-06-26 18:39:33.142241,599619205734979122,-70.00
2025-06-26 18:39:33.142241,599619205734979122,-70.00
2025-06-26 18:39:33.142241,599619205734979122,-68.00
2025-06-26 18:39:33.142241,599619205734979122,-63.00
2025-06-26 18:39:33.142241,599619205734979122,-63.00
2025-06-26 18:39:33.142241,599619205734979122,-65.00
2025-06-26 18:39:33.142241,599619205734979122,-65.00
2025-06-26 18:39:33.142241,599619205734979122,-60.00
2025-06-26 18:39:33.142241,599619205734979122,-60.00
2025-06-26 18:39:33.142241,599619205734979122,-63.00
2025-06-26 18:39:33.712487,599619206295696509,-60.00
2025-06-26 18:39:33.712487,599619206295696509,-58.00
2025-06-26 18:39:33.712487,599619206295696509,-60.00
2025-06-26 18:39:33.712487,599619206295696509,-60.00
2025-06-26 18:39:33.712487,599619206295696509,-58.00
2025-06-26 18:39:33.712487,599619206295696509,-55.00
2025-06-26 18:39:33.712487,599619206295696509,-60.00
2025-06-26 18:39:33.712487,599619206295696509,-68.00
2025-06-26 18:39:33.712487,599619206295696509,-75.00
2025-06-26 18:39:33.712487,599619206295696509,-82.00
2025-06-26 18:39:33.712487,599619206295696509,-77.00
2025-06-26 18:39:33.712487,599619206295696509,-65.00
2025-06-26 18:39:33.712487,599619206295696509,-58.00
2025-06-26 18:39:33.712487,599619206295696509,-43.00
2025-06-26 18:39:33.712487,599619206295696509,-12.00
2025-06-26 18:39:33.712487,599619206295696509,4.00
2025-06-26 18:39:33.712487,599619206295696509,-17.00
2025-06-26 18:39:33.712487,599619206295696509,-46.00
2025-06-26 18:39:33.712487,599619206295696509,-46.00
2025-06-26 18:39:33.712487,599619206295696509,-34.00
2025-06-26 18:39:33.712487,599619206295696509,-36.00
2025-06-26 18:39:33.712487,599619206295696509,-43.00
2025-06-26 18:39:33.712487,599619206295696509,-36.00
2025-06-26 18:39:33.712487,599619206295696509,-36.00
2025-06-26 18:39:33.712487,599619206295696509,-41.00
2025-06-26 18:39:33.712487,599619206295696509,-43.00
2025-06-26 18:39:33.712487,599619206295696509,-60.00
2025-06-26 18:39:33.712487,599619206295696509,-41.00
2025-06-26 18:39:33.712487,599619206295696509,245.00
2025-06-26 18:39:33.712487,599619206295696509,1041.00
2025-06-26 18:39:33.712487,599619206295696509,2019.00
2025-06-26 18:39:33.712487,599619206295696509,2333.00
2025-06-26 18:39:33.712487,599619206295696509,1547.00
2025-06-26 18:39:33.712487,599619206295696509,316.00
2025-06-26 18:39:33.712487,599619206295696509,-284.00
2025-06-26 18:39:33.712487,599619206295696509,-194.00
2025-06-26 18:39:33.712487,599619206295696509,-182.00
2025-06-26 18:39:33.712487,599619206295696509,-333.00
2025-06-26 18:39:33.712487,599619206295696509,-316.00
2025-06-26 18:39:33.712487,599619206295696509,-260.00
2025-06-26 18:39:33.712487,599619206295696509,-287.00
2025-06-26 18:39:33.712487,599619206295696509,-282.00
2025-06-26 18:39:33.712487,599619206295696509,-245.00
2025-06-26 18:39:33.712487,599619206295696509,-236.00
2025-06-26 18:39:33.712487,599619206295696509,-226.00
2025-06-26 18:39:33.712487,599619206295696509,-204.00
2025-06-26 18:39:33.712487,599619206295696509,-194.00
2025-06-26 18:39:33.712487,599619206295696509,-184.00
2025-06-26 18:39:33.712487,599619206295696509,-163.00
2025-06-26 18:39:33.712487,599619206295696509,-143.00
2025-06-26 18:39:33.712487,599619206295696509,-131.00
2025-06-26 18:39:33.712487,599619206295696509,-116.00
2025-06-26 18:39:33.712487,599619206295696509,-94.00
2025-06-26 18:39:33.712487,599619206295696509,-82.00
2025-06-26 18:39:33.712487,599619206295696509,-75.00
2025-06-26 18:39:33.712487,599619206295696509,-70.00
2025-06-26 18:39:33.712487,599619206295696509,-72.00
2025-06-26 18:39:33.712487,599619206295696509,-80.00
2025-06-26 18:39:33.712487,599619206295696509,-87.00
2025-06-26 18:39:33.712487,599619206295696509,-94.00
2025-06-26 18:39:33.712487,599619206295696509,-102.00
2025-06-26 18:39:33.712487,599619206295696509,-114.00
2025-06-26 18:39:33.712487,599619206295696509,-121.00
2025-06-26 18:39:33.712487,599619206295696509,-128.00
2025-06-26 18:39:33.712487,599619206295696509,-133.00
2025-06-26 18:39:33.712487,599619206295696509,-136.00
2025-06-26 18:39:33.712487,599619206295696509,-138.00
2025-06-26 18:39:33.712487,599619206295696509,-136.00
2025-06-26 18:39:33.712487,599619206295696509,-136.00
2025-06-26 18:39:33.712487,599619206295696509,-133.00
2025-06-26 18:39:33.712487,599619206295696509,-126.00
2025-06-26 18:39:33.712487,599619206295696509,-119.00
2025-06-26 18:39:33.712487,599619206295696509,-114.00
2025-06-26 18:39:34.251978,599619206856444412,-109.00
2025-06-26 18:39:34.251978,599619206856444412,-99.00
2025-06-26 18:39:34.251978,599619206856444412,-94.00
2025-06-26 18:39:34.251978,599619206856444412,-92.00
2025-06-26 18:39:34.251978,599619206856444412,-87.00
2025-06-26 18:39:34.251978,599619206856444412,-80.00
2025-06-26 18:39:34.251978,599619206856444412,-77.00
2025-06-26 18:39:34.251978,599619206856444412,-72.00
2025-06-26 18:39:34.251978,599619206856444412,-68.00
2025-06-26 18:39:34.251978,599619206856444412,-65.00
2025-06-26 18:39:34.251978,599619206856444412,-63.00
2025-06-26 18:39:34.251978,599619206856444412,-58.00
2025-06-26 18:39:34.251978,599619206856444412,-55.00
2025-06-26 18:39:34.251978,599619206856444412,-55.00
2025-06-26 18:39:34.251978,599619206856444412,-55.00
2025-06-26 18:39:34.251978,599619206856444412,-55.00
2025-06-26 18:39:34.251978,599619206856444412,-55.00
2025-06-26 18:39:34.251978,599619206856444412,-55.00
2025-06-26 18:39:34.251978,599619206856444412,-55.00
2025-06-26 18:39:34.251978,599619206856444412,-53.00
2025-06-26 18:39:34.251978,599619206856444412,-51.00
2025-06-26 18:39:34.251978,599619206856444412,-51.00
2025-06-26 18:39:34.251978,599619206856444412,-51.00
2025-06-26 18:39:34.251978,599619206856444412,-53.00
2025-06-26 18:39:34.251978,599619206856444412,-53.00
2025-06-26 18:39:34.251978,599619206856444412,-48.00
2025-06-26 18:39:34.251978,599619206856444412,-48.00
2025-06-26 18:39:34.251978,599619206856444412,-51.00
2025-06-26 18:39:34.251978,599619206856444412,-51.00
2025-06-26 18:39:34.251978,599619206856444412,-55.00
2025-06-26 18:39:34.251978,599619206856444412,-63.00
2025-06-26 18:39:34.251978,599619206856444412,-70.00
2025-06-26 18:39:34.251978,599619206856444412,-75.00
2025-06-26 18:39:34.251978,599619206856444412,-68.00
2025-06-26 18:39:34.251978,599619206856444412,-55.00
2025-06-26 18:39:34.251978,599619206856444412,-51.00
2025-06-26 18:39:34.251978,599619206856444412,-34.00
2025-06-26 18:39:34.251978,599619206856444412,-2.00
2025-06-26 18:39:34.251978,599619206856444412,4.00
2025-06-26 18:39:34.251978,599619206856444412,-19.00
2025-06-26 18:39:34.251978,599619206856444412,-43.00
2025-06-26 18:39:34.251978,599619206856444412,-41.00
2025-06-26 18:39:34.251978,599619206856444412,-34.00
2025-06-26 18:39:34.251978,599619206856444412,-34.00
2025-06-26 18:39:34.251978,599619206856444412,-38.00
2025-06-26 18:39:34.251978,599619206856444412,-38.00
2025-06-26 18:39:34.251978,599619206856444412,-38.00
2025-06-26 18:39:34.251978,599619206856444412,-41.00
2025-06-26 18:39:34.251978,599619206856444412,-51.00
2025-06-26 18:39:34.251978,599619206856444412,-72.00
2025-06-26 18:39:34.251978,599619206856444412,-36.00
2025-06-26 18:39:34.251978,599619206856444412,304.00
2025-06-26 18:39:34.251978,599619206856444412,1146.00
2025-06-26 18:39:34.251978,599619206856444412,2095.00
2025-06-26 18:39:34.251978,599619206856444412,2287.00
2025-06-26 18:39:34.251978,599619206856444412,1391.00
2025-06-26 18:39:34.251978,599619206856444412,192.00
2025-06-26 18:39:34.251978,599619206856444412,-294.00
2025-06-26 18:39:34.251978,599619206856444412,-175.00
2025-06-26 18:39:34.251978,599619206856444412,-201.00
2025-06-26 18:39:34.251978,599619206856444412,-343.00
2025-06-26 18:39:34.251978,599619206856444412,-306.00
2025-06-26 18:39:34.251978,599619206856444412,-262.00
2025-06-26 18:39:34.251978,599619206856444412,-294.00
2025-06-26 18:39:34.251978,599619206856444412,-282.00
2025-06-26 18:39:34.251978,599619206856444412,-248.00
2025-06-26 18:39:34.251978,599619206856444412,-243.00
2025-06-26 18:39:34.251978,599619206856444412,-231.00
2025-06-26 18:39:34.251978,599619206856444412,-209.00
2025-06-26 18:39:34.251978,599619206856444412,-197.00
2025-06-26 18:39:34.251978,599619206856444412,-184.00
2025-06-26 18:39:34.251978,599619206856444412,-165.00
2025-06-26 18:39:34.251978,599619206856444412,-145.00
2025-06-26 18:39:34.792398,599619207417182145,-128.00
2025-06-26 18:39:34.792398,599619207417182145,-111.00
2025-06-26 18:39:34.792398,599619207417182145,-99.00
2025-06-26 18:39:34.792398,599619207417182145,-87.00
2025-06-26 18:39:34.792398,599619207417182145,-72.00
2025-06-26 18:39:34.792398,599619207417182145,-70.00
2025-06-26 18:39:34.792398,599619207417182145,-80.00
2025-06-26 18:39:34.792398,599619207417182145,-85.00
2025-06-26 18:39:34.792398,599619207417182145,-92.00
2025-06-26 18:39:34.792398,599619207417182145,-104.00
2025-06-26 18:39:34.792398,599619207417182145,-111.00
2025-06-26 18:39:34.792398,599619207417182145,-114.00
2025-06-26 18:39:34.792398,599619207417182145,-121.00
2025-06-26 18:39:34.792398,599619207417182145,-128.00
2025-06-26 18:39:34.792398,599619207417182145,-131.00
2025-06-26 18:39:34.792398,599619207417182145,-131.00
2025-06-26 18:39:34.792398,599619207417182145,-133.00
2025-06-26 18:39:34.792398,599619207417182145,-133.00
2025-06-26 18:39:34.792398,599619207417182145,-133.00
2025-06-26 18:39:34.792398,599619207417182145,-133.00
2025-06-26 18:39:34.792398,599619207417182145,-126.00
2025-06-26 18:39:34.792398,599619207417182145,-121.00
2025-06-26 18:39:34.792398,599619207417182145,-116.00
2025-06-26 18:39:34.792398,599619207417182145,-109.00
2025-06-26 18:39:34.792398,599619207417182145,-104.00
2025-06-26 18:39:34.792398,599619207417182145,-102.00
2025-06-26 18:39:34.792398,599619207417182145,-94.00
2025-06-26 18:39:34.792398,599619207417182145,-87.00
2025-06-26 18:39:34.792398,599619207417182145,-82.00
2025-06-26 18:39:34.792398,599619207417182145,-82.00
2025-06-26 18:39:34.792398,599619207417182145,-77.00
2025-06-26 18:39:34.792398,599619207417182145,-68.00
2025-06-26 18:39:34.792398,599619207417182145,-65.00
2025-06-26 18:39:34.792398,599619207417182145,-68.00
2025-06-26 18:39:34.792398,599619207417182145,-65.00
2025-06-26 18:39:34.792398,599619207417182145,-63.00
2025-06-26 18:39:34.792398,599619207417182145,-60.00
2025-06-26 18:39:34.792398,599619207417182145,-60.00
2025-06-26 18:39:34.792398,599619207417182145,-60.00
2025-06-26 18:39:34.792398,599619207417182145,-60.00
2025-06-26 18:39:34.792398,599619207417182145,-58.00
2025-06-26 18:39:34.792398,599619207417182145,-58.00
2025-06-26 18:39:34.792398,599619207417182145,-58.00
2025-06-26 18:39:34.792398,599619207417182145,-60.00
2025-06-26 18:39:34.792398,599619207417182145,-60.00
2025-06-26 18:39:34.792398,599619207417182145,-58.00
2025-06-26 18:39:34.792398,599619207417182145,-55.00
2025-06-26 18:39:34.792398,599619207417182145,-55.00
2025-06-26 18:39:34.792398,599619207417182145,-55.00
2025-06-26 18:39:34.792398,599619207417182145,-55.00
2025-06-26 18:39:34.792398,599619207417182145,-51.00
2025-06-26 18:39:34.792398,599619207417182145,-53.00
2025-06-26 18:39:34.792398,599619207417182145,-53.00
2025-06-26 18:39:34.792398,599619207417182145,-51.00
2025-06-26 18:39:34.792398,599619207417182145,-48.00
2025-06-26 18:39:34.792398,599619207417182145,-51.00
2025-06-26 18:39:34.792398,599619207417182145,-55.00
2025-06-26 18:39:34.792398,599619207417182145,-60.00
2025-06-26 18:39:34.792398,599619207417182145,-70.00
2025-06-26 18:39:34.792398,599619207417182145,-77.00
2025-06-26 18:39:34.792398,599619207417182145,-68.00
2025-06-26 18:39:34.792398,599619207417182145,-53.00
2025-06-26 18:39:34.792398,599619207417182145,-41.00
2025-06-26 18:39:34.792398,599619207417182145,-26.00
2025-06-26 18:39:34.792398,599619207417182145,0.00
2025-06-26 18:39:34.792398,599619207417182145,7.00
2025-06-26 18:39:34.792398,599619207417182145,-21.00
2025-06-26 18:39:34.792398,599619207417182145,-41.00
2025-06-26 18:39:34.792398,599619207417182145,-34.00
2025-06-26 18:39:34.792398,599619207417182145,-29.00
2025-06-26 18:39:34.792398,599619207417182145,-31.00
2025-06-26 18:39:34.792398,599619207417182145,-34.00
2025-06-26 18:39:34.792398,599619207417182145,-38.00
2025-06-26 18:39:35.361834,599619207977909704,-41.00
2025-06-26 18:39:35.361834,599619207977909704,-38.00
2025-06-26 18:39:35.361834,599619207977909704,-46.00
2025-06-26 18:39:35.361834,599619207977909704,-63.00
2025-06-26 18:39:35.361834,599619207977909704,19.00
2025-06-26 18:39:35.361834,599619207977909704,467.00
2025-06-26 18:39:35.361834,599619207977909704,1382.00
2025-06-26 18:39:35.361834,599619207977909704,2236.00
2025-06-26 18:39:35.361834,599619207977909704,2182.00
2025-06-26 18:39:35.361834,599619207977909704,1129.00
2025-06-26 18:39:35.361834,599619207977909704,24.00
2025-06-26 18:39:35.361834,599619207977909704,-287.00
2025-06-26 18:39:35.361834,599619207977909704,-148.00
2025-06-26 18:39:35.361834,599619207977909704,-218.00
2025-06-26 18:39:35.361834,599619207977909704,-335.00
2025-06-26 18:39:35.361834,599619207977909704,-282.00
2025-06-26 18:39:35.361834,599619207977909704,-260.00
2025-06-26 18:39:35.361834,599619207977909704,-287.00
2025-06-26 18:39:35.361834,599619207977909704,-265.00
2025-06-26 18:39:35.361834,599619207977909704,-233.00
2025-06-26 18:39:35.361834,599619207977909704,-228.00
2025-06-26 18:39:35.361834,599619207977909704,-214.00
2025-06-26 18:39:35.361834,599619207977909704,-194.00
2025-06-26 18:39:35.361834,599619207977909704,-182.00
2025-06-26 18:39:35.361834,599619207977909704,-165.00
2025-06-26 18:39:35.361834,599619207977909704,-148.00
2025-06-26 18:39:35.361834,599619207977909704,-133.00
2025-06-26 18:39:35.361834,599619207977909704,-116.00
2025-06-26 18:39:35.361834,599619207977909704,-94.00
2025-06-26 18:39:35.361834,599619207977909704,-82.00
2025-06-26 18:39:35.361834,599619207977909704,-70.00
2025-06-26 18:39:35.361834,599619207977909704,-60.00
2025-06-26 18:39:35.361834,599619207977909704,-65.00
2025-06-26 18:39:35.361834,599619207977909704,-70.00
2025-06-26 18:39:35.361834,599619207977909704,-77.00
2025-06-26 18:39:35.361834,599619207977909704,-87.00
2025-06-26 18:39:35.361834,599619207977909704,-102.00
2025-06-26 18:39:35.361834,599619207977909704,-109.00
2025-06-26 18:39:35.361834,599619207977909704,-111.00
2025-06-26 18:39:35.361834,599619207977909704,-116.00
2025-06-26 18:39:35.361834,599619207977909704,-124.00
2025-06-26 18:39:35.361834,599619207977909704,-131.00
2025-06-26 18:39:35.361834,599619207977909704,-131.00
2025-06-26 18:39:35.361834,599619207977909704,-131.00
2025-06-26 18:39:35.361834,599619207977909704,-131.00
2025-06-26 18:39:35.361834,599619207977909704,-131.00
2025-06-26 18:39:35.361834,599619207977909704,-128.00
2025-06-26 18:39:35.361834,599619207977909704,-126.00
2025-06-26 18:39:35.361834,599619207977909704,-121.00
2025-06-26 18:39:35.361834,599619207977909704,-114.00
2025-06-26 18:39:35.361834,599619207977909704,-109.00
2025-06-26 18:39:35.361834,599619207977909704,-104.00
2025-06-26 18:39:35.361834,599619207977909704,-97.00
2025-06-26 18:39:35.361834,599619207977909704,-94.00
2025-06-26 18:39:35.361834,599619207977909704,-92.00
2025-06-26 18:39:35.361834,599619207977909704,-82.00
2025-06-26 18:39:35.361834,599619207977909704,-75.00
2025-06-26 18:39:35.361834,599619207977909704,-72.00
2025-06-26 18:39:35.361834,599619207977909704,-70.00
2025-06-26 18:39:35.361834,599619207977909704,-65.00
2025-06-26 18:39:35.361834,599619207977909704,-63.00
2025-06-26 18:39:35.361834,599619207977909704,-63.00
2025-06-26 18:39:35.361834,599619207977909704,-65.00
2025-06-26 18:39:35.361834,599619207977909704,-63.00
2025-06-26 18:39:35.361834,599619207977909704,-58.00
2025-06-26 18:39:35.361834,599619207977909704,-58.00
2025-06-26 18:39:35.361834,599619207977909704,-58.00
2025-06-26 18:39:35.361834,599619207977909704,-63.00
2025-06-26 18:39:35.361834,599619207977909704,-65.00
2025-06-26 18:39:35.361834,599619207977909704,-58.00
2025-06-26 18:39:35.361834,599619207977909704,-53.00
2025-06-26 18:39:35.361834,599619207977909704,-55.00
2025-06-26 18:39:35.361834,599619207977909704,-55.00
2025-06-26 18:39:35.962305,599619208538637265,-55.00
2025-06-26 18:39:35.962305,599619208538637265,-55.00
2025-06-26 18:39:35.962305,599619208538637265,-53.00
2025-06-26 18:39:35.962305,599619208538637265,-51.00
2025-06-26 18:39:35.962305,599619208538637265,-53.00
2025-06-26 18:39:35.962305,599619208538637265,-51.00
2025-06-26 18:39:35.962305,599619208538637265,-48.00
2025-06-26 18:39:35.962305,599619208538637265,-48.00
2025-06-26 18:39:35.962305,599619208538637265,-46.00
2025-06-26 18:39:35.962305,599619208538637265,-43.00
2025-06-26 18:39:35.962305,599619208538637265,-43.00
2025-06-26 18:39:35.962305,599619208538637265,-43.00
2025-06-26 18:39:35.962305,599619208538637265,-43.00
2025-06-26 18:39:35.962305,599619208538637265,-48.00
2025-06-26 18:39:35.962305,599619208538637265,-55.00
2025-06-26 18:39:35.962305,599619208538637265,-63.00
2025-06-26 18:39:35.962305,599619208538637265,-70.00
2025-06-26 18:39:35.962305,599619208538637265,-63.00
2025-06-26 18:39:35.962305,599619208538637265,-41.00
2025-06-26 18:39:35.962305,599619208538637265,-26.00
2025-06-26 18:39:35.962305,599619208538637265,-14.00
2025-06-26 18:39:35.962305,599619208538637265,4.00
2025-06-26 18:39:35.962305,599619208538637265,2.00
2025-06-26 18:39:35.962305,599619208538637265,-21.00
2025-06-26 18:39:35.962305,599619208538637265,-38.00
2025-06-26 18:39:35.962305,599619208538637265,-36.00
2025-06-26 18:39:35.962305,599619208538637265,-24.00
2025-06-26 18:39:35.962305,599619208538637265,-24.00
2025-06-26 18:39:35.962305,599619208538637265,-31.00
2025-06-26 18:39:35.962305,599619208538637265,-31.00
2025-06-26 18:39:35.962305,599619208538637265,-29.00
2025-06-26 18:39:35.962305,599619208538637265,-36.00
2025-06-26 18:39:35.962305,599619208538637265,-51.00
2025-06-26 18:39:35.962305,599619208538637265,-58.00
2025-06-26 18:39:35.962305,599619208538637265,90.00
2025-06-26 18:39:35.962305,599619208538637265,676.00
2025-06-26 18:39:35.962305,599619208538637265,1657.00
2025-06-26 18:39:35.962305,599619208538637265,2328.00
2025-06-26 18:39:35.962305,599619208538637265,1966.00
2025-06-26 18:39:35.962305,599619208538637265,785.00
2025-06-26 18:39:35.962305,599619208538637265,-141.00
2025-06-26 18:39:35.962305,599619208538637265,-250.00
2025-06-26 18:39:35.962305,599619208538637265,-141.00
2025-06-26 18:39:35.962305,599619208538637265,-270.00
2025-06-26 18:39:35.962305,599619208538637265,-338.00
2025-06-26 18:39:35.962305,599619208538637265,-267.00
2025-06-26 18:39:35.962305,599619208538637265,-267.00
2025-06-26 18:39:35.962305,599619208538637265,-282.00
2025-06-26 18:39:35.962305,599619208538637265,-248.00
2025-06-26 18:39:35.962305,599619208538637265,-228.00
2025-06-26 18:39:35.962305,599619208538637265,-223.00
2025-06-26 18:39:35.962305,599619208538637265,-201.00
2025-06-26 18:39:35.962305,599619208538637265,-182.00
2025-06-26 18:39:35.962305,599619208538637265,-172.00
2025-06-26 18:39:35.962305,599619208538637265,-158.00
2025-06-26 18:39:35.962305,599619208538637265,-138.00
2025-06-26 18:39:35.962305,599619208538637265,-116.00
2025-06-26 18:39:35.962305,599619208538637265,-99.00
2025-06-26 18:39:35.962305,599619208538637265,-90.00
2025-06-26 18:39:35.962305,599619208538637265,-77.00
2025-06-26 18:39:35.962305,599619208538637265,-65.00
2025-06-26 18:39:35.962305,599619208538637265,-60.00
2025-06-26 18:39:35.962305,599619208538637265,-60.00
2025-06-26 18:39:35.962305,599619208538637265,-63.00
2025-06-26 18:39:35.962305,599619208538637265,-75.00
2025-06-26 18:39:35.962305,599619208538637265,-87.00
2025-06-26 18:39:35.962305,599619208538637265,-97.00
2025-06-26 18:39:35.962305,599619208538637265,-107.00
2025-06-26 18:39:35.962305,599619208538637265,-114.00
2025-06-26 18:39:35.962305,599619208538637265,-126.00
2025-06-26 18:39:35.962305,599619208538637265,-133.00
2025-06-26 18:39:35.962305,599619208538637265,-136.00
2025-06-26 18:39:35.962305,599619208538637265,-133.00
2025-06-26 18:39:36.532590,599619209099364824,-138.00
2025-06-26 18:39:36.532590,599619209099364824,-141.00
2025-06-26 18:39:36.532590,599619209099364824,-138.00
2025-06-26 18:39:36.532590,599619209099364824,-136.00
2025-06-26 18:39:36.532590,599619209099364824,-136.00
2025-06-26 18:39:36.532590,599619209099364824,-131.00
2025-06-26 18:39:36.532590,599619209099364824,-121.00
2025-06-26 18:39:36.532590,599619209099364824,-116.00
2025-06-26 18:39:36.532590,599619209099364824,-111.00
2025-06-26 18:39:36.532590,599619209099364824,-107.00
2025-06-26 18:39:36.532590,599619209099364824,-94.00
2025-06-26 18:39:36.532590,599619209099364824,-85.00
2025-06-26 18:39:36.532590,599619209099364824,-87.00
2025-06-26 18:39:36.532590,599619209099364824,-87.00
2025-06-26 18:39:36.532590,599619209099364824,-75.00
2025-06-26 18:39:36.532590,599619209099364824,-68.00
