Timestamp,Device Timestamp (ns),ECG Value (uV)
2025-06-26 18:13:54.516760,599617667096959202,-270.00
2025-06-26 18:13:54.516760,599617667096959202,-270.00
2025-06-26 18:13:54.516760,599617667096959202,-296.00
2025-06-26 18:13:54.516760,599617667096959202,-257.00
2025-06-26 18:13:54.516760,599617667096959202,-204.00
2025-06-26 18:13:54.516760,599617667096959202,-238.00
2025-06-26 18:13:54.516760,599617667096959202,-287.00
2025-06-26 18:13:54.516760,599617667096959202,-272.00
2025-06-26 18:13:54.516760,599617667096959202,-260.00
2025-06-26 18:13:54.516760,599617667096959202,-274.00
2025-06-26 18:13:54.516760,599617667096959202,-270.00
2025-06-26 18:13:54.516760,599617667096959202,-243.00
2025-06-26 18:13:54.516760,599617667096959202,-223.00
2025-06-26 18:13:54.516760,599617667096959202,-216.00
2025-06-26 18:13:54.516760,599617667096959202,-228.00
2025-06-26 18:13:54.516760,599617667096959202,-226.00
2025-06-26 18:13:54.516760,599617667096959202,-187.00
2025-06-26 18:13:54.516760,599617667096959202,-148.00
2025-06-26 18:13:54.516760,599617667096959202,-128.00
2025-06-26 18:13:54.516760,599617667096959202,-126.00
2025-06-26 18:13:54.516760,599617667096959202,-163.00
2025-06-26 18:13:54.516760,599617667096959202,-189.00
2025-06-26 18:13:54.516760,599617667096959202,-167.00
2025-06-26 18:13:54.516760,599617667096959202,-145.00
2025-06-26 18:13:54.516760,599617667096959202,-155.00
2025-06-26 18:13:54.516760,599617667096959202,-172.00
2025-06-26 18:13:54.516760,599617667096959202,-177.00
2025-06-26 18:13:54.516760,599617667096959202,-172.00
2025-06-26 18:13:54.516760,599617667096959202,-158.00
2025-06-26 18:13:54.516760,599617667096959202,-121.00
2025-06-26 18:13:54.516760,599617667096959202,-72.00
2025-06-26 18:13:54.516760,599617667096959202,-72.00
2025-06-26 18:13:54.516760,599617667096959202,-92.00
2025-06-26 18:13:54.516760,599617667096959202,-65.00
2025-06-26 18:13:54.516760,599617667096959202,-41.00
2025-06-26 18:13:54.516760,599617667096959202,-51.00
2025-06-26 18:13:54.516760,599617667096959202,-43.00
2025-06-26 18:13:54.516760,599617667096959202,-29.00
2025-06-26 18:13:54.516760,599617667096959202,-77.00
2025-06-26 18:13:54.516760,599617667096959202,-145.00
2025-06-26 18:13:54.516760,599617667096959202,-109.00
2025-06-26 18:13:54.516760,599617667096959202,-7.00
2025-06-26 18:13:54.516760,599617667096959202,-4.00
2025-06-26 18:13:54.516760,599617667096959202,-63.00
2025-06-26 18:13:54.516760,599617667096959202,-53.00
2025-06-26 18:13:54.516760,599617667096959202,0.00
2025-06-26 18:13:54.516760,599617667096959202,75.00
2025-06-26 18:13:54.516760,599617667096959202,437.00
2025-06-26 18:13:54.516760,599617667096959202,1275.00
2025-06-26 18:13:54.516760,599617667096959202,2082.00
2025-06-26 18:13:54.516760,599617667096959202,2051.00
2025-06-26 18:13:54.516760,599617667096959202,1056.00
2025-06-26 18:13:54.516760,599617667096959202,-38.00
2025-06-26 18:13:54.516760,599617667096959202,-338.00
2025-06-26 18:13:54.516760,599617667096959202,-194.00
2025-06-26 18:13:54.516760,599617667096959202,-287.00
2025-06-26 18:13:54.516760,599617667096959202,-379.00
2025-06-26 18:13:54.516760,599617667096959202,-287.00
2025-06-26 18:13:54.516760,599617667096959202,-284.00
2025-06-26 18:13:54.516760,599617667096959202,-355.00
2025-06-26 18:13:54.516760,599617667096959202,-321.00
2025-06-26 18:13:54.516760,599617667096959202,-231.00
2025-06-26 18:13:54.516760,599617667096959202,-211.00
2025-06-26 18:13:54.516760,599617667096959202,-233.00
2025-06-26 18:13:54.516760,599617667096959202,-209.00
2025-06-26 18:13:54.516760,599617667096959202,-187.00
2025-06-26 18:13:54.516760,599617667096959202,-209.00
2025-06-26 18:13:54.516760,599617667096959202,-221.00
2025-06-26 18:13:54.516760,599617667096959202,-192.00
2025-06-26 18:13:54.516760,599617667096959202,-141.00
2025-06-26 18:13:54.516760,599617667096959202,-116.00
2025-06-26 18:13:54.516760,599617667096959202,-145.00
2025-06-26 18:13:54.516760,599617667096959202,-167.00
2025-06-26 18:13:55.118406,599617667657686763,-160.00
2025-06-26 18:13:55.118406,599617667657686763,-155.00
2025-06-26 18:13:55.118406,599617667657686763,-167.00
2025-06-26 18:13:55.118406,599617667657686763,-175.00
2025-06-26 18:13:55.118406,599617667657686763,-165.00
2025-06-26 18:13:55.118406,599617667657686763,-155.00
2025-06-26 18:13:55.118406,599617667657686763,-145.00
2025-06-26 18:13:55.118406,599617667657686763,-136.00
2025-06-26 18:13:55.118406,599617667657686763,-128.00
2025-06-26 18:13:55.118406,599617667657686763,-131.00
2025-06-26 18:13:55.118406,599617667657686763,-136.00
2025-06-26 18:13:55.118406,599617667657686763,-121.00
2025-06-26 18:13:55.118406,599617667657686763,-102.00
2025-06-26 18:13:55.118406,599617667657686763,-109.00
2025-06-26 18:13:55.118406,599617667657686763,-131.00
2025-06-26 18:13:55.118406,599617667657686763,-114.00
2025-06-26 18:13:55.118406,599617667657686763,-77.00
2025-06-26 18:13:55.118406,599617667657686763,-107.00
2025-06-26 18:13:55.118406,599617667657686763,-138.00
2025-06-26 18:13:55.118406,599617667657686763,-80.00
2025-06-26 18:13:55.118406,599617667657686763,-21.00
2025-06-26 18:13:55.118406,599617667657686763,-41.00
2025-06-26 18:13:55.118406,599617667657686763,-77.00
2025-06-26 18:13:55.118406,599617667657686763,-48.00
2025-06-26 18:13:55.118406,599617667657686763,-46.00
2025-06-26 18:13:55.118406,599617667657686763,-94.00
2025-06-26 18:13:55.118406,599617667657686763,-87.00
2025-06-26 18:13:55.118406,599617667657686763,-58.00
2025-06-26 18:13:55.118406,599617667657686763,-55.00
2025-06-26 18:13:55.118406,599617667657686763,-38.00
2025-06-26 18:13:55.118406,599617667657686763,-21.00
2025-06-26 18:13:55.118406,599617667657686763,-41.00
2025-06-26 18:13:55.118406,599617667657686763,-51.00
2025-06-26 18:13:55.118406,599617667657686763,-34.00
2025-06-26 18:13:55.118406,599617667657686763,-21.00
2025-06-26 18:13:55.118406,599617667657686763,-34.00
2025-06-26 18:13:55.118406,599617667657686763,-46.00
2025-06-26 18:13:55.118406,599617667657686763,-31.00
2025-06-26 18:13:55.118406,599617667657686763,-31.00
2025-06-26 18:13:55.118406,599617667657686763,-46.00
2025-06-26 18:13:55.118406,599617667657686763,-29.00
2025-06-26 18:13:55.118406,599617667657686763,145.00
2025-06-26 18:13:55.118406,599617667657686763,722.00
2025-06-26 18:13:55.118406,599617667657686763,1669.00
2025-06-26 18:13:55.118406,599617667657686763,2248.00
2025-06-26 18:13:55.118406,599617667657686763,1720.00
2025-06-26 18:13:55.118406,599617667657686763,493.00
2025-06-26 18:13:55.118406,599617667657686763,-250.00
2025-06-26 18:13:55.118406,599617667657686763,-233.00
2025-06-26 18:13:55.118406,599617667657686763,-192.00
2025-06-26 18:13:55.118406,599617667657686763,-350.00
2025-06-26 18:13:55.118406,599617667657686763,-350.00
2025-06-26 18:13:55.118406,599617667657686763,-250.00
2025-06-26 18:13:55.118406,599617667657686763,-270.00
2025-06-26 18:13:55.118406,599617667657686763,-301.00
2025-06-26 18:13:55.118406,599617667657686763,-270.00
2025-06-26 18:13:55.118406,599617667657686763,-255.00
2025-06-26 18:13:55.118406,599617667657686763,-272.00
2025-06-26 18:13:55.118406,599617667657686763,-270.00
2025-06-26 18:13:55.118406,599617667657686763,-211.00
2025-06-26 18:13:55.118406,599617667657686763,-150.00
2025-06-26 18:13:55.118406,599617667657686763,-175.00
2025-06-26 18:13:55.118406,599617667657686763,-206.00
2025-06-26 18:13:55.118406,599617667657686763,-189.00
2025-06-26 18:13:55.118406,599617667657686763,-170.00
2025-06-26 18:13:55.118406,599617667657686763,-148.00
2025-06-26 18:13:55.118406,599617667657686763,-155.00
2025-06-26 18:13:55.118406,599617667657686763,-197.00
2025-06-26 18:13:55.118406,599617667657686763,-209.00
2025-06-26 18:13:55.118406,599617667657686763,-175.00
2025-06-26 18:13:55.118406,599617667657686763,-145.00
2025-06-26 18:13:55.118406,599617667657686763,-167.00
2025-06-26 18:13:55.118406,599617667657686763,-167.00
2025-06-26 18:13:55.657179,599617668218383804,-131.00
2025-06-26 18:13:55.657179,599617668218383804,-116.00
2025-06-26 18:13:55.657179,599617668218383804,-124.00
2025-06-26 18:13:55.657179,599617668218383804,-116.00
2025-06-26 18:13:55.657179,599617668218383804,-121.00
2025-06-26 18:13:55.657179,599617668218383804,-128.00
2025-06-26 18:13:55.657179,599617668218383804,-107.00
2025-06-26 18:13:55.657179,599617668218383804,-92.00
2025-06-26 18:13:55.657179,599617668218383804,-111.00
2025-06-26 18:13:55.657179,599617668218383804,-97.00
2025-06-26 18:13:55.657179,599617668218383804,-43.00
2025-06-26 18:13:55.657179,599617668218383804,-51.00
2025-06-26 18:13:55.657179,599617668218383804,-80.00
2025-06-26 18:13:55.657179,599617668218383804,-58.00
2025-06-26 18:13:55.657179,599617668218383804,-63.00
2025-06-26 18:13:55.657179,599617668218383804,-77.00
2025-06-26 18:13:55.657179,599617668218383804,-36.00
2025-06-26 18:13:55.657179,599617668218383804,-12.00
2025-06-26 18:13:55.657179,599617668218383804,-48.00
2025-06-26 18:13:55.657179,599617668218383804,-75.00
2025-06-26 18:13:55.657179,599617668218383804,-58.00
2025-06-26 18:13:55.657179,599617668218383804,-46.00
2025-06-26 18:13:55.657179,599617668218383804,-60.00
2025-06-26 18:13:55.657179,599617668218383804,-43.00
2025-06-26 18:13:55.657179,599617668218383804,-9.00
2025-06-26 18:13:55.657179,599617668218383804,-2.00
2025-06-26 18:13:55.657179,599617668218383804,12.00
2025-06-26 18:13:55.657179,599617668218383804,12.00
2025-06-26 18:13:55.657179,599617668218383804,-21.00
2025-06-26 18:13:55.657179,599617668218383804,-41.00
2025-06-26 18:13:55.657179,599617668218383804,-34.00
2025-06-26 18:13:55.657179,599617668218383804,-36.00
2025-06-26 18:13:55.657179,599617668218383804,-46.00
2025-06-26 18:13:55.657179,599617668218383804,-26.00
2025-06-26 18:13:55.657179,599617668218383804,-2.00
2025-06-26 18:13:55.657179,599617668218383804,-12.00
2025-06-26 18:13:55.657179,599617668218383804,-19.00
2025-06-26 18:13:55.657179,599617668218383804,68.00
2025-06-26 18:13:55.657179,599617668218383804,457.00
2025-06-26 18:13:55.657179,599617668218383804,1311.00
2025-06-26 18:13:55.657179,599617668218383804,2155.00
2025-06-26 18:13:55.657179,599617668218383804,2073.00
2025-06-26 18:13:55.657179,599617668218383804,985.00
2025-06-26 18:13:55.657179,599617668218383804,-31.00
2025-06-26 18:13:55.657179,599617668218383804,-228.00
2025-06-26 18:13:55.657179,599617668218383804,-102.00
2025-06-26 18:13:55.657179,599617668218383804,-197.00
2025-06-26 18:13:55.657179,599617668218383804,-277.00
2025-06-26 18:13:55.657179,599617668218383804,-214.00
2025-06-26 18:13:55.657179,599617668218383804,-204.00
2025-06-26 18:13:55.657179,599617668218383804,-223.00
2025-06-26 18:13:55.657179,599617668218383804,-197.00
2025-06-26 18:13:55.657179,599617668218383804,-175.00
2025-06-26 18:13:55.657179,599617668218383804,-170.00
2025-06-26 18:13:55.657179,599617668218383804,-153.00
2025-06-26 18:13:55.657179,599617668218383804,-138.00
2025-06-26 18:13:55.657179,599617668218383804,-131.00
2025-06-26 18:13:55.657179,599617668218383804,-116.00
2025-06-26 18:13:55.657179,599617668218383804,-99.00
2025-06-26 18:13:55.657179,599617668218383804,-87.00
2025-06-26 18:13:55.657179,599617668218383804,-82.00
2025-06-26 18:13:55.657179,599617668218383804,-82.00
2025-06-26 18:13:55.657179,599617668218383804,-87.00
2025-06-26 18:13:55.657179,599617668218383804,-97.00
2025-06-26 18:13:55.657179,599617668218383804,-107.00
2025-06-26 18:13:55.657179,599617668218383804,-109.00
2025-06-26 18:13:55.657179,599617668218383804,-107.00
2025-06-26 18:13:55.657179,599617668218383804,-111.00
2025-06-26 18:13:55.657179,599617668218383804,-119.00
2025-06-26 18:13:55.657179,599617668218383804,-104.00
2025-06-26 18:13:55.657179,599617668218383804,-77.00
2025-06-26 18:13:55.657179,599617668218383804,-72.00
2025-06-26 18:13:55.657179,599617668218383804,-72.00
2025-06-26 18:13:56.197914,599617668779080845,-70.00
2025-06-26 18:13:56.197914,599617668779080845,-65.00
2025-06-26 18:13:56.197914,599617668779080845,-65.00
2025-06-26 18:13:56.197914,599617668779080845,-72.00
2025-06-26 18:13:56.197914,599617668779080845,-75.00
2025-06-26 18:13:56.197914,599617668779080845,-68.00
2025-06-26 18:13:56.197914,599617668779080845,-63.00
2025-06-26 18:13:56.197914,599617668779080845,-58.00
2025-06-26 18:13:56.197914,599617668779080845,-53.00
2025-06-26 18:13:56.197914,599617668779080845,-48.00
2025-06-26 18:13:56.197914,599617668779080845,-46.00
2025-06-26 18:13:56.197914,599617668779080845,-43.00
2025-06-26 18:13:56.197914,599617668779080845,-41.00
2025-06-26 18:13:56.197914,599617668779080845,-38.00
2025-06-26 18:13:56.197914,599617668779080845,-43.00
2025-06-26 18:13:56.197914,599617668779080845,-55.00
2025-06-26 18:13:56.197914,599617668779080845,-60.00
2025-06-26 18:13:56.197914,599617668779080845,-58.00
2025-06-26 18:13:56.197914,599617668779080845,-60.00
2025-06-26 18:13:56.197914,599617668779080845,-58.00
2025-06-26 18:13:56.197914,599617668779080845,-51.00
2025-06-26 18:13:56.197914,599617668779080845,-34.00
2025-06-26 18:13:56.197914,599617668779080845,-7.00
2025-06-26 18:13:56.197914,599617668779080845,-2.00
2025-06-26 18:13:56.197914,599617668779080845,-29.00
2025-06-26 18:13:56.197914,599617668779080845,-53.00
2025-06-26 18:13:56.197914,599617668779080845,-51.00
2025-06-26 18:13:56.197914,599617668779080845,-43.00
2025-06-26 18:13:56.197914,599617668779080845,-43.00
2025-06-26 18:13:56.197914,599617668779080845,-43.00
2025-06-26 18:13:56.197914,599617668779080845,-43.00
2025-06-26 18:13:56.197914,599617668779080845,-41.00
2025-06-26 18:13:56.197914,599617668779080845,-38.00
2025-06-26 18:13:56.197914,599617668779080845,14.00
2025-06-26 18:13:56.197914,599617668779080845,357.00
2025-06-26 18:13:56.197914,599617668779080845,1194.00
2025-06-26 18:13:56.197914,599617668779080845,2075.00
2025-06-26 18:13:56.197914,599617668779080845,2082.00
2025-06-26 18:13:56.197914,599617668779080845,1043.00
2025-06-26 18:13:56.197914,599617668779080845,-36.00
2025-06-26 18:13:56.197914,599617668779080845,-304.00
2025-06-26 18:13:56.197914,599617668779080845,-163.00
2025-06-26 18:13:56.197914,599617668779080845,-245.00
2025-06-26 18:13:56.197914,599617668779080845,-350.00
2025-06-26 18:13:56.197914,599617668779080845,-287.00
2025-06-26 18:13:56.197914,599617668779080845,-270.00
2025-06-26 18:13:56.197914,599617668779080845,-296.00
2025-06-26 18:13:56.197914,599617668779080845,-272.00
2025-06-26 18:13:56.197914,599617668779080845,-245.00
2025-06-26 18:13:56.197914,599617668779080845,-245.00
2025-06-26 18:13:56.197914,599617668779080845,-233.00
2025-06-26 18:13:56.197914,599617668779080845,-214.00
2025-06-26 18:13:56.197914,599617668779080845,-201.00
2025-06-26 18:13:56.197914,599617668779080845,-192.00
2025-06-26 18:13:56.197914,599617668779080845,-177.00
2025-06-26 18:13:56.197914,599617668779080845,-167.00
2025-06-26 18:13:56.197914,599617668779080845,-163.00
2025-06-26 18:13:56.197914,599617668779080845,-158.00
2025-06-26 18:13:56.197914,599617668779080845,-158.00
2025-06-26 18:13:56.197914,599617668779080845,-163.00
2025-06-26 18:13:56.197914,599617668779080845,-170.00
2025-06-26 18:13:56.197914,599617668779080845,-177.00
2025-06-26 18:13:56.197914,599617668779080845,-184.00
2025-06-26 18:13:56.197914,599617668779080845,-182.00
2025-06-26 18:13:56.197914,599617668779080845,-172.00
2025-06-26 18:13:56.197914,599617668779080845,-158.00
2025-06-26 18:13:56.197914,599617668779080845,-138.00
2025-06-26 18:13:56.197914,599617668779080845,-126.00
2025-06-26 18:13:56.197914,599617668779080845,-119.00
2025-06-26 18:13:56.197914,599617668779080845,-111.00
2025-06-26 18:13:56.197914,599617668779080845,-107.00
2025-06-26 18:13:56.197914,599617668779080845,-107.00
2025-06-26 18:13:56.197914,599617668779080845,-104.00
2025-06-26 18:13:56.785347,599617669339777886,-102.00
2025-06-26 18:13:56.785347,599617669339777886,-94.00
2025-06-26 18:13:56.785347,599617669339777886,-90.00
2025-06-26 18:13:56.785347,599617669339777886,-85.00
2025-06-26 18:13:56.785347,599617669339777886,-77.00
2025-06-26 18:13:56.785347,599617669339777886,-70.00
2025-06-26 18:13:56.785347,599617669339777886,-63.00
2025-06-26 18:13:56.785347,599617669339777886,-58.00
2025-06-26 18:13:56.785347,599617669339777886,-58.00
2025-06-26 18:13:56.785347,599617669339777886,-55.00
2025-06-26 18:13:56.785347,599617669339777886,-55.00
2025-06-26 18:13:56.785347,599617669339777886,-60.00
2025-06-26 18:13:56.785347,599617669339777886,-65.00
2025-06-26 18:13:56.785347,599617669339777886,-72.00
2025-06-26 18:13:56.785347,599617669339777886,-82.00
2025-06-26 18:13:56.785347,599617669339777886,-77.00
2025-06-26 18:13:56.785347,599617669339777886,-70.00
2025-06-26 18:13:56.785347,599617669339777886,-63.00
2025-06-26 18:13:56.785347,599617669339777886,-41.00
2025-06-26 18:13:56.785347,599617669339777886,-12.00
2025-06-26 18:13:56.785347,599617669339777886,-14.00
2025-06-26 18:13:56.785347,599617669339777886,-43.00
2025-06-26 18:13:56.785347,599617669339777886,-60.00
2025-06-26 18:13:56.785347,599617669339777886,-53.00
2025-06-26 18:13:56.785347,599617669339777886,-46.00
2025-06-26 18:13:56.785347,599617669339777886,-48.00
2025-06-26 18:13:56.785347,599617669339777886,-51.00
2025-06-26 18:13:56.785347,599617669339777886,-53.00
2025-06-26 18:13:56.785347,599617669339777886,-46.00
2025-06-26 18:13:56.785347,599617669339777886,-34.00
2025-06-26 18:13:56.785347,599617669339777886,68.00
2025-06-26 18:13:56.785347,599617669339777886,520.00
2025-06-26 18:13:56.785347,599617669339777886,1411.00
2025-06-26 18:13:56.785347,599617669339777886,2158.00
2025-06-26 18:13:56.785347,599617669339777886,1914.00
2025-06-26 18:13:56.785347,599617669339777886,778.00
2025-06-26 18:13:56.785347,599617669339777886,-160.00
2025-06-26 18:13:56.785347,599617669339777886,-284.00
2025-06-26 18:13:56.785347,599617669339777886,-163.00
2025-06-26 18:13:56.785347,599617669339777886,-279.00
2025-06-26 18:13:56.785347,599617669339777886,-345.00
2025-06-26 18:13:56.785347,599617669339777886,-277.00
2025-06-26 18:13:56.785347,599617669339777886,-274.00
2025-06-26 18:13:56.785347,599617669339777886,-294.00
2025-06-26 18:13:56.785347,599617669339777886,-265.00
2025-06-26 18:13:56.785347,599617669339777886,-245.00
2025-06-26 18:13:56.785347,599617669339777886,-240.00
2025-06-26 18:13:56.785347,599617669339777886,-223.00
2025-06-26 18:13:56.785347,599617669339777886,-206.00
2025-06-26 18:13:56.785347,599617669339777886,-197.00
2025-06-26 18:13:56.785347,599617669339777886,-182.00
2025-06-26 18:13:56.785347,599617669339777886,-170.00
2025-06-26 18:13:56.785347,599617669339777886,-160.00
2025-06-26 18:13:56.785347,599617669339777886,-153.00
2025-06-26 18:13:56.785347,599617669339777886,-145.00
2025-06-26 18:13:56.785347,599617669339777886,-145.00
2025-06-26 18:13:56.785347,599617669339777886,-148.00
2025-06-26 18:13:56.785347,599617669339777886,-155.00
2025-06-26 18:13:56.785347,599617669339777886,-163.00
2025-06-26 18:13:56.785347,599617669339777886,-167.00
2025-06-26 18:13:56.785347,599617669339777886,-167.00
2025-06-26 18:13:56.785347,599617669339777886,-158.00
2025-06-26 18:13:56.785347,599617669339777886,-148.00
2025-06-26 18:13:56.785347,599617669339777886,-136.00
2025-06-26 18:13:56.785347,599617669339777886,-128.00
2025-06-26 18:13:56.785347,599617669339777886,-124.00
2025-06-26 18:13:56.785347,599617669339777886,-116.00
2025-06-26 18:13:56.785347,599617669339777886,-111.00
2025-06-26 18:13:56.785347,599617669339777886,-111.00
2025-06-26 18:13:56.785347,599617669339777886,-109.00
2025-06-26 18:13:56.785347,599617669339777886,-104.00
2025-06-26 18:13:56.785347,599617669339777886,-97.00
2025-06-26 18:13:56.785347,599617669339777886,-90.00
2025-06-26 18:13:57.307573,599617669900500357,-82.00
2025-06-26 18:13:57.307573,599617669900500357,-77.00
2025-06-26 18:13:57.307573,599617669900500357,-72.00
2025-06-26 18:13:57.307573,599617669900500357,-68.00
2025-06-26 18:13:57.307573,599617669900500357,-63.00
2025-06-26 18:13:57.307573,599617669900500357,-60.00
2025-06-26 18:13:57.307573,599617669900500357,-60.00
2025-06-26 18:13:57.307573,599617669900500357,-60.00
2025-06-26 18:13:57.307573,599617669900500357,-63.00
2025-06-26 18:13:57.307573,599617669900500357,-72.00
2025-06-26 18:13:57.307573,599617669900500357,-77.00
2025-06-26 18:13:57.307573,599617669900500357,-70.00
2025-06-26 18:13:57.307573,599617669900500357,-65.00
2025-06-26 18:13:57.307573,599617669900500357,-58.00
2025-06-26 18:13:57.307573,599617669900500357,-31.00
2025-06-26 18:13:57.307573,599617669900500357,-4.00
2025-06-26 18:13:57.307573,599617669900500357,-14.00
2025-06-26 18:13:57.307573,599617669900500357,-43.00
2025-06-26 18:13:57.307573,599617669900500357,-55.00
2025-06-26 18:13:57.307573,599617669900500357,-46.00
2025-06-26 18:13:57.307573,599617669900500357,-43.00
2025-06-26 18:13:57.307573,599617669900500357,-48.00
2025-06-26 18:13:57.307573,599617669900500357,-48.00
2025-06-26 18:13:57.307573,599617669900500357,-46.00
2025-06-26 18:13:57.307573,599617669900500357,-41.00
2025-06-26 18:13:57.307573,599617669900500357,-29.00
2025-06-26 18:13:57.307573,599617669900500357,128.00
2025-06-26 18:13:57.307573,599617669900500357,710.00
2025-06-26 18:13:57.307573,599617669900500357,1632.00
2025-06-26 18:13:57.307573,599617669900500357,2146.00
2025-06-26 18:13:57.307573,599617669900500357,1596.00
2025-06-26 18:13:57.307573,599617669900500357,428.00
2025-06-26 18:13:57.307573,599617669900500357,-265.00
2025-06-26 18:13:57.307573,599617669900500357,-226.00
2025-06-26 18:13:57.307573,599617669900500357,-167.00
2025-06-26 18:13:57.307573,599617669900500357,-309.00
2025-06-26 18:13:57.307573,599617669900500357,-321.00
2025-06-26 18:13:57.307573,599617669900500357,-260.00
2025-06-26 18:13:57.307573,599617669900500357,-279.00
2025-06-26 18:13:57.307573,599617669900500357,-284.00
2025-06-26 18:13:57.307573,599617669900500357,-253.00
2025-06-26 18:13:57.307573,599617669900500357,-243.00
2025-06-26 18:13:57.307573,599617669900500357,-238.00
2025-06-26 18:13:57.307573,599617669900500357,-216.00
2025-06-26 18:13:57.307573,599617669900500357,-201.00
2025-06-26 18:13:57.307573,599617669900500357,-194.00
2025-06-26 18:13:57.307573,599617669900500357,-182.00
2025-06-26 18:13:57.307573,599617669900500357,-167.00
2025-06-26 18:13:57.307573,599617669900500357,-158.00
2025-06-26 18:13:57.307573,599617669900500357,-153.00
2025-06-26 18:13:57.307573,599617669900500357,-150.00
2025-06-26 18:13:57.307573,599617669900500357,-150.00
2025-06-26 18:13:57.307573,599617669900500357,-153.00
2025-06-26 18:13:57.307573,599617669900500357,-163.00
2025-06-26 18:13:57.307573,599617669900500357,-170.00
2025-06-26 18:13:57.307573,599617669900500357,-175.00
2025-06-26 18:13:57.307573,599617669900500357,-172.00
2025-06-26 18:13:57.307573,599617669900500357,-165.00
2025-06-26 18:13:57.307573,599617669900500357,-150.00
2025-06-26 18:13:57.307573,599617669900500357,-141.00
2025-06-26 18:13:57.307573,599617669900500357,-136.00
2025-06-26 18:13:57.307573,599617669900500357,-131.00
2025-06-26 18:13:57.307573,599617669900500357,-126.00
2025-06-26 18:13:57.307573,599617669900500357,-121.00
2025-06-26 18:13:57.307573,599617669900500357,-121.00
2025-06-26 18:13:57.307573,599617669900500357,-119.00
2025-06-26 18:13:57.307573,599617669900500357,-119.00
2025-06-26 18:13:57.307573,599617669900500357,-116.00
2025-06-26 18:13:57.307573,599617669900500357,-107.00
2025-06-26 18:13:57.307573,599617669900500357,-99.00
2025-06-26 18:13:57.307573,599617669900500357,-99.00
2025-06-26 18:13:57.307573,599617669900500357,-97.00
2025-06-26 18:13:57.307573,599617669900500357,-90.00
2025-06-26 18:13:57.998765,599617670461202486,-87.00
2025-06-26 18:13:57.998765,599617670461202486,-90.00
2025-06-26 18:13:57.998765,599617670461202486,-92.00
2025-06-26 18:13:57.998765,599617670461202486,-92.00
2025-06-26 18:13:57.998765,599617670461202486,-99.00
2025-06-26 18:13:57.998765,599617670461202486,-107.00
2025-06-26 18:13:57.998765,599617670461202486,-99.00
2025-06-26 18:13:57.998765,599617670461202486,-94.00
2025-06-26 18:13:57.998765,599617670461202486,-87.00
2025-06-26 18:13:57.998765,599617670461202486,-63.00
2025-06-26 18:13:57.998765,599617670461202486,-38.00
2025-06-26 18:13:57.998765,599617670461202486,-48.00
2025-06-26 18:13:57.998765,599617670461202486,-77.00
2025-06-26 18:13:57.998765,599617670461202486,-92.00
2025-06-26 18:13:57.998765,599617670461202486,-85.00
2025-06-26 18:13:57.998765,599617670461202486,-80.00
2025-06-26 18:13:57.998765,599617670461202486,-82.00
2025-06-26 18:13:57.998765,599617670461202486,-82.00
2025-06-26 18:13:57.998765,599617670461202486,-82.00
2025-06-26 18:13:57.998765,599617670461202486,-80.00
2025-06-26 18:13:57.998765,599617670461202486,-68.00
2025-06-26 18:13:57.998765,599617670461202486,90.00
2025-06-26 18:13:57.998765,599617670461202486,664.00
2025-06-26 18:13:57.998765,599617670461202486,1562.00
2025-06-26 18:13:57.998765,599617670461202486,2051.00
2025-06-26 18:13:57.998765,599617670461202486,1511.00
2025-06-26 18:13:57.998765,599617670461202486,372.00
2025-06-26 18:13:57.998765,599617670461202486,-301.00
2025-06-26 18:13:57.998765,599617670461202486,-260.00
2025-06-26 18:13:57.998765,599617670461202486,-211.00
2025-06-26 18:13:57.998765,599617670461202486,-360.00
2025-06-26 18:13:57.998765,599617670461202486,-372.00
2025-06-26 18:13:57.998765,599617670461202486,-309.00
2025-06-26 18:13:57.998765,599617670461202486,-330.00
2025-06-26 18:13:57.998765,599617670461202486,-335.00
2025-06-26 18:13:57.998765,599617670461202486,-301.00
2025-06-26 18:13:57.998765,599617670461202486,-287.00
2025-06-26 18:13:57.998765,599617670461202486,-279.00
2025-06-26 18:13:57.998765,599617670461202486,-260.00
2025-06-26 18:13:57.998765,599617670461202486,-245.00
2025-06-26 18:13:57.998765,599617670461202486,-233.00
2025-06-26 18:13:57.998765,599617670461202486,-218.00
2025-06-26 18:13:57.998765,599617670461202486,-199.00
2025-06-26 18:13:57.998765,599617670461202486,-189.00
2025-06-26 18:13:57.998765,599617670461202486,-184.00
2025-06-26 18:13:57.998765,599617670461202486,-184.00
2025-06-26 18:13:57.998765,599617670461202486,-184.00
2025-06-26 18:13:57.998765,599617670461202486,-192.00
2025-06-26 18:13:57.998765,599617670461202486,-201.00
2025-06-26 18:13:57.998765,599617670461202486,-206.00
2025-06-26 18:13:57.998765,599617670461202486,-214.00
2025-06-26 18:13:57.998765,599617670461202486,-211.00
2025-06-26 18:13:57.998765,599617670461202486,-201.00
2025-06-26 18:13:57.998765,599617670461202486,-192.00
2025-06-26 18:13:57.998765,599617670461202486,-184.00
2025-06-26 18:13:57.998765,599617670461202486,-175.00
2025-06-26 18:13:57.998765,599617670461202486,-165.00
2025-06-26 18:13:57.998765,599617670461202486,-163.00
2025-06-26 18:13:57.998765,599617670461202486,-167.00
2025-06-26 18:13:57.998765,599617670461202486,-167.00
2025-06-26 18:13:57.998765,599617670461202486,-163.00
2025-06-26 18:13:57.998765,599617670461202486,-163.00
2025-06-26 18:13:57.998765,599617670461202486,-160.00
2025-06-26 18:13:57.998765,599617670461202486,-153.00
2025-06-26 18:13:57.998765,599617670461202486,-143.00
2025-06-26 18:13:57.998765,599617670461202486,-136.00
2025-06-26 18:13:57.998765,599617670461202486,-131.00
2025-06-26 18:13:57.998765,599617670461202486,-121.00
2025-06-26 18:13:57.998765,599617670461202486,-114.00
2025-06-26 18:13:57.998765,599617670461202486,-116.00
2025-06-26 18:13:57.998765,599617670461202486,-114.00
2025-06-26 18:13:57.998765,599617670461202486,-116.00
2025-06-26 18:13:57.998765,599617670461202486,-119.00
2025-06-26 18:13:58.478538,599617671021899529,-114.00
2025-06-26 18:13:58.478538,599617671021899529,-111.00
2025-06-26 18:13:58.478538,599617671021899529,-111.00
2025-06-26 18:13:58.478538,599617671021899529,-92.00
2025-06-26 18:13:58.478538,599617671021899529,-58.00
2025-06-26 18:13:58.478538,599617671021899529,-55.00
2025-06-26 18:13:58.478538,599617671021899529,-82.00
2025-06-26 18:13:58.478538,599617671021899529,-107.00
2025-06-26 18:13:58.478538,599617671021899529,-104.00
2025-06-26 18:13:58.478538,599617671021899529,-97.00
2025-06-26 18:13:58.478538,599617671021899529,-97.00
2025-06-26 18:13:58.478538,599617671021899529,-99.00
2025-06-26 18:13:58.478538,599617671021899529,-99.00
2025-06-26 18:13:58.478538,599617671021899529,-94.00
2025-06-26 18:13:58.478538,599617671021899529,-87.00
2025-06-26 18:13:58.478538,599617671021899529,-12.00
2025-06-26 18:13:58.478538,599617671021899529,355.00
2025-06-26 18:13:58.478538,599617671021899529,1119.00
2025-06-26 18:13:58.478538,599617671021899529,1822.00
2025-06-26 18:13:58.478538,599617671021899529,1713.00
2025-06-26 18:13:58.478538,599617671021899529,764.00
2025-06-26 18:13:58.478538,599617671021899529,-136.00
2025-06-26 18:13:58.478538,599617671021899529,-309.00
2025-06-26 18:13:58.478538,599617671021899529,-167.00
2025-06-26 18:13:58.478538,599617671021899529,-262.00
2025-06-26 18:13:58.478538,599617671021899529,-360.00
2025-06-26 18:13:58.478538,599617671021899529,-294.00
2025-06-26 18:13:58.478538,599617671021899529,-284.00
2025-06-26 18:13:58.478538,599617671021899529,-311.00
2025-06-26 18:13:58.478538,599617671021899529,-284.00
2025-06-26 18:13:58.478538,599617671021899529,-260.00
2025-06-26 18:13:58.478538,599617671021899529,-260.00
2025-06-26 18:13:58.478538,599617671021899529,-245.00
2025-06-26 18:13:58.478538,599617671021899529,-226.00
2025-06-26 18:13:58.478538,599617671021899529,-218.00
2025-06-26 18:13:58.478538,599617671021899529,-204.00
2025-06-26 18:13:58.478538,599617671021899529,-189.00
2025-06-26 18:13:58.478538,599617671021899529,-182.00
2025-06-26 18:13:58.478538,599617671021899529,-170.00
2025-06-26 18:13:58.478538,599617671021899529,-160.00
2025-06-26 18:13:58.478538,599617671021899529,-170.00
2025-06-26 18:13:58.478538,599617671021899529,-177.00
2025-06-26 18:13:58.478538,599617671021899529,-180.00
2025-06-26 18:13:58.478538,599617671021899529,-187.00
2025-06-26 18:13:58.478538,599617671021899529,-197.00
2025-06-26 18:13:58.478538,599617671021899529,-194.00
2025-06-26 18:13:58.478538,599617671021899529,-184.00
2025-06-26 18:13:58.478538,599617671021899529,-172.00
2025-06-26 18:13:58.478538,599617671021899529,-158.00
2025-06-26 18:13:58.478538,599617671021899529,-148.00
2025-06-26 18:13:58.478538,599617671021899529,-141.00
2025-06-26 18:13:58.478538,599617671021899529,-136.00
2025-06-26 18:13:58.478538,599617671021899529,-133.00
2025-06-26 18:13:58.478538,599617671021899529,-131.00
2025-06-26 18:13:58.478538,599617671021899529,-128.00
2025-06-26 18:13:58.478538,599617671021899529,-126.00
2025-06-26 18:13:58.478538,599617671021899529,-124.00
2025-06-26 18:13:58.478538,599617671021899529,-119.00
2025-06-26 18:13:58.478538,599617671021899529,-116.00
2025-06-26 18:13:58.478538,599617671021899529,-109.00
2025-06-26 18:13:58.478538,599617671021899529,-99.00
2025-06-26 18:13:58.478538,599617671021899529,-94.00
2025-06-26 18:13:58.478538,599617671021899529,-94.00
2025-06-26 18:13:58.478538,599617671021899529,-87.00
2025-06-26 18:13:58.478538,599617671021899529,-80.00
2025-06-26 18:13:58.478538,599617671021899529,-80.00
2025-06-26 18:13:58.478538,599617671021899529,-92.00
2025-06-26 18:13:58.478538,599617671021899529,-90.00
2025-06-26 18:13:58.478538,599617671021899529,-80.00
2025-06-26 18:13:58.478538,599617671021899529,-77.00
2025-06-26 18:13:58.478538,599617671021899529,-68.00
2025-06-26 18:13:58.478538,599617671021899529,-38.00
2025-06-26 18:13:58.478538,599617671021899529,-19.00
2025-06-26 18:13:59.047377,599617671582596570,-43.00
2025-06-26 18:13:59.047377,599617671582596570,-75.00
2025-06-26 18:13:59.047377,599617671582596570,-75.00
2025-06-26 18:13:59.047377,599617671582596570,-68.00
2025-06-26 18:13:59.047377,599617671582596570,-70.00
2025-06-26 18:13:59.047377,599617671582596570,-75.00
2025-06-26 18:13:59.047377,599617671582596570,-72.00
2025-06-26 18:13:59.047377,599617671582596570,-72.00
2025-06-26 18:13:59.047377,599617671582596570,-72.00
2025-06-26 18:13:59.047377,599617671582596570,-48.00
2025-06-26 18:13:59.047377,599617671582596570,165.00
2025-06-26 18:13:59.047377,599617671582596570,815.00
2025-06-26 18:13:59.047377,599617671582596570,1705.00
2025-06-26 18:13:59.047377,599617671582596570,2039.00
2025-06-26 18:13:59.047377,599617671582596570,1355.00
2025-06-26 18:13:59.047377,599617671582596570,260.00
2025-06-26 18:13:59.047377,599617671582596570,-287.00
2025-06-26 18:13:59.047377,599617671582596570,-223.00
2025-06-26 18:13:59.047377,599617671582596570,-206.00
2025-06-26 18:13:59.047377,599617671582596570,-335.00
2025-06-26 18:13:59.047377,599617671582596570,-323.00
2025-06-26 18:13:59.047377,599617671582596570,-277.00
2025-06-26 18:13:59.047377,599617671582596570,-299.00
2025-06-26 18:13:59.047377,599617671582596570,-294.00
2025-06-26 18:13:59.047377,599617671582596570,-262.00
2025-06-26 18:13:59.047377,599617671582596570,-260.00
2025-06-26 18:13:59.047377,599617671582596570,-250.00
2025-06-26 18:13:59.047377,599617671582596570,-231.00
2025-06-26 18:13:59.047377,599617671582596570,-221.00
2025-06-26 18:13:59.047377,599617671582596570,-211.00
2025-06-26 18:13:59.047377,599617671582596570,-197.00
2025-06-26 18:13:59.047377,599617671582596570,-184.00
2025-06-26 18:13:59.047377,599617671582596570,-177.00
2025-06-26 18:13:59.047377,599617671582596570,-172.00
2025-06-26 18:13:59.047377,599617671582596570,-167.00
2025-06-26 18:13:59.047377,599617671582596570,-167.00
2025-06-26 18:13:59.047377,599617671582596570,-170.00
2025-06-26 18:13:59.047377,599617671582596570,-177.00
2025-06-26 18:13:59.047377,599617671582596570,-182.00
2025-06-26 18:13:59.047377,599617671582596570,-180.00
2025-06-26 18:13:59.047377,599617671582596570,-172.00
2025-06-26 18:13:59.047377,599617671582596570,-160.00
2025-06-26 18:13:59.047377,599617671582596570,-148.00
2025-06-26 18:13:59.047377,599617671582596570,-141.00
2025-06-26 18:13:59.047377,599617671582596570,-136.00
2025-06-26 18:13:59.047377,599617671582596570,-131.00
2025-06-26 18:13:59.047377,599617671582596570,-128.00
2025-06-26 18:13:59.047377,599617671582596570,-126.00
2025-06-26 18:13:59.047377,599617671582596570,-119.00
2025-06-26 18:13:59.047377,599617671582596570,-116.00
2025-06-26 18:13:59.047377,599617671582596570,-111.00
2025-06-26 18:13:59.047377,599617671582596570,-104.00
2025-06-26 18:13:59.047377,599617671582596570,-102.00
2025-06-26 18:13:59.047377,599617671582596570,-99.00
2025-06-26 18:13:59.047377,599617671582596570,-92.00
2025-06-26 18:13:59.047377,599617671582596570,-90.00
2025-06-26 18:13:59.047377,599617671582596570,-90.00
2025-06-26 18:13:59.047377,599617671582596570,-90.00
2025-06-26 18:13:59.047377,599617671582596570,-90.00
2025-06-26 18:13:59.047377,599617671582596570,-94.00
2025-06-26 18:13:59.047377,599617671582596570,-102.00
2025-06-26 18:13:59.047377,599617671582596570,-104.00
2025-06-26 18:13:59.047377,599617671582596570,-97.00
2025-06-26 18:13:59.047377,599617671582596570,-92.00
2025-06-26 18:13:59.047377,599617671582596570,-87.00
2025-06-26 18:13:59.047377,599617671582596570,-63.00
2025-06-26 18:13:59.047377,599617671582596570,-31.00
2025-06-26 18:13:59.047377,599617671582596570,-29.00
2025-06-26 18:13:59.047377,599617671582596570,-60.00
2025-06-26 18:13:59.047377,599617671582596570,-77.00
2025-06-26 18:13:59.047377,599617671582596570,-72.00
2025-06-26 18:13:59.047377,599617671582596570,-70.00
2025-06-26 18:13:59.047377,599617671582596570,-70.00
2025-06-26 18:13:59.587904,599617672143324129,-70.00
2025-06-26 18:13:59.587904,599617672143324129,-70.00
2025-06-26 18:13:59.587904,599617672143324129,-75.00
2025-06-26 18:13:59.587904,599617672143324129,-72.00
2025-06-26 18:13:59.587904,599617672143324129,-12.00
2025-06-26 18:13:59.587904,599617672143324129,309.00
2025-06-26 18:13:59.587904,599617672143324129,1099.00
2025-06-26 18:13:59.587904,599617672143324129,1987.00
2025-06-26 18:13:59.587904,599617672143324129,2078.00
2025-06-26 18:13:59.587904,599617672143324129,1131.00
2025-06-26 18:13:59.587904,599617672143324129,38.00
2025-06-26 18:13:59.587904,599617672143324129,-328.00
2025-06-26 18:13:59.587904,599617672143324129,-206.00
2025-06-26 18:13:59.587904,599617672143324129,-248.00
2025-06-26 18:13:59.587904,599617672143324129,-360.00
2025-06-26 18:13:59.587904,599617672143324129,-313.00
2025-06-26 18:13:59.587904,599617672143324129,-277.00
2025-06-26 18:13:59.587904,599617672143324129,-299.00
2025-06-26 18:13:59.587904,599617672143324129,-284.00
2025-06-26 18:13:59.587904,599617672143324129,-255.00
2025-06-26 18:13:59.587904,599617672143324129,-248.00
2025-06-26 18:13:59.587904,599617672143324129,-236.00
2025-06-26 18:13:59.587904,599617672143324129,-216.00
2025-06-26 18:13:59.587904,599617672143324129,-204.00
2025-06-26 18:13:59.587904,599617672143324129,-194.00
2025-06-26 18:13:59.587904,599617672143324129,-177.00
2025-06-26 18:13:59.587904,599617672143324129,-163.00
2025-06-26 18:13:59.587904,599617672143324129,-153.00
2025-06-26 18:13:59.587904,599617672143324129,-145.00
2025-06-26 18:13:59.587904,599617672143324129,-141.00
2025-06-26 18:13:59.587904,599617672143324129,-141.00
2025-06-26 18:13:59.587904,599617672143324129,-145.00
2025-06-26 18:13:59.587904,599617672143324129,-153.00
2025-06-26 18:13:59.587904,599617672143324129,-160.00
2025-06-26 18:13:59.587904,599617672143324129,-158.00
2025-06-26 18:13:59.587904,599617672143324129,-150.00
2025-06-26 18:13:59.587904,599617672143324129,-148.00
2025-06-26 18:13:59.587904,599617672143324129,-145.00
2025-06-26 18:13:59.587904,599617672143324129,-143.00
2025-06-26 18:13:59.587904,599617672143324129,-136.00
2025-06-26 18:13:59.587904,599617672143324129,-131.00
2025-06-26 18:13:59.587904,599617672143324129,-128.00
2025-06-26 18:13:59.587904,599617672143324129,-124.00
2025-06-26 18:13:59.587904,599617672143324129,-121.00
2025-06-26 18:13:59.587904,599617672143324129,-121.00
2025-06-26 18:13:59.587904,599617672143324129,-114.00
2025-06-26 18:13:59.587904,599617672143324129,-102.00
2025-06-26 18:13:59.587904,599617672143324129,-102.00
2025-06-26 18:13:59.587904,599617672143324129,-107.00
2025-06-26 18:13:59.587904,599617672143324129,-102.00
2025-06-26 18:13:59.587904,599617672143324129,-92.00
2025-06-26 18:13:59.587904,599617672143324129,-94.00
2025-06-26 18:13:59.587904,599617672143324129,-97.00
2025-06-26 18:13:59.587904,599617672143324129,-92.00
2025-06-26 18:13:59.587904,599617672143324129,-90.00
2025-06-26 18:13:59.587904,599617672143324129,-92.00
2025-06-26 18:13:59.587904,599617672143324129,-94.00
2025-06-26 18:13:59.587904,599617672143324129,-99.00
2025-06-26 18:13:59.587904,599617672143324129,-109.00
2025-06-26 18:13:59.587904,599617672143324129,-102.00
2025-06-26 18:13:59.587904,599617672143324129,-90.00
2025-06-26 18:13:59.587904,599617672143324129,-82.00
2025-06-26 18:13:59.587904,599617672143324129,-68.00
2025-06-26 18:13:59.587904,599617672143324129,-36.00
2025-06-26 18:13:59.587904,599617672143324129,-24.00
2025-06-26 18:13:59.587904,599617672143324129,-48.00
2025-06-26 18:13:59.587904,599617672143324129,-72.00
2025-06-26 18:13:59.587904,599617672143324129,-70.00
2025-06-26 18:13:59.587904,599617672143324129,-63.00
2025-06-26 18:13:59.587904,599617672143324129,-68.00
2025-06-26 18:13:59.587904,599617672143324129,-68.00
2025-06-26 18:13:59.587904,599617672143324129,-65.00
2025-06-26 18:13:59.587904,599617672143324129,-75.00
2025-06-26 18:14:00.277043,599617672704021170,-75.00
2025-06-26 18:14:00.277043,599617672704021170,-41.00
2025-06-26 18:14:00.277043,599617672704021170,175.00
2025-06-26 18:14:00.277043,599617672704021170,812.00
2025-06-26 18:14:00.277043,599617672704021170,1683.00
2025-06-26 18:14:00.277043,599617672704021170,2007.00
2025-06-26 18:14:00.277043,599617672704021170,1321.00
2025-06-26 18:14:00.277043,599617672704021170,236.00
2025-06-26 18:14:00.277043,599617672704021170,-279.00
2025-06-26 18:14:00.277043,599617672704021170,-194.00
2025-06-26 18:14:00.277043,599617672704021170,-189.00
2025-06-26 18:14:00.277043,599617672704021170,-328.00
2025-06-26 18:14:00.277043,599617672704021170,-309.00
2025-06-26 18:14:00.277043,599617672704021170,-255.00
2025-06-26 18:14:00.277043,599617672704021170,-282.00
2025-06-26 18:14:00.277043,599617672704021170,-282.00
2025-06-26 18:14:00.277043,599617672704021170,-250.00
2025-06-26 18:14:00.277043,599617672704021170,-240.00
2025-06-26 18:14:00.277043,599617672704021170,-236.00
2025-06-26 18:14:00.277043,599617672704021170,-218.00
2025-06-26 18:14:00.277043,599617672704021170,-201.00
2025-06-26 18:14:00.277043,599617672704021170,-189.00
2025-06-26 18:14:00.277043,599617672704021170,-177.00
2025-06-26 18:14:00.277043,599617672704021170,-160.00
2025-06-26 18:14:00.277043,599617672704021170,-145.00
2025-06-26 18:14:00.277043,599617672704021170,-133.00
2025-06-26 18:14:00.277043,599617672704021170,-131.00
2025-06-26 18:14:00.277043,599617672704021170,-131.00
2025-06-26 18:14:00.277043,599617672704021170,-138.00
2025-06-26 18:14:00.277043,599617672704021170,-148.00
2025-06-26 18:14:00.277043,599617672704021170,-158.00
2025-06-26 18:14:00.277043,599617672704021170,-153.00
2025-06-26 18:14:00.277043,599617672704021170,-145.00
2025-06-26 18:14:00.277043,599617672704021170,-143.00
2025-06-26 18:14:00.277043,599617672704021170,-143.00
2025-06-26 18:14:00.277043,599617672704021170,-133.00
2025-06-26 18:14:00.277043,599617672704021170,-124.00
2025-06-26 18:14:00.277043,599617672704021170,-121.00
2025-06-26 18:14:00.277043,599617672704021170,-124.00
2025-06-26 18:14:00.277043,599617672704021170,-121.00
2025-06-26 18:14:00.277043,599617672704021170,-116.00
2025-06-26 18:14:00.277043,599617672704021170,-114.00
2025-06-26 18:14:00.277043,599617672704021170,-116.00
2025-06-26 18:14:00.277043,599617672704021170,-111.00
2025-06-26 18:14:00.277043,599617672704021170,-102.00
2025-06-26 18:14:00.277043,599617672704021170,-97.00
2025-06-26 18:14:00.277043,599617672704021170,-97.00
2025-06-26 18:14:00.277043,599617672704021170,-97.00
2025-06-26 18:14:00.277043,599617672704021170,-92.00
2025-06-26 18:14:00.277043,599617672704021170,-80.00
2025-06-26 18:14:00.277043,599617672704021170,-72.00
2025-06-26 18:14:00.277043,599617672704021170,-75.00
2025-06-26 18:14:00.277043,599617672704021170,-72.00
2025-06-26 18:14:00.277043,599617672704021170,-65.00
2025-06-26 18:14:00.277043,599617672704021170,-68.00
2025-06-26 18:14:00.277043,599617672704021170,-72.00
2025-06-26 18:14:00.277043,599617672704021170,-72.00
2025-06-26 18:14:00.277043,599617672704021170,-70.00
2025-06-26 18:14:00.277043,599617672704021170,-72.00
2025-06-26 18:14:00.277043,599617672704021170,-87.00
2025-06-26 18:14:00.277043,599617672704021170,-94.00
2025-06-26 18:14:00.277043,599617672704021170,-92.00
2025-06-26 18:14:00.277043,599617672704021170,-85.00
2025-06-26 18:14:00.277043,599617672704021170,-80.00
2025-06-26 18:14:00.277043,599617672704021170,-65.00
2025-06-26 18:14:00.277043,599617672704021170,-36.00
2025-06-26 18:14:00.277043,599617672704021170,-19.00
2025-06-26 18:14:00.277043,599617672704021170,-38.00
2025-06-26 18:14:00.277043,599617672704021170,-70.00
2025-06-26 18:14:00.277043,599617672704021170,-72.00
2025-06-26 18:14:00.277043,599617672704021170,-63.00
2025-06-26 18:14:00.277043,599617672704021170,-65.00
2025-06-26 18:14:00.277043,599617672704021170,-70.00
2025-06-26 18:14:00.669535,599617673264748729,-65.00
2025-06-26 18:14:00.669535,599617673264748729,-72.00
2025-06-26 18:14:00.669535,599617673264748729,-85.00
2025-06-26 18:14:00.669535,599617673264748729,-65.00
2025-06-26 18:14:00.669535,599617673264748729,94.00
2025-06-26 18:14:00.669535,599617673264748729,613.00
2025-06-26 18:14:00.669535,599617673264748729,1491.00
2025-06-26 18:14:00.669535,599617673264748729,2087.00
2025-06-26 18:14:00.669535,599617673264748729,1669.00
2025-06-26 18:14:00.669535,599617673264748729,540.00
2025-06-26 18:14:00.669535,599617673264748729,-221.00
2025-06-26 18:14:00.669535,599617673264748729,-255.00
2025-06-26 18:14:00.669535,599617673264748729,-189.00
2025-06-26 18:14:00.669535,599617673264748729,-326.00
2025-06-26 18:14:00.669535,599617673264748729,-362.00
2025-06-26 18:14:00.669535,599617673264748729,-299.00
2025-06-26 18:14:00.669535,599617673264748729,-311.00
2025-06-26 18:14:00.669535,599617673264748729,-323.00
2025-06-26 18:14:00.669535,599617673264748729,-289.00
2025-06-26 18:14:00.669535,599617673264748729,-274.00
2025-06-26 18:14:00.669535,599617673264748729,-274.00
2025-06-26 18:14:00.669535,599617673264748729,-257.00
2025-06-26 18:14:00.669535,599617673264748729,-243.00
2025-06-26 18:14:00.669535,599617673264748729,-236.00
2025-06-26 18:14:00.669535,599617673264748729,-223.00
2025-06-26 18:14:00.669535,599617673264748729,-214.00
2025-06-26 18:14:00.669535,599617673264748729,-199.00
2025-06-26 18:14:00.669535,599617673264748729,-184.00
2025-06-26 18:14:00.669535,599617673264748729,-182.00
2025-06-26 18:14:00.669535,599617673264748729,-180.00
2025-06-26 18:14:00.669535,599617673264748729,-177.00
2025-06-26 18:14:00.669535,599617673264748729,-182.00
2025-06-26 18:14:00.669535,599617673264748729,-192.00
2025-06-26 18:14:00.669535,599617673264748729,-197.00
2025-06-26 18:14:00.669535,599617673264748729,-187.00
2025-06-26 18:14:00.669535,599617673264748729,-180.00
2025-06-26 18:14:00.669535,599617673264748729,-175.00
2025-06-26 18:14:00.669535,599617673264748729,-165.00
2025-06-26 18:14:00.669535,599617673264748729,-158.00
2025-06-26 18:14:00.669535,599617673264748729,-155.00
2025-06-26 18:14:00.669535,599617673264748729,-153.00
2025-06-26 18:14:00.669535,599617673264748729,-148.00
2025-06-26 18:14:00.669535,599617673264748729,-143.00
2025-06-26 18:14:00.669535,599617673264748729,-138.00
2025-06-26 18:14:00.669535,599617673264748729,-133.00
2025-06-26 18:14:00.669535,599617673264748729,-126.00
2025-06-26 18:14:00.669535,599617673264748729,-121.00
2025-06-26 18:14:00.669535,599617673264748729,-114.00
2025-06-26 18:14:00.669535,599617673264748729,-114.00
2025-06-26 18:14:00.669535,599617673264748729,-116.00
2025-06-26 18:14:00.669535,599617673264748729,-107.00
2025-06-26 18:14:00.669535,599617673264748729,-97.00
2025-06-26 18:14:00.669535,599617673264748729,-97.00
2025-06-26 18:14:00.669535,599617673264748729,-97.00
2025-06-26 18:14:00.669535,599617673264748729,-92.00
2025-06-26 18:14:00.669535,599617673264748729,-90.00
2025-06-26 18:14:00.669535,599617673264748729,-85.00
2025-06-26 18:14:00.669535,599617673264748729,-82.00
2025-06-26 18:14:00.669535,599617673264748729,-82.00
2025-06-26 18:14:00.669535,599617673264748729,-80.00
2025-06-26 18:14:00.669535,599617673264748729,-77.00
2025-06-26 18:14:00.669535,599617673264748729,-80.00
2025-06-26 18:14:00.669535,599617673264748729,-80.00
2025-06-26 18:14:00.669535,599617673264748729,-77.00
2025-06-26 18:14:00.669535,599617673264748729,-77.00
2025-06-26 18:14:00.669535,599617673264748729,-75.00
2025-06-26 18:14:00.669535,599617673264748729,-75.00
2025-06-26 18:14:00.669535,599617673264748729,-82.00
2025-06-26 18:14:00.669535,599617673264748729,-90.00
2025-06-26 18:14:00.669535,599617673264748729,-94.00
2025-06-26 18:14:00.669535,599617673264748729,-99.00
2025-06-26 18:14:00.669535,599617673264748729,-90.00
2025-06-26 18:14:00.669535,599617673264748729,-82.00
2025-06-26 18:14:01.267763,599617673825445770,-80.00
2025-06-26 18:14:01.267763,599617673825445770,-60.00
2025-06-26 18:14:01.267763,599617673825445770,-26.00
2025-06-26 18:14:01.267763,599617673825445770,-14.00
2025-06-26 18:14:01.267763,599617673825445770,-41.00
2025-06-26 18:14:01.267763,599617673825445770,-63.00
2025-06-26 18:14:01.267763,599617673825445770,-55.00
2025-06-26 18:14:01.267763,599617673825445770,-46.00
2025-06-26 18:14:01.267763,599617673825445770,-48.00
2025-06-26 18:14:01.267763,599617673825445770,-53.00
2025-06-26 18:14:01.267763,599617673825445770,-58.00
2025-06-26 18:14:01.267763,599617673825445770,-60.00
2025-06-26 18:14:01.267763,599617673825445770,-65.00
2025-06-26 18:14:01.267763,599617673825445770,-29.00
2025-06-26 18:14:01.267763,599617673825445770,240.00
2025-06-26 18:14:01.267763,599617673825445770,966.00
2025-06-26 18:14:01.267763,599617673825445770,1902.00
2025-06-26 18:14:01.267763,599617673825445770,2202.00
2025-06-26 18:14:01.267763,599617673825445770,1413.00
2025-06-26 18:14:01.267763,599617673825445770,240.00
2025-06-26 18:14:01.267763,599617673825445770,-299.00
2025-06-26 18:14:01.267763,599617673825445770,-226.00
2025-06-26 18:14:01.267763,599617673825445770,-233.00
2025-06-26 18:14:01.267763,599617673825445770,-357.00
2025-06-26 18:14:01.267763,599617673825445770,-338.00
2025-06-26 18:14:01.267763,599617673825445770,-296.00
2025-06-26 18:14:01.267763,599617673825445770,-316.00
2025-06-26 18:14:01.267763,599617673825445770,-304.00
2025-06-26 18:14:01.267763,599617673825445770,-274.00
2025-06-26 18:14:01.267763,599617673825445770,-267.00
2025-06-26 18:14:01.267763,599617673825445770,-257.00
2025-06-26 18:14:01.267763,599617673825445770,-238.00
2025-06-26 18:14:01.267763,599617673825445770,-226.00
2025-06-26 18:14:01.267763,599617673825445770,-218.00
2025-06-26 18:14:01.267763,599617673825445770,-201.00
2025-06-26 18:14:01.267763,599617673825445770,-187.00
2025-06-26 18:14:01.267763,599617673825445770,-175.00
2025-06-26 18:14:01.267763,599617673825445770,-163.00
2025-06-26 18:14:01.267763,599617673825445770,-153.00
2025-06-26 18:14:01.267763,599617673825445770,-145.00
2025-06-26 18:14:01.267763,599617673825445770,-138.00
2025-06-26 18:14:01.267763,599617673825445770,-138.00
2025-06-26 18:14:01.267763,599617673825445770,-138.00
2025-06-26 18:14:01.267763,599617673825445770,-138.00
2025-06-26 18:14:01.267763,599617673825445770,-136.00
2025-06-26 18:14:01.267763,599617673825445770,-131.00
2025-06-26 18:14:01.267763,599617673825445770,-126.00
2025-06-26 18:14:01.267763,599617673825445770,-128.00
2025-06-26 18:14:01.267763,599617673825445770,-133.00
2025-06-26 18:14:01.267763,599617673825445770,-136.00
2025-06-26 18:14:01.267763,599617673825445770,-136.00
2025-06-26 18:14:01.267763,599617673825445770,-136.00
2025-06-26 18:14:01.267763,599617673825445770,-128.00
2025-06-26 18:14:01.267763,599617673825445770,-124.00
2025-06-26 18:14:01.267763,599617673825445770,-121.00
2025-06-26 18:14:01.267763,599617673825445770,-116.00
2025-06-26 18:14:01.267763,599617673825445770,-109.00
2025-06-26 18:14:01.267763,599617673825445770,-104.00
2025-06-26 18:14:01.267763,599617673825445770,-99.00
2025-06-26 18:14:01.267763,599617673825445770,-92.00
2025-06-26 18:14:01.267763,599617673825445770,-92.00
2025-06-26 18:14:01.267763,599617673825445770,-97.00
2025-06-26 18:14:01.267763,599617673825445770,-94.00
2025-06-26 18:14:01.267763,599617673825445770,-87.00
2025-06-26 18:14:01.267763,599617673825445770,-87.00
2025-06-26 18:14:01.267763,599617673825445770,-90.00
2025-06-26 18:14:01.267763,599617673825445770,-82.00
2025-06-26 18:14:01.267763,599617673825445770,-77.00
2025-06-26 18:14:01.267763,599617673825445770,-77.00
2025-06-26 18:14:01.267763,599617673825445770,-75.00
2025-06-26 18:14:01.267763,599617673825445770,-70.00
2025-06-26 18:14:01.267763,599617673825445770,-68.00
2025-06-26 18:14:01.267763,599617673825445770,-65.00
2025-06-26 18:14:01.869108,599617674386142813,-63.00
2025-06-26 18:14:01.869108,599617674386142813,-60.00
2025-06-26 18:14:01.869108,599617674386142813,-58.00
2025-06-26 18:14:01.869108,599617674386142813,-55.00
2025-06-26 18:14:01.869108,599617674386142813,-55.00
2025-06-26 18:14:01.869108,599617674386142813,-53.00
2025-06-26 18:14:01.869108,599617674386142813,-51.00
2025-06-26 18:14:01.869108,599617674386142813,-48.00
2025-06-26 18:14:01.869108,599617674386142813,-53.00
2025-06-26 18:14:01.869108,599617674386142813,-60.00
2025-06-26 18:14:01.869108,599617674386142813,-65.00
2025-06-26 18:14:01.869108,599617674386142813,-70.00
2025-06-26 18:14:01.869108,599617674386142813,-65.00
2025-06-26 18:14:01.869108,599617674386142813,-60.00
2025-06-26 18:14:01.869108,599617674386142813,-60.00
2025-06-26 18:14:01.869108,599617674386142813,-48.00
2025-06-26 18:14:01.869108,599617674386142813,-7.00
2025-06-26 18:14:01.869108,599617674386142813,12.00
2025-06-26 18:14:01.869108,599617674386142813,-19.00
2025-06-26 18:14:01.869108,599617674386142813,-48.00
2025-06-26 18:14:01.869108,599617674386142813,-41.00
2025-06-26 18:14:01.869108,599617674386142813,-29.00
2025-06-26 18:14:01.869108,599617674386142813,-31.00
2025-06-26 18:14:01.869108,599617674386142813,-34.00
2025-06-26 18:14:01.869108,599617674386142813,-34.00
2025-06-26 18:14:01.869108,599617674386142813,-41.00
2025-06-26 18:14:01.869108,599617674386142813,-41.00
2025-06-26 18:14:01.869108,599617674386142813,-4.00
2025-06-26 18:14:01.869108,599617674386142813,206.00
2025-06-26 18:14:01.869108,599617674386142813,844.00
2025-06-26 18:14:01.869108,599617674386142813,1800.00
2025-06-26 18:14:01.869108,599617674386142813,2272.00
2025-06-26 18:14:01.869108,599617674386142813,1625.00
2025-06-26 18:14:01.869108,599617674386142813,399.00
2025-06-26 18:14:01.869108,599617674386142813,-274.00
2025-06-26 18:14:01.869108,599617674386142813,-240.00
2025-06-26 18:14:01.869108,599617674386142813,-209.00
2025-06-26 18:14:01.869108,599617674386142813,-335.00
2025-06-26 18:14:01.869108,599617674386142813,-330.00
2025-06-26 18:14:01.869108,599617674386142813,-274.00
2025-06-26 18:14:01.869108,599617674386142813,-287.00
2025-06-26 18:14:01.869108,599617674386142813,-284.00
2025-06-26 18:14:01.869108,599617674386142813,-253.00
2025-06-26 18:14:01.869108,599617674386142813,-240.00
2025-06-26 18:14:01.869108,599617674386142813,-228.00
2025-06-26 18:14:01.869108,599617674386142813,-209.00
2025-06-26 18:14:01.869108,599617674386142813,-194.00
2025-06-26 18:14:01.869108,599617674386142813,-182.00
2025-06-26 18:14:01.869108,599617674386142813,-165.00
2025-06-26 18:14:01.869108,599617674386142813,-145.00
2025-06-26 18:14:01.869108,599617674386142813,-131.00
2025-06-26 18:14:01.869108,599617674386142813,-114.00
2025-06-26 18:14:01.869108,599617674386142813,-104.00
2025-06-26 18:14:01.869108,599617674386142813,-94.00
2025-06-26 18:14:01.869108,599617674386142813,-87.00
2025-06-26 18:14:01.869108,599617674386142813,-87.00
2025-06-26 18:14:01.869108,599617674386142813,-92.00
2025-06-26 18:14:01.869108,599617674386142813,-97.00
2025-06-26 18:14:01.869108,599617674386142813,-99.00
2025-06-26 18:14:01.869108,599617674386142813,-102.00
2025-06-26 18:14:01.869108,599617674386142813,-104.00
2025-06-26 18:14:01.869108,599617674386142813,-119.00
2025-06-26 18:14:01.869108,599617674386142813,-128.00
2025-06-26 18:14:01.869108,599617674386142813,-126.00
2025-06-26 18:14:01.869108,599617674386142813,-124.00
2025-06-26 18:14:01.869108,599617674386142813,-128.00
2025-06-26 18:14:01.869108,599617674386142813,-128.00
2025-06-26 18:14:01.869108,599617674386142813,-124.00
2025-06-26 18:14:01.869108,599617674386142813,-119.00
2025-06-26 18:14:01.869108,599617674386142813,-116.00
2025-06-26 18:14:01.869108,599617674386142813,-114.00
2025-06-26 18:14:01.869108,599617674386142813,-109.00
2025-06-26 18:14:01.869108,599617674386142813,-104.00
2025-06-26 18:14:02.381950,599617674946870372,-99.00
2025-06-26 18:14:02.381950,599617674946870372,-97.00
2025-06-26 18:14:02.381950,599617674946870372,-94.00
2025-06-26 18:14:02.381950,599617674946870372,-92.00
2025-06-26 18:14:02.381950,599617674946870372,-94.00
2025-06-26 18:14:02.381950,599617674946870372,-97.00
2025-06-26 18:14:02.381950,599617674946870372,-87.00
2025-06-26 18:14:02.381950,599617674946870372,-77.00
2025-06-26 18:14:02.381950,599617674946870372,-77.00
2025-06-26 18:14:02.381950,599617674946870372,-80.00
2025-06-26 18:14:02.381950,599617674946870372,-72.00
2025-06-26 18:14:02.381950,599617674946870372,-68.00
2025-06-26 18:14:02.381950,599617674946870372,-65.00
2025-06-26 18:14:02.381950,599617674946870372,-65.00
2025-06-26 18:14:02.381950,599617674946870372,-63.00
2025-06-26 18:14:02.381950,599617674946870372,-60.00
2025-06-26 18:14:02.381950,599617674946870372,-60.00
2025-06-26 18:14:02.381950,599617674946870372,-55.00
2025-06-26 18:14:02.381950,599617674946870372,-53.00
2025-06-26 18:14:02.381950,599617674946870372,-55.00
2025-06-26 18:14:02.381950,599617674946870372,-60.00
2025-06-26 18:14:02.381950,599617674946870372,-55.00
2025-06-26 18:14:02.381950,599617674946870372,-51.00
2025-06-26 18:14:02.381950,599617674946870372,-53.00
2025-06-26 18:14:02.381950,599617674946870372,-55.00
2025-06-26 18:14:02.381950,599617674946870372,-58.00
2025-06-26 18:14:02.381950,599617674946870372,-63.00
2025-06-26 18:14:02.381950,599617674946870372,-68.00
2025-06-26 18:14:02.381950,599617674946870372,-72.00
2025-06-26 18:14:02.381950,599617674946870372,-68.00
2025-06-26 18:14:02.381950,599617674946870372,-60.00
2025-06-26 18:14:02.381950,599617674946870372,-60.00
2025-06-26 18:14:02.381950,599617674946870372,-43.00
2025-06-26 18:14:02.381950,599617674946870372,-4.00
2025-06-26 18:14:02.381950,599617674946870372,12.00
2025-06-26 18:14:02.381950,599617674946870372,-17.00
2025-06-26 18:14:02.381950,599617674946870372,-48.00
2025-06-26 18:14:02.381950,599617674946870372,-41.00
2025-06-26 18:14:02.381950,599617674946870372,-29.00
2025-06-26 18:14:02.381950,599617674946870372,-34.00
2025-06-26 18:14:02.381950,599617674946870372,-36.00
2025-06-26 18:14:02.381950,599617674946870372,-34.00
2025-06-26 18:14:02.381950,599617674946870372,-41.00
2025-06-26 18:14:02.381950,599617674946870372,-48.00
2025-06-26 18:14:02.381950,599617674946870372,-19.00
2025-06-26 18:14:02.381950,599617674946870372,228.00
2025-06-26 18:14:02.381950,599617674946870372,958.00
2025-06-26 18:14:02.381950,599617674946870372,1946.00
2025-06-26 18:14:02.381950,599617674946870372,2301.00
2025-06-26 18:14:02.381950,599617674946870372,1508.00
2025-06-26 18:14:02.381950,599617674946870372,289.00
2025-06-26 18:14:02.381950,599617674946870372,-272.00
2025-06-26 18:14:02.381950,599617674946870372,-199.00
2025-06-26 18:14:02.381950,599617674946870372,-206.00
2025-06-26 18:14:02.381950,599617674946870372,-333.00
2025-06-26 18:14:02.381950,599617674946870372,-306.00
2025-06-26 18:14:02.381950,599617674946870372,-260.00
2025-06-26 18:14:02.381950,599617674946870372,-282.00
2025-06-26 18:14:02.381950,599617674946870372,-265.00
2025-06-26 18:14:02.381950,599617674946870372,-231.00
2025-06-26 18:14:02.381950,599617674946870372,-223.00
2025-06-26 18:14:02.381950,599617674946870372,-209.00
2025-06-26 18:14:02.381950,599617674946870372,-187.00
2025-06-26 18:14:02.381950,599617674946870372,-175.00
2025-06-26 18:14:02.381950,599617674946870372,-158.00
2025-06-26 18:14:02.381950,599617674946870372,-133.00
2025-06-26 18:14:02.381950,599617674946870372,-119.00
2025-06-26 18:14:02.381950,599617674946870372,-111.00
2025-06-26 18:14:02.381950,599617674946870372,-94.00
2025-06-26 18:14:02.381950,599617674946870372,-80.00
2025-06-26 18:14:02.381950,599617674946870372,-77.00
2025-06-26 18:14:02.381950,599617674946870372,-75.00
2025-06-26 18:14:02.381950,599617674946870372,-80.00
2025-06-26 18:14:02.950154,599617675507567413,-87.00
2025-06-26 18:14:02.950154,599617675507567413,-92.00
2025-06-26 18:14:02.950154,599617675507567413,-102.00
2025-06-26 18:14:02.950154,599617675507567413,-107.00
2025-06-26 18:14:02.950154,599617675507567413,-104.00
2025-06-26 18:14:02.950154,599617675507567413,-107.00
2025-06-26 18:14:02.950154,599617675507567413,-114.00
2025-06-26 18:14:02.950154,599617675507567413,-111.00
2025-06-26 18:14:02.950154,599617675507567413,-107.00
2025-06-26 18:14:02.950154,599617675507567413,-107.00
2025-06-26 18:14:02.950154,599617675507567413,-107.00
2025-06-26 18:14:02.950154,599617675507567413,-104.00
2025-06-26 18:14:02.950154,599617675507567413,-104.00
2025-06-26 18:14:02.950154,599617675507567413,-102.00
2025-06-26 18:14:02.950154,599617675507567413,-94.00
2025-06-26 18:14:02.950154,599617675507567413,-92.00
2025-06-26 18:14:02.950154,599617675507567413,-90.00
2025-06-26 18:14:02.950154,599617675507567413,-85.00
2025-06-26 18:14:02.950154,599617675507567413,-80.00
2025-06-26 18:14:02.950154,599617675507567413,-75.00
2025-06-26 18:14:02.950154,599617675507567413,-68.00
2025-06-26 18:14:02.950154,599617675507567413,-63.00
2025-06-26 18:14:02.950154,599617675507567413,-60.00
2025-06-26 18:14:02.950154,599617675507567413,-58.00
2025-06-26 18:14:02.950154,599617675507567413,-55.00
2025-06-26 18:14:02.950154,599617675507567413,-55.00
2025-06-26 18:14:02.950154,599617675507567413,-53.00
2025-06-26 18:14:02.950154,599617675507567413,-53.00
2025-06-26 18:14:02.950154,599617675507567413,-55.00
2025-06-26 18:14:02.950154,599617675507567413,-55.00
2025-06-26 18:14:02.950154,599617675507567413,-55.00
2025-06-26 18:14:02.950154,599617675507567413,-58.00
2025-06-26 18:14:02.950154,599617675507567413,-58.00
2025-06-26 18:14:02.950154,599617675507567413,-60.00
2025-06-26 18:14:02.950154,599617675507567413,-60.00
2025-06-26 18:14:02.950154,599617675507567413,-58.00
2025-06-26 18:14:02.950154,599617675507567413,-60.00
2025-06-26 18:14:02.950154,599617675507567413,-60.00
2025-06-26 18:14:02.950154,599617675507567413,-60.00
2025-06-26 18:14:02.950154,599617675507567413,-58.00
2025-06-26 18:14:02.950154,599617675507567413,-58.00
2025-06-26 18:14:02.950154,599617675507567413,-60.00
2025-06-26 18:14:02.950154,599617675507567413,-65.00
2025-06-26 18:14:02.950154,599617675507567413,-75.00
2025-06-26 18:14:02.950154,599617675507567413,-85.00
2025-06-26 18:14:02.950154,599617675507567413,-85.00
2025-06-26 18:14:02.950154,599617675507567413,-75.00
2025-06-26 18:14:02.950154,599617675507567413,-68.00
2025-06-26 18:14:02.950154,599617675507567413,-58.00
2025-06-26 18:14:02.950154,599617675507567413,-29.00
2025-06-26 18:14:02.950154,599617675507567413,4.00
2025-06-26 18:14:02.950154,599617675507567413,-4.00
2025-06-26 18:14:02.950154,599617675507567413,-41.00
2025-06-26 18:14:02.950154,599617675507567413,-51.00
2025-06-26 18:14:02.950154,599617675507567413,-34.00
2025-06-26 18:14:02.950154,599617675507567413,-26.00
2025-06-26 18:14:02.950154,599617675507567413,-31.00
2025-06-26 18:14:02.950154,599617675507567413,-36.00
2025-06-26 18:14:02.950154,599617675507567413,-36.00
2025-06-26 18:14:02.950154,599617675507567413,-36.00
2025-06-26 18:14:02.950154,599617675507567413,-46.00
2025-06-26 18:14:02.950154,599617675507567413,38.00
2025-06-26 18:14:02.950154,599617675507567413,489.00
2025-06-26 18:14:02.950154,599617675507567413,1408.00
2025-06-26 18:14:02.950154,599617675507567413,2241.00
2025-06-26 18:14:02.950154,599617675507567413,2058.00
2025-06-26 18:14:02.950154,599617675507567413,880.00
2025-06-26 18:14:02.950154,599617675507567413,-121.00
2025-06-26 18:14:02.950154,599617675507567413,-272.00
2025-06-26 18:14:02.950154,599617675507567413,-160.00
2025-06-26 18:14:02.950154,599617675507567413,-279.00
2025-06-26 18:14:02.950154,599617675507567413,-347.00
2025-06-26 18:14:02.950154,599617675507567413,-279.00
2025-06-26 18:14:03.515779,599617676068294972,-284.00
2025-06-26 18:14:03.515779,599617676068294972,-294.00
2025-06-26 18:14:03.515779,599617676068294972,-253.00
2025-06-26 18:14:03.515779,599617676068294972,-243.00
2025-06-26 18:14:03.515779,599617676068294972,-243.00
2025-06-26 18:14:03.515779,599617676068294972,-218.00
2025-06-26 18:14:03.515779,599617676068294972,-204.00
2025-06-26 18:14:03.515779,599617676068294972,-197.00
2025-06-26 18:14:03.515779,599617676068294972,-180.00
2025-06-26 18:14:03.515779,599617676068294972,-160.00
2025-06-26 18:14:03.515779,599617676068294972,-153.00
2025-06-26 18:14:03.515779,599617676068294972,-138.00
2025-06-26 18:14:03.515779,599617676068294972,-114.00
2025-06-26 18:14:03.515779,599617676068294972,-102.00
2025-06-26 18:14:03.515779,599617676068294972,-111.00
2025-06-26 18:14:03.515779,599617676068294972,-116.00
2025-06-26 18:14:03.515779,599617676068294972,-124.00
2025-06-26 18:14:03.515779,599617676068294972,-136.00
2025-06-26 18:14:03.515779,599617676068294972,-148.00
2025-06-26 18:14:03.515779,599617676068294972,-153.00
2025-06-26 18:14:03.515779,599617676068294972,-153.00
2025-06-26 18:14:03.515779,599617676068294972,-150.00
2025-06-26 18:14:03.515779,599617676068294972,-148.00
2025-06-26 18:14:03.515779,599617676068294972,-143.00
2025-06-26 18:14:03.515779,599617676068294972,-141.00
2025-06-26 18:14:03.515779,599617676068294972,-143.00
2025-06-26 18:14:03.515779,599617676068294972,-141.00
2025-06-26 18:14:03.515779,599617676068294972,-141.00
2025-06-26 18:14:03.515779,599617676068294972,-138.00
2025-06-26 18:14:03.515779,599617676068294972,-138.00
2025-06-26 18:14:03.515779,599617676068294972,-136.00
2025-06-26 18:14:03.515779,599617676068294972,-126.00
2025-06-26 18:14:03.515779,599617676068294972,-119.00
2025-06-26 18:14:03.515779,599617676068294972,-111.00
2025-06-26 18:14:03.515779,599617676068294972,-99.00
2025-06-26 18:14:03.515779,599617676068294972,-94.00
2025-06-26 18:14:03.515779,599617676068294972,-90.00
2025-06-26 18:14:03.515779,599617676068294972,-80.00
2025-06-26 18:14:03.515779,599617676068294972,-75.00
2025-06-26 18:14:03.515779,599617676068294972,-70.00
2025-06-26 18:14:03.515779,599617676068294972,-70.00
2025-06-26 18:14:03.515779,599617676068294972,-72.00
2025-06-26 18:14:03.515779,599617676068294972,-75.00
2025-06-26 18:14:03.515779,599617676068294972,-75.00
2025-06-26 18:14:03.515779,599617676068294972,-72.00
2025-06-26 18:14:03.515779,599617676068294972,-68.00
2025-06-26 18:14:03.515779,599617676068294972,-72.00
2025-06-26 18:14:03.515779,599617676068294972,-75.00
2025-06-26 18:14:03.515779,599617676068294972,-77.00
2025-06-26 18:14:03.515779,599617676068294972,-80.00
2025-06-26 18:14:03.515779,599617676068294972,-77.00
2025-06-26 18:14:03.515779,599617676068294972,-68.00
2025-06-26 18:14:03.515779,599617676068294972,-70.00
2025-06-26 18:14:03.515779,599617676068294972,-75.00
2025-06-26 18:14:03.515779,599617676068294972,-72.00
2025-06-26 18:14:03.515779,599617676068294972,-75.00
2025-06-26 18:14:03.515779,599617676068294972,-77.00
2025-06-26 18:14:03.515779,599617676068294972,-70.00
2025-06-26 18:14:03.515779,599617676068294972,-75.00
2025-06-26 18:14:03.515779,599617676068294972,-85.00
2025-06-26 18:14:03.515779,599617676068294972,-82.00
2025-06-26 18:14:03.515779,599617676068294972,-90.00
2025-06-26 18:14:03.515779,599617676068294972,-107.00
2025-06-26 18:14:03.515779,599617676068294972,-97.00
2025-06-26 18:14:03.515779,599617676068294972,-82.00
2025-06-26 18:14:03.515779,599617676068294972,-85.00
2025-06-26 18:14:03.515779,599617676068294972,-63.00
2025-06-26 18:14:03.515779,599617676068294972,-24.00
2025-06-26 18:14:03.515779,599617676068294972,-21.00
2025-06-26 18:14:03.515779,599617676068294972,-53.00
2025-06-26 18:14:03.515779,599617676068294972,-75.00
2025-06-26 18:14:03.515779,599617676068294972,-65.00
2025-06-26 18:14:03.515779,599617676068294972,-55.00
2025-06-26 18:14:04.060217,599617676628992013,-58.00
2025-06-26 18:14:04.060217,599617676628992013,-60.00
2025-06-26 18:14:04.060217,599617676628992013,-63.00
2025-06-26 18:14:04.060217,599617676628992013,-70.00
2025-06-26 18:14:04.060217,599617676628992013,-77.00
2025-06-26 18:14:04.060217,599617676628992013,-36.00
2025-06-26 18:14:04.060217,599617676628992013,265.00
2025-06-26 18:14:04.060217,599617676628992013,1031.00
2025-06-26 18:14:04.060217,599617676628992013,1951.00
2025-06-26 18:14:04.060217,599617676628992013,2172.00
2025-06-26 18:14:04.060217,599617676628992013,1287.00
2025-06-26 18:14:04.060217,599617676628992013,92.00
2025-06-26 18:14:04.060217,599617676628992013,-347.00
2025-06-26 18:14:04.060217,599617676628992013,-204.00
2025-06-26 18:14:04.060217,599617676628992013,-245.00
2025-06-26 18:14:04.060217,599617676628992013,-386.00
2025-06-26 18:14:04.060217,599617676628992013,-338.00
2025-06-26 18:14:04.060217,599617676628992013,-299.00
2025-06-26 18:14:04.060217,599617676628992013,-333.00
2025-06-26 18:14:04.060217,599617676628992013,-313.00
2025-06-26 18:14:04.060217,599617676628992013,-279.00
2025-06-26 18:14:04.060217,599617676628992013,-277.00
2025-06-26 18:14:04.060217,599617676628992013,-262.00
2025-06-26 18:14:04.060217,599617676628992013,-238.00
2025-06-26 18:14:04.060217,599617676628992013,-228.00
2025-06-26 18:14:04.060217,599617676628992013,-218.00
2025-06-26 18:14:04.060217,599617676628992013,-199.00
2025-06-26 18:14:04.060217,599617676628992013,-180.00
2025-06-26 18:14:04.060217,599617676628992013,-170.00
2025-06-26 18:14:04.060217,599617676628992013,-158.00
2025-06-26 18:14:04.060217,599617676628992013,-143.00
2025-06-26 18:14:04.060217,599617676628992013,-138.00
2025-06-26 18:14:04.060217,599617676628992013,-145.00
2025-06-26 18:14:04.060217,599617676628992013,-153.00
2025-06-26 18:14:04.060217,599617676628992013,-165.00
2025-06-26 18:14:04.060217,599617676628992013,-180.00
2025-06-26 18:14:04.060217,599617676628992013,-182.00
2025-06-26 18:14:04.060217,599617676628992013,-177.00
2025-06-26 18:14:04.060217,599617676628992013,-177.00
2025-06-26 18:14:04.060217,599617676628992013,-175.00
2025-06-26 18:14:04.060217,599617676628992013,-172.00
2025-06-26 18:14:04.060217,599617676628992013,-167.00
2025-06-26 18:14:04.060217,599617676628992013,-160.00
2025-06-26 18:14:04.060217,599617676628992013,-155.00
2025-06-26 18:14:04.060217,599617676628992013,-158.00
2025-06-26 18:14:04.060217,599617676628992013,-158.00
2025-06-26 18:14:04.060217,599617676628992013,-155.00
2025-06-26 18:14:04.060217,599617676628992013,-155.00
2025-06-26 18:14:04.060217,599617676628992013,-153.00
2025-06-26 18:14:04.060217,599617676628992013,-143.00
2025-06-26 18:14:04.060217,599617676628992013,-133.00
2025-06-26 18:14:04.060217,599617676628992013,-128.00
2025-06-26 18:14:04.060217,599617676628992013,-121.00
2025-06-26 18:14:04.060217,599617676628992013,-107.00
2025-06-26 18:14:04.060217,599617676628992013,-99.00
2025-06-26 18:14:04.060217,599617676628992013,-102.00
2025-06-26 18:14:04.060217,599617676628992013,-102.00
2025-06-26 18:14:04.060217,599617676628992013,-92.00
2025-06-26 18:14:04.060217,599617676628992013,-82.00
2025-06-26 18:14:04.060217,599617676628992013,-90.00
2025-06-26 18:14:04.060217,599617676628992013,-99.00
2025-06-26 18:14:04.060217,599617676628992013,-94.00
2025-06-26 18:14:04.060217,599617676628992013,-92.00
2025-06-26 18:14:04.060217,599617676628992013,-99.00
2025-06-26 18:14:04.060217,599617676628992013,-102.00
2025-06-26 18:14:04.060217,599617676628992013,-94.00
2025-06-26 18:14:04.060217,599617676628992013,-97.00
2025-06-26 18:14:04.060217,599617676628992013,-99.00
2025-06-26 18:14:04.060217,599617676628992013,-102.00
2025-06-26 18:14:04.060217,599617676628992013,-104.00
2025-06-26 18:14:04.060217,599617676628992013,-107.00
2025-06-26 18:14:04.060217,599617676628992013,-114.00
2025-06-26 18:14:04.060217,599617676628992013,-126.00
2025-06-26 18:14:04.597832,599617677189689054,-131.00
2025-06-26 18:14:04.597832,599617677189689054,-124.00
2025-06-26 18:14:04.597832,599617677189689054,-104.00
2025-06-26 18:14:04.597832,599617677189689054,-77.00
2025-06-26 18:14:04.597832,599617677189689054,-46.00
2025-06-26 18:14:04.597832,599617677189689054,-36.00
2025-06-26 18:14:04.597832,599617677189689054,-68.00
2025-06-26 18:14:04.597832,599617677189689054,-87.00
2025-06-26 18:14:04.597832,599617677189689054,-58.00
2025-06-26 18:14:04.597832,599617677189689054,-48.00
2025-06-26 18:14:04.597832,599617677189689054,-72.00
2025-06-26 18:14:04.597832,599617677189689054,-77.00
2025-06-26 18:14:04.597832,599617677189689054,-75.00
2025-06-26 18:14:04.597832,599617677189689054,-85.00
2025-06-26 18:14:04.597832,599617677189689054,-87.00
2025-06-26 18:14:04.597832,599617677189689054,-55.00
2025-06-26 18:14:04.597832,599617677189689054,153.00
2025-06-26 18:14:04.597832,599617677189689054,764.00
2025-06-26 18:14:04.597832,599617677189689054,1659.00
2025-06-26 18:14:04.597832,599617677189689054,2124.00
2025-06-26 18:14:04.597832,599617677189689054,1532.00
2025-06-26 18:14:04.597832,599617677189689054,338.00
2025-06-26 18:14:04.597832,599617677189689054,-318.00
2025-06-26 18:14:04.597832,599617677189689054,-226.00
2025-06-26 18:14:04.597832,599617677189689054,-177.00
2025-06-26 18:14:04.597832,599617677189689054,-347.00
2025-06-26 18:14:04.597832,599617677189689054,-347.00
2025-06-26 18:14:04.597832,599617677189689054,-277.00
2025-06-26 18:14:04.597832,599617677189689054,-304.00
2025-06-26 18:14:04.597832,599617677189689054,-301.00
2025-06-26 18:14:04.597832,599617677189689054,-257.00
2025-06-26 18:14:04.597832,599617677189689054,-248.00
2025-06-26 18:14:04.597832,599617677189689054,-240.00
2025-06-26 18:14:04.597832,599617677189689054,-223.00
2025-06-26 18:14:04.597832,599617677189689054,-214.00
2025-06-26 18:14:04.597832,599617677189689054,-204.00
2025-06-26 18:14:04.597832,599617677189689054,-177.00
2025-06-26 18:14:04.597832,599617677189689054,-163.00
2025-06-26 18:14:04.597832,599617677189689054,-150.00
2025-06-26 18:14:04.597832,599617677189689054,-121.00
2025-06-26 18:14:04.597832,599617677189689054,-102.00
2025-06-26 18:14:04.597832,599617677189689054,-102.00
2025-06-26 18:14:04.597832,599617677189689054,-99.00
2025-06-26 18:14:04.597832,599617677189689054,-107.00
2025-06-26 18:14:04.597832,599617677189689054,-145.00
2025-06-26 18:14:04.597832,599617677189689054,-167.00
2025-06-26 18:14:04.597832,599617677189689054,-153.00
2025-06-26 18:14:04.597832,599617677189689054,-145.00
2025-06-26 18:14:04.597832,599617677189689054,-133.00
2025-06-26 18:14:04.597832,599617677189689054,-126.00
2025-06-26 18:14:04.597832,599617677189689054,-143.00
2025-06-26 18:14:04.597832,599617677189689054,-136.00
2025-06-26 18:14:04.597832,599617677189689054,-111.00
2025-06-26 18:14:04.597832,599617677189689054,-116.00
2025-06-26 18:14:04.597832,599617677189689054,-111.00
2025-06-26 18:14:04.597832,599617677189689054,-90.00
2025-06-26 18:14:04.597832,599617677189689054,-102.00
2025-06-26 18:14:04.597832,599617677189689054,-121.00
2025-06-26 18:14:04.597832,599617677189689054,-109.00
2025-06-26 18:14:04.597832,599617677189689054,-90.00
2025-06-26 18:14:04.597832,599617677189689054,-87.00
2025-06-26 18:14:04.597832,599617677189689054,-80.00
2025-06-26 18:14:04.597832,599617677189689054,-68.00
2025-06-26 18:14:04.597832,599617677189689054,-65.00
2025-06-26 18:14:04.597832,599617677189689054,-63.00
2025-06-26 18:14:04.597832,599617677189689054,-48.00
2025-06-26 18:14:04.597832,599617677189689054,-41.00
2025-06-26 18:14:04.597832,599617677189689054,-41.00
2025-06-26 18:14:04.597832,599617677189689054,-29.00
2025-06-26 18:14:04.597832,599617677189689054,-26.00
2025-06-26 18:14:04.597832,599617677189689054,-43.00
2025-06-26 18:14:04.597832,599617677189689054,-46.00
2025-06-26 18:14:04.597832,599617677189689054,-43.00
2025-06-26 18:14:05.197408,599617677750416615,-55.00
2025-06-26 18:14:05.197408,599617677750416615,-63.00
2025-06-26 18:14:05.197408,599617677750416615,-60.00
2025-06-26 18:14:05.197408,599617677750416615,-63.00
2025-06-26 18:14:05.197408,599617677750416615,-72.00
2025-06-26 18:14:05.197408,599617677750416615,-85.00
2025-06-26 18:14:05.197408,599617677750416615,-102.00
2025-06-26 18:14:05.197408,599617677750416615,-102.00
2025-06-26 18:14:05.197408,599617677750416615,-85.00
2025-06-26 18:14:05.197408,599617677750416615,-75.00
2025-06-26 18:14:05.197408,599617677750416615,-70.00
2025-06-26 18:14:05.197408,599617677750416615,-48.00
2025-06-26 18:14:05.197408,599617677750416615,-21.00
2025-06-26 18:14:05.197408,599617677750416615,-19.00
2025-06-26 18:14:05.197408,599617677750416615,-48.00
2025-06-26 18:14:05.197408,599617677750416615,-68.00
2025-06-26 18:14:05.197408,599617677750416615,-55.00
2025-06-26 18:14:05.197408,599617677750416615,-51.00
2025-06-26 18:14:05.197408,599617677750416615,-60.00
2025-06-26 18:14:05.197408,599617677750416615,-58.00
2025-06-26 18:14:05.197408,599617677750416615,-60.00
2025-06-26 18:14:05.197408,599617677750416615,-68.00
2025-06-26 18:14:05.197408,599617677750416615,-65.00
2025-06-26 18:14:05.197408,599617677750416615,24.00
2025-06-26 18:14:05.197408,599617677750416615,428.00
2025-06-26 18:14:05.197408,599617677750416615,1275.00
2025-06-26 18:14:05.197408,599617677750416615,2107.00
2025-06-26 18:14:05.197408,599617677750416615,2063.00
2025-06-26 18:14:05.197408,599617677750416615,1021.00
2025-06-26 18:14:05.197408,599617677750416615,-41.00
2025-06-26 18:14:05.197408,599617677750416615,-321.00
2025-06-26 18:14:05.197408,599617677750416615,-199.00
2025-06-26 18:14:05.197408,599617677750416615,-282.00
2025-06-26 18:14:05.197408,599617677750416615,-379.00
2025-06-26 18:14:05.197408,599617677750416615,-318.00
2025-06-26 18:14:05.197408,599617677750416615,-304.00
2025-06-26 18:14:05.197408,599617677750416615,-326.00
2025-06-26 18:14:05.197408,599617677750416615,-296.00
2025-06-26 18:14:05.197408,599617677750416615,-272.00
2025-06-26 18:14:05.197408,599617677750416615,-277.00
2025-06-26 18:14:05.197408,599617677750416615,-262.00
2025-06-26 18:14:05.197408,599617677750416615,-233.00
2025-06-26 18:14:05.197408,599617677750416615,-223.00
2025-06-26 18:14:05.197408,599617677750416615,-214.00
2025-06-26 18:14:05.197408,599617677750416615,-189.00
2025-06-26 18:14:05.197408,599617677750416615,-175.00
2025-06-26 18:14:05.197408,599617677750416615,-165.00
2025-06-26 18:14:05.197408,599617677750416615,-153.00
2025-06-26 18:14:05.197408,599617677750416615,-141.00
2025-06-26 18:14:05.197408,599617677750416615,-141.00
2025-06-26 18:14:05.197408,599617677750416615,-148.00
2025-06-26 18:14:05.197408,599617677750416615,-148.00
2025-06-26 18:14:05.197408,599617677750416615,-153.00
2025-06-26 18:14:05.197408,599617677750416615,-163.00
2025-06-26 18:14:05.197408,599617677750416615,-165.00
2025-06-26 18:14:05.197408,599617677750416615,-165.00
2025-06-26 18:14:05.197408,599617677750416615,-167.00
2025-06-26 18:14:05.197408,599617677750416615,-165.00
2025-06-26 18:14:05.197408,599617677750416615,-163.00
2025-06-26 18:14:05.197408,599617677750416615,-160.00
2025-06-26 18:14:05.197408,599617677750416615,-158.00
2025-06-26 18:14:05.197408,599617677750416615,-155.00
2025-06-26 18:14:05.197408,599617677750416615,-155.00
2025-06-26 18:14:05.197408,599617677750416615,-150.00
2025-06-26 18:14:05.197408,599617677750416615,-145.00
2025-06-26 18:14:05.197408,599617677750416615,-145.00
2025-06-26 18:14:05.197408,599617677750416615,-141.00
2025-06-26 18:14:05.197408,599617677750416615,-128.00
2025-06-26 18:14:05.197408,599617677750416615,-119.00
2025-06-26 18:14:05.197408,599617677750416615,-116.00
2025-06-26 18:14:05.197408,599617677750416615,-111.00
2025-06-26 18:14:05.197408,599617677750416615,-99.00
2025-06-26 18:14:05.197408,599617677750416615,-94.00
2025-06-26 18:14:05.737282,599617678311113656,-94.00
2025-06-26 18:14:05.737282,599617678311113656,-92.00
2025-06-26 18:14:05.737282,599617678311113656,-85.00
2025-06-26 18:14:05.737282,599617678311113656,-82.00
2025-06-26 18:14:05.737282,599617678311113656,-87.00
2025-06-26 18:14:05.737282,599617678311113656,-85.00
2025-06-26 18:14:05.737282,599617678311113656,-82.00
2025-06-26 18:14:05.737282,599617678311113656,-82.00
2025-06-26 18:14:05.737282,599617678311113656,-80.00
2025-06-26 18:14:05.737282,599617678311113656,-77.00
2025-06-26 18:14:05.737282,599617678311113656,-82.00
2025-06-26 18:14:05.737282,599617678311113656,-92.00
2025-06-26 18:14:05.737282,599617678311113656,-102.00
2025-06-26 18:14:05.737282,599617678311113656,-111.00
2025-06-26 18:14:05.737282,599617678311113656,-107.00
2025-06-26 18:14:05.737282,599617678311113656,-92.00
2025-06-26 18:14:05.737282,599617678311113656,-82.00
2025-06-26 18:14:05.737282,599617678311113656,-70.00
2025-06-26 18:14:05.737282,599617678311113656,-36.00
2025-06-26 18:14:05.737282,599617678311113656,-14.00
2025-06-26 18:14:05.737282,599617678311113656,-38.00
2025-06-26 18:14:05.737282,599617678311113656,-68.00
2025-06-26 18:14:05.737282,599617678311113656,-63.00
2025-06-26 18:14:05.737282,599617678311113656,-55.00
2025-06-26 18:14:05.737282,599617678311113656,-60.00
2025-06-26 18:14:05.737282,599617678311113656,-55.00
2025-06-26 18:14:05.737282,599617678311113656,-51.00
2025-06-26 18:14:05.737282,599617678311113656,-60.00
2025-06-26 18:14:05.737282,599617678311113656,-68.00
2025-06-26 18:14:05.737282,599617678311113656,-53.00
2025-06-26 18:14:05.737282,599617678311113656,63.00
2025-06-26 18:14:05.737282,599617678311113656,528.00
2025-06-26 18:14:05.737282,599617678311113656,1430.00
2025-06-26 18:14:05.737282,599617678311113656,2202.00
2025-06-26 18:14:05.737282,599617678311113656,1975.00
2025-06-26 18:14:05.737282,599617678311113656,820.00
2025-06-26 18:14:05.737282,599617678311113656,-148.00
2025-06-26 18:14:05.737282,599617678311113656,-301.00
2025-06-26 18:14:05.737282,599617678311113656,-194.00
2025-06-26 18:14:05.737282,599617678311113656,-306.00
2025-06-26 18:14:05.737282,599617678311113656,-372.00
2025-06-26 18:14:05.737282,599617678311113656,-304.00
2025-06-26 18:14:05.737282,599617678311113656,-291.00
2025-06-26 18:14:05.737282,599617678311113656,-309.00
2025-06-26 18:14:05.737282,599617678311113656,-282.00
2025-06-26 18:14:05.737282,599617678311113656,-260.00
2025-06-26 18:14:05.737282,599617678311113656,-255.00
2025-06-26 18:14:05.737282,599617678311113656,-238.00
2025-06-26 18:14:05.737282,599617678311113656,-221.00
2025-06-26 18:14:05.737282,599617678311113656,-209.00
2025-06-26 18:14:05.737282,599617678311113656,-189.00
2025-06-26 18:14:05.737282,599617678311113656,-175.00
2025-06-26 18:14:05.737282,599617678311113656,-165.00
2025-06-26 18:14:05.737282,599617678311113656,-150.00
2025-06-26 18:14:05.737282,599617678311113656,-133.00
2025-06-26 18:14:05.737282,599617678311113656,-126.00
2025-06-26 18:14:05.737282,599617678311113656,-131.00
2025-06-26 18:14:05.737282,599617678311113656,-133.00
2025-06-26 18:14:05.737282,599617678311113656,-138.00
2025-06-26 18:14:05.737282,599617678311113656,-148.00
2025-06-26 18:14:05.737282,599617678311113656,-153.00
2025-06-26 18:14:05.737282,599617678311113656,-153.00
2025-06-26 18:14:05.737282,599617678311113656,-148.00
2025-06-26 18:14:05.737282,599617678311113656,-148.00
2025-06-26 18:14:05.737282,599617678311113656,-150.00
2025-06-26 18:14:05.737282,599617678311113656,-148.00
2025-06-26 18:14:05.737282,599617678311113656,-143.00
2025-06-26 18:14:05.737282,599617678311113656,-143.00
2025-06-26 18:14:05.737282,599617678311113656,-141.00
2025-06-26 18:14:05.737282,599617678311113656,-136.00
2025-06-26 18:14:05.737282,599617678311113656,-136.00
2025-06-26 18:14:05.737282,599617678311113656,-133.00
2025-06-26 18:14:05.737282,599617678311113656,-124.00
2025-06-26 18:14:06.307785,599617678871841215,-116.00
2025-06-26 18:14:06.307785,599617678871841215,-109.00
2025-06-26 18:14:06.307785,599617678871841215,-107.00
2025-06-26 18:14:06.307785,599617678871841215,-102.00
2025-06-26 18:14:06.307785,599617678871841215,-97.00
2025-06-26 18:14:06.307785,599617678871841215,-92.00
2025-06-26 18:14:06.307785,599617678871841215,-87.00
2025-06-26 18:14:06.307785,599617678871841215,-85.00
2025-06-26 18:14:06.307785,599617678871841215,-80.00
2025-06-26 18:14:06.307785,599617678871841215,-77.00
2025-06-26 18:14:06.307785,599617678871841215,-75.00
2025-06-26 18:14:06.307785,599617678871841215,-72.00
2025-06-26 18:14:06.307785,599617678871841215,-72.00
2025-06-26 18:14:06.307785,599617678871841215,-68.00
2025-06-26 18:14:06.307785,599617678871841215,-65.00
2025-06-26 18:14:06.307785,599617678871841215,-68.00
2025-06-26 18:14:06.307785,599617678871841215,-70.00
2025-06-26 18:14:06.307785,599617678871841215,-70.00
2025-06-26 18:14:06.307785,599617678871841215,-72.00
2025-06-26 18:14:06.307785,599617678871841215,-80.00
2025-06-26 18:14:06.307785,599617678871841215,-92.00
2025-06-26 18:14:06.307785,599617678871841215,-102.00
2025-06-26 18:14:06.307785,599617678871841215,-94.00
2025-06-26 18:14:06.307785,599617678871841215,-80.00
2025-06-26 18:14:06.307785,599617678871841215,-72.00
2025-06-26 18:14:06.307785,599617678871841215,-60.00
2025-06-26 18:14:06.307785,599617678871841215,-29.00
2025-06-26 18:14:06.307785,599617678871841215,-7.00
2025-06-26 18:14:06.307785,599617678871841215,-26.00
2025-06-26 18:14:06.307785,599617678871841215,-58.00
2025-06-26 18:14:06.307785,599617678871841215,-60.00
2025-06-26 18:14:06.307785,599617678871841215,-48.00
2025-06-26 18:14:06.307785,599617678871841215,-46.00
2025-06-26 18:14:06.307785,599617678871841215,-51.00
2025-06-26 18:14:06.307785,599617678871841215,-53.00
2025-06-26 18:14:06.307785,599617678871841215,-51.00
2025-06-26 18:14:06.307785,599617678871841215,-53.00
2025-06-26 18:14:06.307785,599617678871841215,-46.00
2025-06-26 18:14:06.307785,599617678871841215,46.00
2025-06-26 18:14:06.307785,599617678871841215,459.00
2025-06-26 18:14:06.307785,599617678871841215,1330.00
2025-06-26 18:14:06.307785,599617678871841215,2172.00
2025-06-26 18:14:06.307785,599617678871841215,2080.00
2025-06-26 18:14:06.307785,599617678871841215,961.00
2025-06-26 18:14:06.307785,599617678871841215,-94.00
2025-06-26 18:14:06.307785,599617678871841215,-309.00
2025-06-26 18:14:06.307785,599617678871841215,-184.00
2025-06-26 18:14:06.307785,599617678871841215,-289.00
2025-06-26 18:14:06.307785,599617678871841215,-369.00
2025-06-26 18:14:06.307785,599617678871841215,-299.00
2025-06-26 18:14:06.307785,599617678871841215,-287.00
2025-06-26 18:14:06.307785,599617678871841215,-309.00
2025-06-26 18:14:06.307785,599617678871841215,-279.00
2025-06-26 18:14:06.307785,599617678871841215,-257.00
2025-06-26 18:14:06.307785,599617678871841215,-255.00
2025-06-26 18:14:06.307785,599617678871841215,-238.00
2025-06-26 18:14:06.307785,599617678871841215,-218.00
2025-06-26 18:14:06.307785,599617678871841215,-209.00
2025-06-26 18:14:06.307785,599617678871841215,-192.00
2025-06-26 18:14:06.307785,599617678871841215,-172.00
2025-06-26 18:14:06.307785,599617678871841215,-163.00
2025-06-26 18:14:06.307785,599617678871841215,-153.00
2025-06-26 18:14:06.307785,599617678871841215,-138.00
2025-06-26 18:14:06.307785,599617678871841215,-128.00
2025-06-26 18:14:06.307785,599617678871841215,-128.00
2025-06-26 18:14:06.307785,599617678871841215,-133.00
2025-06-26 18:14:06.307785,599617678871841215,-141.00
2025-06-26 18:14:06.307785,599617678871841215,-145.00
2025-06-26 18:14:06.307785,599617678871841215,-153.00
2025-06-26 18:14:06.307785,599617678871841215,-155.00
2025-06-26 18:14:06.307785,599617678871841215,-153.00
2025-06-26 18:14:06.307785,599617678871841215,-150.00
2025-06-26 18:14:06.307785,599617678871841215,-148.00
2025-06-26 18:14:06.847544,599617679432538256,-143.00
2025-06-26 18:14:06.847544,599617679432538256,-136.00
2025-06-26 18:14:06.847544,599617679432538256,-133.00
2025-06-26 18:14:06.847544,599617679432538256,-131.00
2025-06-26 18:14:06.847544,599617679432538256,-131.00
2025-06-26 18:14:06.847544,599617679432538256,-131.00
2025-06-26 18:14:06.847544,599617679432538256,-124.00
2025-06-26 18:14:06.847544,599617679432538256,-114.00
2025-06-26 18:14:06.847544,599617679432538256,-111.00
2025-06-26 18:14:06.847544,599617679432538256,-104.00
2025-06-26 18:14:06.847544,599617679432538256,-97.00
2025-06-26 18:14:06.847544,599617679432538256,-94.00
2025-06-26 18:14:06.847544,599617679432538256,-92.00
2025-06-26 18:14:06.847544,599617679432538256,-85.00
2025-06-26 18:14:06.847544,599617679432538256,-80.00
2025-06-26 18:14:06.847544,599617679432538256,-80.00
2025-06-26 18:14:06.847544,599617679432538256,-80.00
2025-06-26 18:14:06.847544,599617679432538256,-75.00
2025-06-26 18:14:06.847544,599617679432538256,-72.00
2025-06-26 18:14:06.847544,599617679432538256,-72.00
2025-06-26 18:14:06.847544,599617679432538256,-75.00
2025-06-26 18:14:06.847544,599617679432538256,-72.00
2025-06-26 18:14:06.847544,599617679432538256,-65.00
2025-06-26 18:14:06.847544,599617679432538256,-65.00
2025-06-26 18:14:06.847544,599617679432538256,-65.00
2025-06-26 18:14:06.847544,599617679432538256,-68.00
2025-06-26 18:14:06.847544,599617679432538256,-68.00
2025-06-26 18:14:06.847544,599617679432538256,-68.00
2025-06-26 18:14:06.847544,599617679432538256,-70.00
2025-06-26 18:14:06.847544,599617679432538256,-82.00
2025-06-26 18:14:06.847544,599617679432538256,-92.00
2025-06-26 18:14:06.847544,599617679432538256,-92.00
2025-06-26 18:14:06.847544,599617679432538256,-77.00
2025-06-26 18:14:06.847544,599617679432538256,-68.00
2025-06-26 18:14:06.847544,599617679432538256,-65.00
2025-06-26 18:14:06.847544,599617679432538256,-38.00
2025-06-26 18:14:06.847544,599617679432538256,-2.00
2025-06-26 18:14:06.847544,599617679432538256,-7.00
2025-06-26 18:14:06.847544,599617679432538256,-38.00
2025-06-26 18:14:06.847544,599617679432538256,-51.00
2025-06-26 18:14:06.847544,599617679432538256,-41.00
2025-06-26 18:14:06.847544,599617679432538256,-36.00
2025-06-26 18:14:06.847544,599617679432538256,-41.00
2025-06-26 18:14:06.847544,599617679432538256,-41.00
2025-06-26 18:14:06.847544,599617679432538256,-38.00
2025-06-26 18:14:06.847544,599617679432538256,-43.00
2025-06-26 18:14:06.847544,599617679432538256,-36.00
2025-06-26 18:14:06.847544,599617679432538256,-4.00
2025-06-26 18:14:06.847544,599617679432538256,194.00
2025-06-26 18:14:06.847544,599617679432538256,827.00
2025-06-26 18:14:06.847544,599617679432538256,1788.00
2025-06-26 18:14:06.847544,599617679432538256,2282.00
2025-06-26 18:14:06.847544,599617679432538256,1625.00
2025-06-26 18:14:06.847544,599617679432538256,372.00
2025-06-26 18:14:06.847544,599617679432538256,-282.00
2025-06-26 18:14:06.847544,599617679432538256,-214.00
2025-06-26 18:14:06.847544,599617679432538256,-192.00
2025-06-26 18:14:06.847544,599617679432538256,-333.00
2025-06-26 18:14:06.847544,599617679432538256,-321.00
2025-06-26 18:14:06.847544,599617679432538256,-267.00
2025-06-26 18:14:06.847544,599617679432538256,-289.00
2025-06-26 18:14:06.847544,599617679432538256,-284.00
2025-06-26 18:14:06.847544,599617679432538256,-250.00
2025-06-26 18:14:06.847544,599617679432538256,-243.00
2025-06-26 18:14:06.847544,599617679432538256,-236.00
2025-06-26 18:14:06.847544,599617679432538256,-214.00
2025-06-26 18:14:06.847544,599617679432538256,-197.00
2025-06-26 18:14:06.847544,599617679432538256,-187.00
2025-06-26 18:14:06.847544,599617679432538256,-172.00
2025-06-26 18:14:06.847544,599617679432538256,-155.00
2025-06-26 18:14:06.847544,599617679432538256,-145.00
2025-06-26 18:14:06.847544,599617679432538256,-136.00
2025-06-26 18:14:06.847544,599617679432538256,-128.00
2025-06-26 18:14:07.423110,599617679993265815,-124.00
2025-06-26 18:14:07.423110,599617679993265815,-128.00
2025-06-26 18:14:07.423110,599617679993265815,-138.00
2025-06-26 18:14:07.423110,599617679993265815,-145.00
2025-06-26 18:14:07.423110,599617679993265815,-153.00
2025-06-26 18:14:07.423110,599617679993265815,-153.00
2025-06-26 18:14:07.423110,599617679993265815,-145.00
2025-06-26 18:14:07.423110,599617679993265815,-138.00
2025-06-26 18:14:07.423110,599617679993265815,-133.00
2025-06-26 18:14:07.423110,599617679993265815,-126.00
2025-06-26 18:14:07.423110,599617679993265815,-121.00
2025-06-26 18:14:07.423110,599617679993265815,-116.00
2025-06-26 18:14:07.423110,599617679993265815,-114.00
2025-06-26 18:14:07.423110,599617679993265815,-109.00
2025-06-26 18:14:07.423110,599617679993265815,-107.00
2025-06-26 18:14:07.423110,599617679993265815,-104.00
2025-06-26 18:14:07.423110,599617679993265815,-102.00
2025-06-26 18:14:07.423110,599617679993265815,-92.00
2025-06-26 18:14:07.423110,599617679993265815,-87.00
2025-06-26 18:14:07.423110,599617679993265815,-82.00
2025-06-26 18:14:07.423110,599617679993265815,-77.00
2025-06-26 18:14:07.423110,599617679993265815,-72.00
2025-06-26 18:14:07.423110,599617679993265815,-70.00
2025-06-26 18:14:07.423110,599617679993265815,-65.00
2025-06-26 18:14:07.423110,599617679993265815,-63.00
2025-06-26 18:14:07.423110,599617679993265815,-63.00
2025-06-26 18:14:07.423110,599617679993265815,-60.00
2025-06-26 18:14:07.423110,599617679993265815,-58.00
2025-06-26 18:14:07.423110,599617679993265815,-58.00
2025-06-26 18:14:07.423110,599617679993265815,-58.00
2025-06-26 18:14:07.423110,599617679993265815,-58.00
2025-06-26 18:14:07.423110,599617679993265815,-58.00
2025-06-26 18:14:07.423110,599617679993265815,-60.00
2025-06-26 18:14:07.423110,599617679993265815,-55.00
2025-06-26 18:14:07.423110,599617679993265815,-55.00
2025-06-26 18:14:07.423110,599617679993265815,-55.00
2025-06-26 18:14:07.423110,599617679993265815,-55.00
2025-06-26 18:14:07.423110,599617679993265815,-55.00
2025-06-26 18:14:07.423110,599617679993265815,-55.00
2025-06-26 18:14:07.423110,599617679993265815,-53.00
2025-06-26 18:14:07.423110,599617679993265815,-55.00
2025-06-26 18:14:07.423110,599617679993265815,-63.00
2025-06-26 18:14:07.423110,599617679993265815,-72.00
2025-06-26 18:14:07.423110,599617679993265815,-82.00
2025-06-26 18:14:07.423110,599617679993265815,-80.00
2025-06-26 18:14:07.423110,599617679993265815,-60.00
2025-06-26 18:14:07.423110,599617679993265815,-55.00
2025-06-26 18:14:07.423110,599617679993265815,-48.00
2025-06-26 18:14:07.423110,599617679993265815,-14.00
2025-06-26 18:14:07.423110,599617679993265815,12.00
2025-06-26 18:14:07.423110,599617679993265815,-7.00
2025-06-26 18:14:07.423110,599617679993265815,-36.00
2025-06-26 18:14:07.423110,599617679993265815,-38.00
2025-06-26 18:14:07.423110,599617679993265815,-29.00
2025-06-26 18:14:07.423110,599617679993265815,-29.00
2025-06-26 18:14:07.423110,599617679993265815,-31.00
2025-06-26 18:14:07.423110,599617679993265815,-31.00
2025-06-26 18:14:07.423110,599617679993265815,-31.00
2025-06-26 18:14:07.423110,599617679993265815,-29.00
2025-06-26 18:14:07.423110,599617679993265815,-17.00
2025-06-26 18:14:07.423110,599617679993265815,58.00
2025-06-26 18:14:07.423110,599617679993265815,403.00
2025-06-26 18:14:07.423110,599617679993265815,1206.00
2025-06-26 18:14:07.423110,599617679993265815,2087.00
2025-06-26 18:14:07.423110,599617679993265815,2151.00
2025-06-26 18:14:07.423110,599617679993265815,1133.00
2025-06-26 18:14:07.423110,599617679993265815,12.00
2025-06-26 18:14:07.423110,599617679993265815,-291.00
2025-06-26 18:14:07.423110,599617679993265815,-150.00
2025-06-26 18:14:07.423110,599617679993265815,-233.00
2025-06-26 18:14:07.423110,599617679993265815,-340.00
2025-06-26 18:14:07.423110,599617679993265815,-277.00
2025-06-26 18:14:07.423110,599617679993265815,-255.00
2025-06-26 18:14:07.963695,599617680553962856,-282.00
2025-06-26 18:14:07.963695,599617680553962856,-255.00
2025-06-26 18:14:07.963695,599617680553962856,-228.00
2025-06-26 18:14:07.963695,599617680553962856,-228.00
2025-06-26 18:14:07.963695,599617680553962856,-216.00
2025-06-26 18:14:07.963695,599617680553962856,-194.00
2025-06-26 18:14:07.963695,599617680553962856,-180.00
2025-06-26 18:14:07.963695,599617680553962856,-165.00
2025-06-26 18:14:07.963695,599617680553962856,-158.00
2025-06-26 18:14:07.963695,599617680553962856,-148.00
2025-06-26 18:14:07.963695,599617680553962856,-128.00
2025-06-26 18:14:07.963695,599617680553962856,-119.00
2025-06-26 18:14:07.963695,599617680553962856,-124.00
2025-06-26 18:14:07.963695,599617680553962856,-126.00
2025-06-26 18:14:07.963695,599617680553962856,-131.00
2025-06-26 18:14:07.963695,599617680553962856,-138.00
2025-06-26 18:14:07.963695,599617680553962856,-145.00
2025-06-26 18:14:07.963695,599617680553962856,-153.00
2025-06-26 18:14:07.963695,599617680553962856,-155.00
2025-06-26 18:14:07.963695,599617680553962856,-150.00
2025-06-26 18:14:07.963695,599617680553962856,-141.00
2025-06-26 18:14:07.963695,599617680553962856,-131.00
2025-06-26 18:14:07.963695,599617680553962856,-124.00
2025-06-26 18:14:07.963695,599617680553962856,-114.00
2025-06-26 18:14:07.963695,599617680553962856,-107.00
2025-06-26 18:14:07.963695,599617680553962856,-107.00
2025-06-26 18:14:07.963695,599617680553962856,-109.00
2025-06-26 18:14:07.963695,599617680553962856,-107.00
2025-06-26 18:14:07.963695,599617680553962856,-102.00
2025-06-26 18:14:07.963695,599617680553962856,-94.00
2025-06-26 18:14:07.963695,599617680553962856,-87.00
2025-06-26 18:14:07.963695,599617680553962856,-82.00
2025-06-26 18:14:07.963695,599617680553962856,-77.00
2025-06-26 18:14:07.963695,599617680553962856,-72.00
2025-06-26 18:14:07.963695,599617680553962856,-70.00
2025-06-26 18:14:07.963695,599617680553962856,-68.00
2025-06-26 18:14:07.963695,599617680553962856,-63.00
2025-06-26 18:14:07.963695,599617680553962856,-60.00
2025-06-26 18:14:07.963695,599617680553962856,-60.00
2025-06-26 18:14:07.963695,599617680553962856,-60.00
2025-06-26 18:14:07.963695,599617680553962856,-63.00
2025-06-26 18:14:07.963695,599617680553962856,-60.00
2025-06-26 18:14:07.963695,599617680553962856,-55.00
2025-06-26 18:14:07.963695,599617680553962856,-58.00
2025-06-26 18:14:07.963695,599617680553962856,-63.00
2025-06-26 18:14:07.963695,599617680553962856,-63.00
2025-06-26 18:14:07.963695,599617680553962856,-65.00
2025-06-26 18:14:07.963695,599617680553962856,-65.00
2025-06-26 18:14:07.963695,599617680553962856,-63.00
2025-06-26 18:14:07.963695,599617680553962856,-63.00
2025-06-26 18:14:07.963695,599617680553962856,-65.00
2025-06-26 18:14:07.963695,599617680553962856,-63.00
2025-06-26 18:14:07.963695,599617680553962856,-68.00
2025-06-26 18:14:07.963695,599617680553962856,-75.00
2025-06-26 18:14:07.963695,599617680553962856,-85.00
2025-06-26 18:14:07.963695,599617680553962856,-92.00
2025-06-26 18:14:07.963695,599617680553962856,-85.00
2025-06-26 18:14:07.963695,599617680553962856,-70.00
2025-06-26 18:14:07.963695,599617680553962856,-65.00
2025-06-26 18:14:07.963695,599617680553962856,-48.00
2025-06-26 18:14:07.963695,599617680553962856,-14.00
2025-06-26 18:14:07.963695,599617680553962856,-4.00
2025-06-26 18:14:07.963695,599617680553962856,-31.00
2025-06-26 18:14:07.963695,599617680553962856,-53.00
2025-06-26 18:14:07.963695,599617680553962856,-51.00
2025-06-26 18:14:07.963695,599617680553962856,-41.00
2025-06-26 18:14:07.963695,599617680553962856,-41.00
2025-06-26 18:14:07.963695,599617680553962856,-48.00
2025-06-26 18:14:07.963695,599617680553962856,-51.00
2025-06-26 18:14:07.963695,599617680553962856,-48.00
2025-06-26 18:14:07.963695,599617680553962856,-46.00
2025-06-26 18:14:07.963695,599617680553962856,-19.00
2025-06-26 18:14:07.963695,599617680553962856,133.00
2025-06-26 18:14:08.559877,599617681114690417,613.00
2025-06-26 18:14:08.559877,599617681114690417,1438.00
2025-06-26 18:14:08.559877,599617681114690417,2065.00
2025-06-26 18:14:08.559877,599617681114690417,1744.00
2025-06-26 18:14:08.559877,599617681114690417,615.00
2025-06-26 18:14:08.559877,599617681114690417,-221.00
2025-06-26 18:14:08.559877,599617681114690417,-245.00
2025-06-26 18:14:08.559877,599617681114690417,-136.00
2025-06-26 18:14:08.559877,599617681114690417,-282.00
2025-06-26 18:14:08.559877,599617681114690417,-333.00
2025-06-26 18:14:08.559877,599617681114690417,-262.00
2025-06-26 18:14:08.559877,599617681114690417,-274.00
2025-06-26 18:14:08.559877,599617681114690417,-289.00
2025-06-26 18:14:08.559877,599617681114690417,-253.00
2025-06-26 18:14:08.559877,599617681114690417,-238.00
2025-06-26 18:14:08.559877,599617681114690417,-236.00
2025-06-26 18:14:08.559877,599617681114690417,-216.00
2025-06-26 18:14:08.559877,599617681114690417,-201.00
2025-06-26 18:14:08.559877,599617681114690417,-197.00
2025-06-26 18:14:08.559877,599617681114690417,-182.00
2025-06-26 18:14:08.559877,599617681114690417,-165.00
2025-06-26 18:14:08.559877,599617681114690417,-153.00
2025-06-26 18:14:08.559877,599617681114690417,-148.00
2025-06-26 18:14:08.559877,599617681114690417,-141.00
2025-06-26 18:14:08.559877,599617681114690417,-138.00
2025-06-26 18:14:08.559877,599617681114690417,-143.00
2025-06-26 18:14:08.559877,599617681114690417,-158.00
2025-06-26 18:14:08.559877,599617681114690417,-170.00
2025-06-26 18:14:08.559877,599617681114690417,-180.00
2025-06-26 18:14:08.559877,599617681114690417,-182.00
2025-06-26 18:14:08.559877,599617681114690417,-175.00
2025-06-26 18:14:08.559877,599617681114690417,-167.00
2025-06-26 18:14:08.559877,599617681114690417,-153.00
2025-06-26 18:14:08.559877,599617681114690417,-141.00
2025-06-26 18:14:08.559877,599617681114690417,-136.00
2025-06-26 18:14:08.559877,599617681114690417,-136.00
2025-06-26 18:14:08.559877,599617681114690417,-126.00
2025-06-26 18:14:08.559877,599617681114690417,-119.00
2025-06-26 18:14:08.559877,599617681114690417,-126.00
2025-06-26 18:14:08.559877,599617681114690417,-131.00
2025-06-26 18:14:08.559877,599617681114690417,-119.00
2025-06-26 18:14:08.559877,599617681114690417,-111.00
2025-06-26 18:14:08.559877,599617681114690417,-109.00
2025-06-26 18:14:08.559877,599617681114690417,-104.00
2025-06-26 18:14:08.559877,599617681114690417,-97.00
2025-06-26 18:14:08.559877,599617681114690417,-94.00
2025-06-26 18:14:08.559877,599617681114690417,-87.00
2025-06-26 18:14:08.559877,599617681114690417,-75.00
2025-06-26 18:14:08.559877,599617681114690417,-68.00
2025-06-26 18:14:08.559877,599617681114690417,-68.00
2025-06-26 18:14:08.559877,599617681114690417,-63.00
2025-06-26 18:14:08.559877,599617681114690417,-63.00
2025-06-26 18:14:08.559877,599617681114690417,-63.00
2025-06-26 18:14:08.559877,599617681114690417,-65.00
2025-06-26 18:14:08.559877,599617681114690417,-72.00
2025-06-26 18:14:08.559877,599617681114690417,-75.00
2025-06-26 18:14:08.559877,599617681114690417,-75.00
2025-06-26 18:14:08.559877,599617681114690417,-80.00
2025-06-26 18:14:08.559877,599617681114690417,-77.00
2025-06-26 18:14:08.559877,599617681114690417,-68.00
2025-06-26 18:14:08.559877,599617681114690417,-68.00
2025-06-26 18:14:08.559877,599617681114690417,-82.00
2025-06-26 18:14:08.559877,599617681114690417,-80.00
2025-06-26 18:14:08.559877,599617681114690417,-70.00
2025-06-26 18:14:08.559877,599617681114690417,-72.00
2025-06-26 18:14:08.559877,599617681114690417,-77.00
2025-06-26 18:14:08.559877,599617681114690417,-80.00
2025-06-26 18:14:08.559877,599617681114690417,-90.00
2025-06-26 18:14:08.559877,599617681114690417,-94.00
2025-06-26 18:14:08.559877,599617681114690417,-94.00
2025-06-26 18:14:08.559877,599617681114690417,-92.00
2025-06-26 18:14:08.559877,599617681114690417,-85.00
2025-06-26 18:14:08.559877,599617681114690417,-75.00
2025-06-26 18:14:09.158374,599617681675387458,-48.00
2025-06-26 18:14:09.158374,599617681675387458,-19.00
2025-06-26 18:14:09.158374,599617681675387458,-19.00
2025-06-26 18:14:09.158374,599617681675387458,-48.00
2025-06-26 18:14:09.158374,599617681675387458,-65.00
2025-06-26 18:14:09.158374,599617681675387458,-58.00
2025-06-26 18:14:09.158374,599617681675387458,-51.00
2025-06-26 18:14:09.158374,599617681675387458,-53.00
2025-06-26 18:14:09.158374,599617681675387458,-55.00
2025-06-26 18:14:09.158374,599617681675387458,-58.00
2025-06-26 18:14:09.158374,599617681675387458,-58.00
2025-06-26 18:14:09.158374,599617681675387458,-46.00
2025-06-26 18:14:09.158374,599617681675387458,2.00
2025-06-26 18:14:09.158374,599617681675387458,221.00
2025-06-26 18:14:09.158374,599617681675387458,841.00
2025-06-26 18:14:09.158374,599617681675387458,1744.00
2025-06-26 18:14:09.158374,599617681675387458,2170.00
2025-06-26 18:14:09.158374,599617681675387458,1528.00
2025-06-26 18:14:09.158374,599617681675387458,338.00
2025-06-26 18:14:09.158374,599617681675387458,-291.00
2025-06-26 18:14:09.158374,599617681675387458,-233.00
2025-06-26 18:14:09.158374,599617681675387458,-209.00
2025-06-26 18:14:09.158374,599617681675387458,-345.00
2025-06-26 18:14:09.158374,599617681675387458,-335.00
2025-06-26 18:14:09.158374,599617681675387458,-284.00
2025-06-26 18:14:09.158374,599617681675387458,-306.00
2025-06-26 18:14:09.158374,599617681675387458,-301.00
2025-06-26 18:14:09.158374,599617681675387458,-270.00
2025-06-26 18:14:09.158374,599617681675387458,-262.00
2025-06-26 18:14:09.158374,599617681675387458,-253.00
2025-06-26 18:14:09.158374,599617681675387458,-231.00
2025-06-26 18:14:09.158374,599617681675387458,-216.00
2025-06-26 18:14:09.158374,599617681675387458,-206.00
2025-06-26 18:14:09.158374,599617681675387458,-192.00
2025-06-26 18:14:09.158374,599617681675387458,-177.00
2025-06-26 18:14:09.158374,599617681675387458,-165.00
2025-06-26 18:14:09.158374,599617681675387458,-158.00
2025-06-26 18:14:09.158374,599617681675387458,-150.00
2025-06-26 18:14:09.158374,599617681675387458,-150.00
2025-06-26 18:14:09.158374,599617681675387458,-153.00
2025-06-26 18:14:09.158374,599617681675387458,-158.00
2025-06-26 18:14:09.158374,599617681675387458,-167.00
2025-06-26 18:14:09.158374,599617681675387458,-175.00
2025-06-26 18:14:09.158374,599617681675387458,-177.00
2025-06-26 18:14:09.158374,599617681675387458,-175.00
2025-06-26 18:14:09.158374,599617681675387458,-167.00
2025-06-26 18:14:09.158374,599617681675387458,-160.00
2025-06-26 18:14:09.158374,599617681675387458,-153.00
2025-06-26 18:14:09.158374,599617681675387458,-143.00
2025-06-26 18:14:09.158374,599617681675387458,-136.00
2025-06-26 18:14:09.158374,599617681675387458,-126.00
2025-06-26 18:14:09.158374,599617681675387458,-124.00
2025-06-26 18:14:09.158374,599617681675387458,-128.00
2025-06-26 18:14:09.158374,599617681675387458,-128.00
2025-06-26 18:14:09.158374,599617681675387458,-121.00
2025-06-26 18:14:09.158374,599617681675387458,-114.00
2025-06-26 18:14:09.158374,599617681675387458,-109.00
2025-06-26 18:14:09.158374,599617681675387458,-102.00
2025-06-26 18:14:09.158374,599617681675387458,-99.00
2025-06-26 18:14:09.158374,599617681675387458,-99.00
2025-06-26 18:14:09.158374,599617681675387458,-97.00
2025-06-26 18:14:09.158374,599617681675387458,-90.00
2025-06-26 18:14:09.158374,599617681675387458,-87.00
2025-06-26 18:14:09.158374,599617681675387458,-87.00
2025-06-26 18:14:09.158374,599617681675387458,-85.00
2025-06-26 18:14:09.158374,599617681675387458,-85.00
2025-06-26 18:14:09.158374,599617681675387458,-87.00
2025-06-26 18:14:09.158374,599617681675387458,-87.00
2025-06-26 18:14:09.158374,599617681675387458,-87.00
2025-06-26 18:14:09.158374,599617681675387458,-85.00
2025-06-26 18:14:09.158374,599617681675387458,-85.00
2025-06-26 18:14:09.158374,599617681675387458,-85.00
2025-06-26 18:14:09.158374,599617681675387458,-82.00
2025-06-26 18:14:09.668769,599617682236115017,-82.00
2025-06-26 18:14:09.668769,599617682236115017,-82.00
2025-06-26 18:14:09.668769,599617682236115017,-80.00
2025-06-26 18:14:09.668769,599617682236115017,-77.00
2025-06-26 18:14:09.668769,599617682236115017,-80.00
2025-06-26 18:14:09.668769,599617682236115017,-92.00
2025-06-26 18:14:09.668769,599617682236115017,-107.00
2025-06-26 18:14:09.668769,599617682236115017,-111.00
2025-06-26 18:14:09.668769,599617682236115017,-102.00
2025-06-26 18:14:09.668769,599617682236115017,-87.00
2025-06-26 18:14:09.668769,599617682236115017,-85.00
2025-06-26 18:14:09.668769,599617682236115017,-70.00
2025-06-26 18:14:09.668769,599617682236115017,-34.00
2025-06-26 18:14:09.668769,599617682236115017,-17.00
2025-06-26 18:14:09.668769,599617682236115017,-38.00
2025-06-26 18:14:09.668769,599617682236115017,-65.00
2025-06-26 18:14:09.668769,599617682236115017,-65.00
2025-06-26 18:14:09.668769,599617682236115017,-55.00
2025-06-26 18:14:09.668769,599617682236115017,-53.00
2025-06-26 18:14:09.668769,599617682236115017,-58.00
2025-06-26 18:14:09.668769,599617682236115017,-60.00
2025-06-26 18:14:09.668769,599617682236115017,-60.00
2025-06-26 18:14:09.668769,599617682236115017,-53.00
2025-06-26 18:14:09.668769,599617682236115017,-41.00
2025-06-26 18:14:09.668769,599617682236115017,53.00
2025-06-26 18:14:09.668769,599617682236115017,479.00
2025-06-26 18:14:09.668769,599617682236115017,1352.00
2025-06-26 18:14:09.668769,599617682236115017,2153.00
2025-06-26 18:14:09.668769,599617682236115017,1997.00
2025-06-26 18:14:09.668769,599617682236115017,851.00
2025-06-26 18:14:09.668769,599617682236115017,-155.00
2025-06-26 18:14:09.668769,599617682236115017,-309.00
2025-06-26 18:14:09.668769,599617682236115017,-187.00
2025-06-26 18:14:09.668769,599617682236115017,-301.00
2025-06-26 18:14:09.668769,599617682236115017,-367.00
2025-06-26 18:14:09.668769,599617682236115017,-296.00
2025-06-26 18:14:09.668769,599617682236115017,-296.00
2025-06-26 18:14:09.668769,599617682236115017,-318.00
2025-06-26 18:14:09.668769,599617682236115017,-282.00
2025-06-26 18:14:09.668769,599617682236115017,-257.00
2025-06-26 18:14:09.668769,599617682236115017,-257.00
2025-06-26 18:14:09.668769,599617682236115017,-240.00
2025-06-26 18:14:09.668769,599617682236115017,-218.00
2025-06-26 18:14:09.668769,599617682236115017,-209.00
2025-06-26 18:14:09.668769,599617682236115017,-194.00
2025-06-26 18:14:09.668769,599617682236115017,-180.00
2025-06-26 18:14:09.668769,599617682236115017,-170.00
2025-06-26 18:14:09.668769,599617682236115017,-160.00
2025-06-26 18:14:09.668769,599617682236115017,-148.00
2025-06-26 18:14:09.668769,599617682236115017,-145.00
2025-06-26 18:14:09.668769,599617682236115017,-148.00
2025-06-26 18:14:09.668769,599617682236115017,-155.00
2025-06-26 18:14:09.668769,599617682236115017,-165.00
2025-06-26 18:14:09.668769,599617682236115017,-177.00
2025-06-26 18:14:09.668769,599617682236115017,-182.00
2025-06-26 18:14:09.668769,599617682236115017,-182.00
2025-06-26 18:14:09.668769,599617682236115017,-177.00
2025-06-26 18:14:09.668769,599617682236115017,-172.00
2025-06-26 18:14:09.668769,599617682236115017,-160.00
2025-06-26 18:14:09.668769,599617682236115017,-150.00
2025-06-26 18:14:09.668769,599617682236115017,-143.00
2025-06-26 18:14:09.668769,599617682236115017,-138.00
2025-06-26 18:14:09.668769,599617682236115017,-138.00
2025-06-26 18:14:09.668769,599617682236115017,-133.00
2025-06-26 18:14:09.668769,599617682236115017,-133.00
2025-06-26 18:14:09.668769,599617682236115017,-131.00
2025-06-26 18:14:09.668769,599617682236115017,-121.00
2025-06-26 18:14:09.668769,599617682236115017,-111.00
2025-06-26 18:14:09.668769,599617682236115017,-107.00
2025-06-26 18:14:09.668769,599617682236115017,-104.00
2025-06-26 18:14:09.668769,599617682236115017,-99.00
2025-06-26 18:14:09.668769,599617682236115017,-94.00
2025-06-26 18:14:09.668769,599617682236115017,-90.00
2025-06-26 18:14:10.209067,599617682796812058,-85.00
2025-06-26 18:14:10.209067,599617682796812058,-80.00
2025-06-26 18:14:10.209067,599617682796812058,-80.00
2025-06-26 18:14:10.209067,599617682796812058,-77.00
2025-06-26 18:14:10.209067,599617682796812058,-75.00
2025-06-26 18:14:10.209067,599617682796812058,-77.00
2025-06-26 18:14:10.209067,599617682796812058,-75.00
2025-06-26 18:14:10.209067,599617682796812058,-72.00
2025-06-26 18:14:10.209067,599617682796812058,-72.00
2025-06-26 18:14:10.209067,599617682796812058,-72.00
2025-06-26 18:14:10.209067,599617682796812058,-72.00
2025-06-26 18:14:10.209067,599617682796812058,-72.00
2025-06-26 18:14:10.209067,599617682796812058,-70.00
2025-06-26 18:14:10.209067,599617682796812058,-75.00
2025-06-26 18:14:10.209067,599617682796812058,-85.00
2025-06-26 18:14:10.209067,599617682796812058,-99.00
2025-06-26 18:14:10.209067,599617682796812058,-104.00
2025-06-26 18:14:10.209067,599617682796812058,-94.00
2025-06-26 18:14:10.209067,599617682796812058,-85.00
2025-06-26 18:14:10.209067,599617682796812058,-82.00
2025-06-26 18:14:10.209067,599617682796812058,-63.00
2025-06-26 18:14:10.209067,599617682796812058,-26.00
2025-06-26 18:14:10.209067,599617682796812058,-17.00
2025-06-26 18:14:10.209067,599617682796812058,-46.00
2025-06-26 18:14:10.209067,599617682796812058,-65.00
2025-06-26 18:14:10.209067,599617682796812058,-58.00
2025-06-26 18:14:10.209067,599617682796812058,-53.00
2025-06-26 18:14:10.209067,599617682796812058,-51.00
2025-06-26 18:14:10.209067,599617682796812058,-48.00
2025-06-26 18:14:10.209067,599617682796812058,-51.00
2025-06-26 18:14:10.209067,599617682796812058,-55.00
2025-06-26 18:14:10.209067,599617682796812058,-51.00
2025-06-26 18:14:10.209067,599617682796812058,-38.00
2025-06-26 18:14:10.209067,599617682796812058,68.00
2025-06-26 18:14:10.209067,599617682796812058,510.00
2025-06-26 18:14:10.209067,599617682796812058,1384.00
2025-06-26 18:14:10.209067,599617682796812058,2160.00
2025-06-26 18:14:10.209067,599617682796812058,1966.00
2025-06-26 18:14:10.209067,599617682796812058,805.00
2025-06-26 18:14:10.209067,599617682796812058,-175.00
2025-06-26 18:14:10.209067,599617682796812058,-289.00
2025-06-26 18:14:10.209067,599617682796812058,-163.00
2025-06-26 18:14:10.209067,599617682796812058,-289.00
2025-06-26 18:14:10.209067,599617682796812058,-357.00
2025-06-26 18:14:10.209067,599617682796812058,-282.00
2025-06-26 18:14:10.209067,599617682796812058,-279.00
2025-06-26 18:14:10.209067,599617682796812058,-299.00
2025-06-26 18:14:10.209067,599617682796812058,-270.00
2025-06-26 18:14:10.209067,599617682796812058,-250.00
2025-06-26 18:14:10.209067,599617682796812058,-245.00
2025-06-26 18:14:10.209067,599617682796812058,-226.00
2025-06-26 18:14:10.209067,599617682796812058,-206.00
2025-06-26 18:14:10.209067,599617682796812058,-197.00
2025-06-26 18:14:10.209067,599617682796812058,-184.00
2025-06-26 18:14:10.209067,599617682796812058,-167.00
2025-06-26 18:14:10.209067,599617682796812058,-158.00
2025-06-26 18:14:10.209067,599617682796812058,-145.00
2025-06-26 18:14:10.209067,599617682796812058,-136.00
2025-06-26 18:14:10.209067,599617682796812058,-133.00
2025-06-26 18:14:10.209067,599617682796812058,-133.00
2025-06-26 18:14:10.209067,599617682796812058,-141.00
2025-06-26 18:14:10.209067,599617682796812058,-150.00
2025-06-26 18:14:10.209067,599617682796812058,-163.00
2025-06-26 18:14:10.209067,599617682796812058,-172.00
2025-06-26 18:14:10.209067,599617682796812058,-175.00
2025-06-26 18:14:10.209067,599617682796812058,-163.00
2025-06-26 18:14:10.209067,599617682796812058,-153.00
2025-06-26 18:14:10.209067,599617682796812058,-148.00
2025-06-26 18:14:10.209067,599617682796812058,-145.00
2025-06-26 18:14:10.209067,599617682796812058,-136.00
2025-06-26 18:14:10.209067,599617682796812058,-128.00
2025-06-26 18:14:10.209067,599617682796812058,-128.00
2025-06-26 18:14:10.209067,599617682796812058,-131.00
2025-06-26 18:14:10.777723,599617683357534529,-131.00
2025-06-26 18:14:10.777723,599617683357534529,-126.00
2025-06-26 18:14:10.777723,599617683357534529,-121.00
2025-06-26 18:14:10.777723,599617683357534529,-114.00
2025-06-26 18:14:10.777723,599617683357534529,-107.00
2025-06-26 18:14:10.777723,599617683357534529,-94.00
2025-06-26 18:14:10.777723,599617683357534529,-90.00
2025-06-26 18:14:10.777723,599617683357534529,-90.00
2025-06-26 18:14:10.777723,599617683357534529,-85.00
2025-06-26 18:14:10.777723,599617683357534529,-77.00
2025-06-26 18:14:10.777723,599617683357534529,-77.00
2025-06-26 18:14:10.777723,599617683357534529,-75.00
2025-06-26 18:14:10.777723,599617683357534529,-70.00
2025-06-26 18:14:10.777723,599617683357534529,-72.00
2025-06-26 18:14:10.777723,599617683357534529,-75.00
2025-06-26 18:14:10.777723,599617683357534529,-72.00
2025-06-26 18:14:10.777723,599617683357534529,-72.00
2025-06-26 18:14:10.777723,599617683357534529,-75.00
2025-06-26 18:14:10.777723,599617683357534529,-75.00
2025-06-26 18:14:10.777723,599617683357534529,-75.00
2025-06-26 18:14:10.777723,599617683357534529,-72.00
2025-06-26 18:14:10.777723,599617683357534529,-75.00
2025-06-26 18:14:10.777723,599617683357534529,-80.00
2025-06-26 18:14:10.777723,599617683357534529,-87.00
2025-06-26 18:14:10.777723,599617683357534529,-99.00
2025-06-26 18:14:10.777723,599617683357534529,-102.00
2025-06-26 18:14:10.777723,599617683357534529,-87.00
2025-06-26 18:14:10.777723,599617683357534529,-75.00
2025-06-26 18:14:10.777723,599617683357534529,-63.00
2025-06-26 18:14:10.777723,599617683357534529,-34.00
2025-06-26 18:14:10.777723,599617683357534529,-17.00
2025-06-26 18:14:10.777723,599617683357534529,-36.00
2025-06-26 18:14:10.777723,599617683357534529,-63.00
2025-06-26 18:14:10.777723,599617683357534529,-63.00
2025-06-26 18:14:10.777723,599617683357534529,-53.00
2025-06-26 18:14:10.777723,599617683357534529,-53.00
2025-06-26 18:14:10.777723,599617683357534529,-55.00
2025-06-26 18:14:10.777723,599617683357534529,-53.00
2025-06-26 18:14:10.777723,599617683357534529,-55.00
2025-06-26 18:14:10.777723,599617683357534529,-58.00
2025-06-26 18:14:10.777723,599617683357534529,-46.00
2025-06-26 18:14:10.777723,599617683357534529,51.00
2025-06-26 18:14:10.777723,599617683357534529,425.00
2025-06-26 18:14:10.777723,599617683357534529,1189.00
2025-06-26 18:14:10.777723,599617683357534529,1946.00
2025-06-26 18:14:10.777723,599617683357534529,1914.00
2025-06-26 18:14:10.777723,599617683357534529,934.00
2025-06-26 18:14:10.777723,599617683357534529,-87.00
2025-06-26 18:14:10.777723,599617683357534529,-311.00
2025-06-26 18:14:10.777723,599617683357534529,-138.00
2025-06-26 18:14:10.777723,599617683357534529,-231.00
2025-06-26 18:14:10.777723,599617683357534529,-350.00
2025-06-26 18:14:10.777723,599617683357534529,-274.00
2025-06-26 18:14:10.777723,599617683357534529,-253.00
2025-06-26 18:14:10.777723,599617683357534529,-294.00
2025-06-26 18:14:10.777723,599617683357534529,-267.00
2025-06-26 18:14:10.777723,599617683357534529,-233.00
2025-06-26 18:14:10.777723,599617683357534529,-233.00
2025-06-26 18:14:10.777723,599617683357534529,-223.00
2025-06-26 18:14:10.777723,599617683357534529,-201.00
2025-06-26 18:14:10.777723,599617683357534529,-189.00
2025-06-26 18:14:10.777723,599617683357534529,-180.00
2025-06-26 18:14:10.777723,599617683357534529,-165.00
2025-06-26 18:14:10.777723,599617683357534529,-150.00
2025-06-26 18:14:10.777723,599617683357534529,-136.00
2025-06-26 18:14:10.777723,599617683357534529,-128.00
2025-06-26 18:14:10.777723,599617683357534529,-128.00
2025-06-26 18:14:10.777723,599617683357534529,-131.00
2025-06-26 18:14:10.777723,599617683357534529,-136.00
2025-06-26 18:14:10.777723,599617683357534529,-145.00
2025-06-26 18:14:10.777723,599617683357534529,-160.00
2025-06-26 18:14:10.777723,599617683357534529,-170.00
2025-06-26 18:14:10.777723,599617683357534529,-170.00
2025-06-26 18:14:11.325729,599617683918236658,-163.00
2025-06-26 18:14:11.325729,599617683918236658,-158.00
2025-06-26 18:14:11.325729,599617683918236658,-150.00
2025-06-26 18:14:11.325729,599617683918236658,-141.00
2025-06-26 18:14:11.325729,599617683918236658,-131.00
2025-06-26 18:14:11.325729,599617683918236658,-126.00
2025-06-26 18:14:11.325729,599617683918236658,-131.00
2025-06-26 18:14:11.325729,599617683918236658,-128.00
2025-06-26 18:14:11.325729,599617683918236658,-126.00
2025-06-26 18:14:11.325729,599617683918236658,-126.00
