Timestamp,Device Timestamp (ns),ECG Value (uV)
2025-06-26 18:26:07.988062,599618400522136994,-31.00
2025-06-26 18:26:07.988062,599618400522136994,-63.00
2025-06-26 18:26:07.988062,599618400522136994,111.00
2025-06-26 18:26:07.988062,599618400522136994,800.00
2025-06-26 18:26:07.988062,599618400522136994,1871.00
2025-06-26 18:26:07.988062,599618400522136994,2542.00
2025-06-26 18:26:07.988062,599618400522136994,2085.00
2025-06-26 18:26:07.988062,599618400522136994,810.00
2025-06-26 18:26:07.988062,599618400522136994,-119.00
2025-06-26 18:26:07.988062,599618400522136994,-216.00
2025-06-26 18:26:07.988062,599618400522136994,-128.00
2025-06-26 18:26:07.988062,599618400522136994,-270.00
2025-06-26 18:26:07.988062,599618400522136994,-330.00
2025-06-26 18:26:07.988062,599618400522136994,-260.00
2025-06-26 18:26:07.988062,599618400522136994,-262.00
2025-06-26 18:26:07.988062,599618400522136994,-277.00
2025-06-26 18:26:07.988062,599618400522136994,-243.00
2025-06-26 18:26:07.988062,599618400522136994,-223.00
2025-06-26 18:26:07.988062,599618400522136994,-221.00
2025-06-26 18:26:07.988062,599618400522136994,-199.00
2025-06-26 18:26:07.988062,599618400522136994,-175.00
2025-06-26 18:26:07.988062,599618400522136994,-158.00
2025-06-26 18:26:07.988062,599618400522136994,-141.00
2025-06-26 18:26:07.988062,599618400522136994,-119.00
2025-06-26 18:26:07.988062,599618400522136994,-97.00
2025-06-26 18:26:07.988062,599618400522136994,-75.00
2025-06-26 18:26:07.988062,599618400522136994,-48.00
2025-06-26 18:26:07.988062,599618400522136994,-24.00
2025-06-26 18:26:07.988062,599618400522136994,-4.00
2025-06-26 18:26:07.988062,599618400522136994,14.00
2025-06-26 18:26:07.988062,599618400522136994,21.00
2025-06-26 18:26:07.988062,599618400522136994,19.00
2025-06-26 18:26:07.988062,599618400522136994,14.00
2025-06-26 18:26:07.988062,599618400522136994,9.00
2025-06-26 18:26:07.988062,599618400522136994,-7.00
2025-06-26 18:26:07.988062,599618400522136994,-29.00
2025-06-26 18:26:07.988062,599618400522136994,-60.00
2025-06-26 18:26:07.988062,599618400522136994,-90.00
2025-06-26 18:26:07.988062,599618400522136994,-111.00
2025-06-26 18:26:07.988062,599618400522136994,-128.00
2025-06-26 18:26:07.988062,599618400522136994,-138.00
2025-06-26 18:26:07.988062,599618400522136994,-141.00
2025-06-26 18:26:07.988062,599618400522136994,-143.00
2025-06-26 18:26:07.988062,599618400522136994,-138.00
2025-06-26 18:26:07.988062,599618400522136994,-131.00
2025-06-26 18:26:07.988062,599618400522136994,-124.00
2025-06-26 18:26:07.988062,599618400522136994,-116.00
2025-06-26 18:26:07.988062,599618400522136994,-109.00
2025-06-26 18:26:07.988062,599618400522136994,-102.00
2025-06-26 18:26:07.988062,599618400522136994,-99.00
2025-06-26 18:26:07.988062,599618400522136994,-97.00
2025-06-26 18:26:07.988062,599618400522136994,-90.00
2025-06-26 18:26:07.988062,599618400522136994,-85.00
2025-06-26 18:26:07.988062,599618400522136994,-82.00
2025-06-26 18:26:07.988062,599618400522136994,-80.00
2025-06-26 18:26:07.988062,599618400522136994,-82.00
2025-06-26 18:26:07.988062,599618400522136994,-85.00
2025-06-26 18:26:07.988062,599618400522136994,-80.00
2025-06-26 18:26:07.988062,599618400522136994,-75.00
2025-06-26 18:26:07.988062,599618400522136994,-72.00
2025-06-26 18:26:07.988062,599618400522136994,-68.00
2025-06-26 18:26:07.988062,599618400522136994,-68.00
2025-06-26 18:26:07.988062,599618400522136994,-68.00
2025-06-26 18:26:07.988062,599618400522136994,-63.00
2025-06-26 18:26:07.988062,599618400522136994,-63.00
2025-06-26 18:26:07.988062,599618400522136994,-60.00
2025-06-26 18:26:07.988062,599618400522136994,-55.00
2025-06-26 18:26:07.988062,599618400522136994,-58.00
2025-06-26 18:26:07.988062,599618400522136994,-58.00
2025-06-26 18:26:07.988062,599618400522136994,-55.00
2025-06-26 18:26:07.988062,599618400522136994,-51.00
2025-06-26 18:26:07.988062,599618400522136994,-55.00
2025-06-26 18:26:07.988062,599618400522136994,-63.00
2025-06-26 18:26:08.530360,599618401082869641,-72.00
2025-06-26 18:26:08.530360,599618401082869641,-82.00
2025-06-26 18:26:08.530360,599618401082869641,-82.00
2025-06-26 18:26:08.530360,599618401082869641,-63.00
2025-06-26 18:26:08.530360,599618401082869641,-48.00
2025-06-26 18:26:08.530360,599618401082869641,-34.00
2025-06-26 18:26:08.530360,599618401082869641,-9.00
2025-06-26 18:26:08.530360,599618401082869641,4.00
2025-06-26 18:26:08.530360,599618401082869641,-12.00
2025-06-26 18:26:08.530360,599618401082869641,-38.00
2025-06-26 18:26:08.530360,599618401082869641,-48.00
2025-06-26 18:26:08.530360,599618401082869641,-46.00
2025-06-26 18:26:08.530360,599618401082869641,-43.00
2025-06-26 18:26:08.530360,599618401082869641,-46.00
2025-06-26 18:26:08.530360,599618401082869641,-41.00
2025-06-26 18:26:08.530360,599618401082869641,-38.00
2025-06-26 18:26:08.530360,599618401082869641,-43.00
2025-06-26 18:26:08.530360,599618401082869641,-55.00
2025-06-26 18:26:08.530360,599618401082869641,-82.00
2025-06-26 18:26:08.530360,599618401082869641,-99.00
2025-06-26 18:26:08.530360,599618401082869641,102.00
2025-06-26 18:26:08.530360,599618401082869641,802.00
2025-06-26 18:26:08.530360,599618401082869641,1832.00
2025-06-26 18:26:08.530360,599618401082869641,2404.00
2025-06-26 18:26:08.530360,599618401082869641,1888.00
2025-06-26 18:26:08.530360,599618401082869641,666.00
2025-06-26 18:26:08.530360,599618401082869641,-184.00
2025-06-26 18:26:08.530360,599618401082869641,-245.00
2025-06-26 18:26:08.530360,599618401082869641,-153.00
2025-06-26 18:26:08.530360,599618401082869641,-289.00
2025-06-26 18:26:08.530360,599618401082869641,-352.00
2025-06-26 18:26:08.530360,599618401082869641,-294.00
2025-06-26 18:26:08.530360,599618401082869641,-304.00
2025-06-26 18:26:08.530360,599618401082869641,-318.00
2025-06-26 18:26:08.530360,599618401082869641,-284.00
2025-06-26 18:26:08.530360,599618401082869641,-265.00
2025-06-26 18:26:08.530360,599618401082869641,-257.00
2025-06-26 18:26:08.530360,599618401082869641,-238.00
2025-06-26 18:26:08.530360,599618401082869641,-218.00
2025-06-26 18:26:08.530360,599618401082869641,-201.00
2025-06-26 18:26:08.530360,599618401082869641,-182.00
2025-06-26 18:26:08.530360,599618401082869641,-158.00
2025-06-26 18:26:08.530360,599618401082869641,-133.00
2025-06-26 18:26:08.530360,599618401082869641,-107.00
2025-06-26 18:26:08.530360,599618401082869641,-80.00
2025-06-26 18:26:08.530360,599618401082869641,-55.00
2025-06-26 18:26:08.530360,599618401082869641,-43.00
2025-06-26 18:26:08.530360,599618401082869641,-38.00
2025-06-26 18:26:08.530360,599618401082869641,-38.00
2025-06-26 18:26:08.530360,599618401082869641,-41.00
2025-06-26 18:26:08.530360,599618401082869641,-51.00
2025-06-26 18:26:08.530360,599618401082869641,-63.00
2025-06-26 18:26:08.530360,599618401082869641,-82.00
2025-06-26 18:26:08.530360,599618401082869641,-111.00
2025-06-26 18:26:08.530360,599618401082869641,-143.00
2025-06-26 18:26:08.530360,599618401082869641,-165.00
2025-06-26 18:26:08.530360,599618401082869641,-180.00
2025-06-26 18:26:08.530360,599618401082869641,-192.00
2025-06-26 18:26:08.530360,599618401082869641,-201.00
2025-06-26 18:26:08.530360,599618401082869641,-206.00
2025-06-26 18:26:08.530360,599618401082869641,-206.00
2025-06-26 18:26:08.530360,599618401082869641,-199.00
2025-06-26 18:26:08.530360,599618401082869641,-192.00
2025-06-26 18:26:08.530360,599618401082869641,-187.00
2025-06-26 18:26:08.530360,599618401082869641,-182.00
2025-06-26 18:26:08.530360,599618401082869641,-180.00
2025-06-26 18:26:08.530360,599618401082869641,-175.00
2025-06-26 18:26:08.530360,599618401082869641,-175.00
2025-06-26 18:26:08.530360,599618401082869641,-172.00
2025-06-26 18:26:08.530360,599618401082869641,-165.00
2025-06-26 18:26:08.530360,599618401082869641,-158.00
2025-06-26 18:26:08.530360,599618401082869641,-153.00
2025-06-26 18:26:08.530360,599618401082869641,-145.00
2025-06-26 18:26:09.068503,599618401643622632,-136.00
2025-06-26 18:26:09.068503,599618401643622632,-128.00
2025-06-26 18:26:09.068503,599618401643622632,-119.00
2025-06-26 18:26:09.068503,599618401643622632,-109.00
2025-06-26 18:26:09.068503,599618401643622632,-104.00
2025-06-26 18:26:09.068503,599618401643622632,-104.00
2025-06-26 18:26:09.068503,599618401643622632,-107.00
2025-06-26 18:26:09.068503,599618401643622632,-109.00
2025-06-26 18:26:09.068503,599618401643622632,-104.00
2025-06-26 18:26:09.068503,599618401643622632,-102.00
2025-06-26 18:26:09.068503,599618401643622632,-99.00
2025-06-26 18:26:09.068503,599618401643622632,-97.00
2025-06-26 18:26:09.068503,599618401643622632,-90.00
2025-06-26 18:26:09.068503,599618401643622632,-90.00
2025-06-26 18:26:09.068503,599618401643622632,-92.00
2025-06-26 18:26:09.068503,599618401643622632,-94.00
2025-06-26 18:26:09.068503,599618401643622632,-102.00
2025-06-26 18:26:09.068503,599618401643622632,-111.00
2025-06-26 18:26:09.068503,599618401643622632,-119.00
2025-06-26 18:26:09.068503,599618401643622632,-114.00
2025-06-26 18:26:09.068503,599618401643622632,-94.00
2025-06-26 18:26:09.068503,599618401643622632,-82.00
2025-06-26 18:26:09.068503,599618401643622632,-70.00
2025-06-26 18:26:09.068503,599618401643622632,-43.00
2025-06-26 18:26:09.068503,599618401643622632,-24.00
2025-06-26 18:26:09.068503,599618401643622632,-41.00
2025-06-26 18:26:09.068503,599618401643622632,-72.00
2025-06-26 18:26:09.068503,599618401643622632,-77.00
2025-06-26 18:26:09.068503,599618401643622632,-70.00
2025-06-26 18:26:09.068503,599618401643622632,-68.00
2025-06-26 18:26:09.068503,599618401643622632,-70.00
2025-06-26 18:26:09.068503,599618401643622632,-65.00
2025-06-26 18:26:09.068503,599618401643622632,-63.00
2025-06-26 18:26:09.068503,599618401643622632,-68.00
2025-06-26 18:26:09.068503,599618401643622632,-77.00
2025-06-26 18:26:09.068503,599618401643622632,-99.00
2025-06-26 18:26:09.068503,599618401643622632,-94.00
2025-06-26 18:26:09.068503,599618401643622632,136.00
2025-06-26 18:26:09.068503,599618401643622632,849.00
2025-06-26 18:26:09.068503,599618401643622632,1837.00
2025-06-26 18:26:09.068503,599618401643622632,2318.00
2025-06-26 18:26:09.068503,599618401643622632,1756.00
2025-06-26 18:26:09.068503,599618401643622632,576.00
2025-06-26 18:26:09.068503,599618401643622632,-211.00
2025-06-26 18:26:09.068503,599618401643622632,-245.00
2025-06-26 18:26:09.068503,599618401643622632,-158.00
2025-06-26 18:26:09.068503,599618401643622632,-304.00
2025-06-26 18:26:09.068503,599618401643622632,-355.00
2025-06-26 18:26:09.068503,599618401643622632,-284.00
2025-06-26 18:26:09.068503,599618401643622632,-291.00
2025-06-26 18:26:09.068503,599618401643622632,-301.00
2025-06-26 18:26:09.068503,599618401643622632,-262.00
2025-06-26 18:26:09.068503,599618401643622632,-245.00
2025-06-26 18:26:09.068503,599618401643622632,-245.00
2025-06-26 18:26:09.068503,599618401643622632,-221.00
2025-06-26 18:26:09.068503,599618401643622632,-199.00
2025-06-26 18:26:09.068503,599618401643622632,-187.00
2025-06-26 18:26:09.068503,599618401643622632,-167.00
2025-06-26 18:26:09.068503,599618401643622632,-143.00
2025-06-26 18:26:09.068503,599618401643622632,-126.00
2025-06-26 18:26:09.068503,599618401643622632,-104.00
2025-06-26 18:26:09.068503,599618401643622632,-80.00
2025-06-26 18:26:09.068503,599618401643622632,-58.00
2025-06-26 18:26:09.068503,599618401643622632,-41.00
2025-06-26 18:26:09.068503,599618401643622632,-29.00
2025-06-26 18:26:09.068503,599618401643622632,-24.00
2025-06-26 18:26:09.068503,599618401643622632,-29.00
2025-06-26 18:26:09.068503,599618401643622632,-36.00
2025-06-26 18:26:09.068503,599618401643622632,-43.00
2025-06-26 18:26:09.068503,599618401643622632,-63.00
2025-06-26 18:26:09.068503,599618401643622632,-87.00
2025-06-26 18:26:09.068503,599618401643622632,-104.00
2025-06-26 18:26:09.068503,599618401643622632,-124.00
2025-06-26 18:26:09.639078,599618402204350191,-141.00
2025-06-26 18:26:09.639078,599618402204350191,-150.00
2025-06-26 18:26:09.639078,599618402204350191,-160.00
2025-06-26 18:26:09.639078,599618402204350191,-163.00
2025-06-26 18:26:09.639078,599618402204350191,-160.00
2025-06-26 18:26:09.639078,599618402204350191,-158.00
2025-06-26 18:26:09.639078,599618402204350191,-153.00
2025-06-26 18:26:09.639078,599618402204350191,-143.00
2025-06-26 18:26:09.639078,599618402204350191,-138.00
2025-06-26 18:26:09.639078,599618402204350191,-131.00
2025-06-26 18:26:09.639078,599618402204350191,-126.00
2025-06-26 18:26:09.639078,599618402204350191,-126.00
2025-06-26 18:26:09.639078,599618402204350191,-121.00
2025-06-26 18:26:09.639078,599618402204350191,-114.00
2025-06-26 18:26:09.639078,599618402204350191,-109.00
2025-06-26 18:26:09.639078,599618402204350191,-107.00
2025-06-26 18:26:09.639078,599618402204350191,-102.00
2025-06-26 18:26:09.639078,599618402204350191,-94.00
2025-06-26 18:26:09.639078,599618402204350191,-90.00
2025-06-26 18:26:09.639078,599618402204350191,-87.00
2025-06-26 18:26:09.639078,599618402204350191,-82.00
2025-06-26 18:26:09.639078,599618402204350191,-77.00
2025-06-26 18:26:09.639078,599618402204350191,-75.00
2025-06-26 18:26:09.639078,599618402204350191,-75.00
2025-06-26 18:26:09.639078,599618402204350191,-72.00
2025-06-26 18:26:09.639078,599618402204350191,-70.00
2025-06-26 18:26:09.639078,599618402204350191,-68.00
2025-06-26 18:26:09.639078,599618402204350191,-68.00
2025-06-26 18:26:09.639078,599618402204350191,-70.00
2025-06-26 18:26:09.639078,599618402204350191,-65.00
2025-06-26 18:26:09.639078,599618402204350191,-65.00
2025-06-26 18:26:09.639078,599618402204350191,-75.00
2025-06-26 18:26:09.639078,599618402204350191,-82.00
2025-06-26 18:26:09.639078,599618402204350191,-94.00
2025-06-26 18:26:09.639078,599618402204350191,-102.00
2025-06-26 18:26:09.639078,599618402204350191,-87.00
2025-06-26 18:26:09.639078,599618402204350191,-70.00
2025-06-26 18:26:09.639078,599618402204350191,-60.00
2025-06-26 18:26:09.639078,599618402204350191,-41.00
2025-06-26 18:26:09.639078,599618402204350191,-12.00
2025-06-26 18:26:09.639078,599618402204350191,-7.00
2025-06-26 18:26:09.639078,599618402204350191,-36.00
2025-06-26 18:26:09.639078,599618402204350191,-55.00
2025-06-26 18:26:09.639078,599618402204350191,-48.00
2025-06-26 18:26:09.639078,599618402204350191,-41.00
2025-06-26 18:26:09.639078,599618402204350191,-46.00
2025-06-26 18:26:09.639078,599618402204350191,-51.00
2025-06-26 18:26:09.639078,599618402204350191,-51.00
2025-06-26 18:26:09.639078,599618402204350191,-48.00
2025-06-26 18:26:09.639078,599618402204350191,-53.00
2025-06-26 18:26:09.639078,599618402204350191,-72.00
2025-06-26 18:26:09.639078,599618402204350191,-97.00
2025-06-26 18:26:09.639078,599618402204350191,-7.00
2025-06-26 18:26:09.639078,599618402204350191,486.00
2025-06-26 18:26:09.639078,599618402204350191,1455.00
2025-06-26 18:26:09.639078,599618402204350191,2297.00
2025-06-26 18:26:09.639078,599618402204350191,2185.00
2025-06-26 18:26:09.639078,599618402204350191,1116.00
2025-06-26 18:26:09.639078,599618402204350191,34.00
2025-06-26 18:26:09.639078,599618402204350191,-279.00
2025-06-26 18:26:09.639078,599618402204350191,-165.00
2025-06-26 18:26:09.639078,599618402204350191,-238.00
2025-06-26 18:26:09.639078,599618402204350191,-345.00
2025-06-26 18:26:09.639078,599618402204350191,-289.00
2025-06-26 18:26:09.639078,599618402204350191,-270.00
2025-06-26 18:26:09.639078,599618402204350191,-296.00
2025-06-26 18:26:09.639078,599618402204350191,-270.00
2025-06-26 18:26:09.639078,599618402204350191,-238.00
2025-06-26 18:26:09.639078,599618402204350191,-233.00
2025-06-26 18:26:09.639078,599618402204350191,-216.00
2025-06-26 18:26:09.639078,599618402204350191,-197.00
2025-06-26 18:26:09.639078,599618402204350191,-182.00
2025-06-26 18:26:09.639078,599618402204350191,-165.00
2025-06-26 18:26:10.210118,599618402765077750,-141.00
2025-06-26 18:26:10.210118,599618402765077750,-124.00
2025-06-26 18:26:10.210118,599618402765077750,-107.00
2025-06-26 18:26:10.210118,599618402765077750,-77.00
2025-06-26 18:26:10.210118,599618402765077750,-51.00
2025-06-26 18:26:10.210118,599618402765077750,-36.00
2025-06-26 18:26:10.210118,599618402765077750,-19.00
2025-06-26 18:26:10.210118,599618402765077750,-4.00
2025-06-26 18:26:10.210118,599618402765077750,-4.00
2025-06-26 18:26:10.210118,599618402765077750,-12.00
2025-06-26 18:26:10.210118,599618402765077750,-17.00
2025-06-26 18:26:10.210118,599618402765077750,-29.00
2025-06-26 18:26:10.210118,599618402765077750,-53.00
2025-06-26 18:26:10.210118,599618402765077750,-77.00
2025-06-26 18:26:10.210118,599618402765077750,-99.00
2025-06-26 18:26:10.210118,599618402765077750,-121.00
2025-06-26 18:26:10.210118,599618402765077750,-136.00
2025-06-26 18:26:10.210118,599618402765077750,-141.00
2025-06-26 18:26:10.210118,599618402765077750,-141.00
2025-06-26 18:26:10.210118,599618402765077750,-141.00
2025-06-26 18:26:10.210118,599618402765077750,-143.00
2025-06-26 18:26:10.210118,599618402765077750,-136.00
2025-06-26 18:26:10.210118,599618402765077750,-128.00
2025-06-26 18:26:10.210118,599618402765077750,-124.00
2025-06-26 18:26:10.210118,599618402765077750,-119.00
2025-06-26 18:26:10.210118,599618402765077750,-111.00
2025-06-26 18:26:10.210118,599618402765077750,-107.00
2025-06-26 18:26:10.210118,599618402765077750,-104.00
2025-06-26 18:26:10.210118,599618402765077750,-102.00
2025-06-26 18:26:10.210118,599618402765077750,-97.00
2025-06-26 18:26:10.210118,599618402765077750,-94.00
2025-06-26 18:26:10.210118,599618402765077750,-94.00
2025-06-26 18:26:10.210118,599618402765077750,-94.00
2025-06-26 18:26:10.210118,599618402765077750,-90.00
2025-06-26 18:26:10.210118,599618402765077750,-85.00
2025-06-26 18:26:10.210118,599618402765077750,-82.00
2025-06-26 18:26:10.210118,599618402765077750,-77.00
2025-06-26 18:26:10.210118,599618402765077750,-72.00
2025-06-26 18:26:10.210118,599618402765077750,-72.00
2025-06-26 18:26:10.210118,599618402765077750,-72.00
2025-06-26 18:26:10.210118,599618402765077750,-72.00
2025-06-26 18:26:10.210118,599618402765077750,-68.00
2025-06-26 18:26:10.210118,599618402765077750,-65.00
2025-06-26 18:26:10.210118,599618402765077750,-65.00
2025-06-26 18:26:10.210118,599618402765077750,-65.00
2025-06-26 18:26:10.210118,599618402765077750,-65.00
2025-06-26 18:26:10.210118,599618402765077750,-72.00
2025-06-26 18:26:10.210118,599618402765077750,-85.00
2025-06-26 18:26:10.210118,599618402765077750,-94.00
2025-06-26 18:26:10.210118,599618402765077750,-90.00
2025-06-26 18:26:10.210118,599618402765077750,-72.00
2025-06-26 18:26:10.210118,599618402765077750,-63.00
2025-06-26 18:26:10.210118,599618402765077750,-48.00
2025-06-26 18:26:10.210118,599618402765077750,-17.00
2025-06-26 18:26:10.210118,599618402765077750,-2.00
2025-06-26 18:26:10.210118,599618402765077750,-24.00
2025-06-26 18:26:10.210118,599618402765077750,-48.00
2025-06-26 18:26:10.210118,599618402765077750,-46.00
2025-06-26 18:26:10.210118,599618402765077750,-38.00
2025-06-26 18:26:10.210118,599618402765077750,-38.00
2025-06-26 18:26:10.210118,599618402765077750,-41.00
2025-06-26 18:26:10.210118,599618402765077750,-41.00
2025-06-26 18:26:10.210118,599618402765077750,-41.00
2025-06-26 18:26:10.210118,599618402765077750,-43.00
2025-06-26 18:26:10.210118,599618402765077750,-53.00
2025-06-26 18:26:10.210118,599618402765077750,-72.00
2025-06-26 18:26:10.210118,599618402765077750,-55.00
2025-06-26 18:26:10.210118,599618402765077750,221.00
2025-06-26 18:26:10.210118,599618402765077750,1019.00
2025-06-26 18:26:10.210118,599618402765077750,2031.00
2025-06-26 18:26:10.210118,599618402765077750,2389.00
2025-06-26 18:26:10.210118,599618402765077750,1632.00
2025-06-26 18:26:10.210118,599618402765077750,394.00
2025-06-26 18:26:10.838514,599618403325805309,-253.00
2025-06-26 18:26:10.838514,599618403325805309,-199.00
2025-06-26 18:26:10.838514,599618403325805309,-184.00
2025-06-26 18:26:10.838514,599618403325805309,-330.00
2025-06-26 18:26:10.838514,599618403325805309,-318.00
2025-06-26 18:26:10.838514,599618403325805309,-265.00
2025-06-26 18:26:10.838514,599618403325805309,-287.00
2025-06-26 18:26:10.838514,599618403325805309,-277.00
2025-06-26 18:26:10.838514,599618403325805309,-240.00
2025-06-26 18:26:10.838514,599618403325805309,-231.00
2025-06-26 18:26:10.838514,599618403325805309,-223.00
2025-06-26 18:26:10.838514,599618403325805309,-201.00
2025-06-26 18:26:10.838514,599618403325805309,-182.00
2025-06-26 18:26:10.838514,599618403325805309,-167.00
2025-06-26 18:26:10.838514,599618403325805309,-145.00
2025-06-26 18:26:10.838514,599618403325805309,-124.00
2025-06-26 18:26:10.838514,599618403325805309,-104.00
2025-06-26 18:26:10.838514,599618403325805309,-82.00
2025-06-26 18:26:10.838514,599618403325805309,-58.00
2025-06-26 18:26:10.838514,599618403325805309,-36.00
2025-06-26 18:26:10.838514,599618403325805309,-24.00
2025-06-26 18:26:10.838514,599618403325805309,-12.00
2025-06-26 18:26:10.838514,599618403325805309,-7.00
2025-06-26 18:26:10.838514,599618403325805309,-12.00
2025-06-26 18:26:10.838514,599618403325805309,-21.00
2025-06-26 18:26:10.838514,599618403325805309,-36.00
2025-06-26 18:26:10.838514,599618403325805309,-55.00
2025-06-26 18:26:10.838514,599618403325805309,-80.00
2025-06-26 18:26:10.838514,599618403325805309,-107.00
2025-06-26 18:26:10.838514,599618403325805309,-121.00
2025-06-26 18:26:10.838514,599618403325805309,-133.00
2025-06-26 18:26:10.838514,599618403325805309,-150.00
2025-06-26 18:26:10.838514,599618403325805309,-165.00
2025-06-26 18:26:10.838514,599618403325805309,-167.00
2025-06-26 18:26:10.838514,599618403325805309,-160.00
2025-06-26 18:26:10.838514,599618403325805309,-158.00
2025-06-26 18:26:10.838514,599618403325805309,-158.00
2025-06-26 18:26:10.838514,599618403325805309,-150.00
2025-06-26 18:26:10.838514,599618403325805309,-141.00
2025-06-26 18:26:10.838514,599618403325805309,-136.00
2025-06-26 18:26:10.838514,599618403325805309,-131.00
2025-06-26 18:26:10.838514,599618403325805309,-124.00
2025-06-26 18:26:10.838514,599618403325805309,-121.00
2025-06-26 18:26:10.838514,599618403325805309,-124.00
2025-06-26 18:26:10.838514,599618403325805309,-116.00
2025-06-26 18:26:10.838514,599618403325805309,-114.00
2025-06-26 18:26:10.838514,599618403325805309,-111.00
2025-06-26 18:26:10.838514,599618403325805309,-107.00
2025-06-26 18:26:10.838514,599618403325805309,-102.00
2025-06-26 18:26:10.838514,599618403325805309,-99.00
2025-06-26 18:26:10.838514,599618403325805309,-99.00
2025-06-26 18:26:10.838514,599618403325805309,-94.00
2025-06-26 18:26:10.838514,599618403325805309,-87.00
2025-06-26 18:26:10.838514,599618403325805309,-87.00
2025-06-26 18:26:10.838514,599618403325805309,-90.00
2025-06-26 18:26:10.838514,599618403325805309,-87.00
2025-06-26 18:26:10.838514,599618403325805309,-87.00
2025-06-26 18:26:10.838514,599618403325805309,-92.00
2025-06-26 18:26:10.838514,599618403325805309,-99.00
2025-06-26 18:26:10.838514,599618403325805309,-109.00
2025-06-26 18:26:10.838514,599618403325805309,-116.00
2025-06-26 18:26:10.838514,599618403325805309,-104.00
2025-06-26 18:26:10.838514,599618403325805309,-85.00
2025-06-26 18:26:10.838514,599618403325805309,-72.00
2025-06-26 18:26:10.838514,599618403325805309,-58.00
2025-06-26 18:26:10.838514,599618403325805309,-31.00
2025-06-26 18:26:10.838514,599618403325805309,-26.00
2025-06-26 18:26:10.838514,599618403325805309,-48.00
2025-06-26 18:26:10.838514,599618403325805309,-72.00
2025-06-26 18:26:10.838514,599618403325805309,-72.00
2025-06-26 18:26:10.838514,599618403325805309,-60.00
2025-06-26 18:26:10.838514,599618403325805309,-60.00
2025-06-26 18:26:10.838514,599618403325805309,-60.00
2025-06-26 18:26:11.290477,599618403886563386,-58.00
2025-06-26 18:26:11.290477,599618403886563386,-63.00
2025-06-26 18:26:11.290477,599618403886563386,-72.00
2025-06-26 18:26:11.290477,599618403886563386,-85.00
2025-06-26 18:26:11.290477,599618403886563386,-99.00
2025-06-26 18:26:11.290477,599618403886563386,-38.00
2025-06-26 18:26:11.290477,599618403886563386,347.00
2025-06-26 18:26:11.290477,599618403886563386,1214.00
2025-06-26 18:26:11.290477,599618403886563386,2116.00
2025-06-26 18:26:11.290477,599618403886563386,2214.00
2025-06-26 18:26:11.290477,599618403886563386,1294.00
2025-06-26 18:26:11.290477,599618403886563386,145.00
2025-06-26 18:26:11.290477,599618403886563386,-299.00
2025-06-26 18:26:11.290477,599618403886563386,-167.00
2025-06-26 18:26:11.290477,599618403886563386,-204.00
2025-06-26 18:26:11.290477,599618403886563386,-357.00
2025-06-26 18:26:11.290477,599618403886563386,-313.00
2025-06-26 18:26:11.290477,599618403886563386,-265.00
2025-06-26 18:26:11.290477,599618403886563386,-299.00
2025-06-26 18:26:11.290477,599618403886563386,-284.00
2025-06-26 18:26:11.290477,599618403886563386,-245.00
2025-06-26 18:26:11.290477,599618403886563386,-238.00
2025-06-26 18:26:11.290477,599618403886563386,-228.00
2025-06-26 18:26:11.290477,599618403886563386,-201.00
2025-06-26 18:26:11.290477,599618403886563386,-187.00
2025-06-26 18:26:11.290477,599618403886563386,-177.00
2025-06-26 18:26:11.290477,599618403886563386,-155.00
2025-06-26 18:26:11.290477,599618403886563386,-131.00
2025-06-26 18:26:11.290477,599618403886563386,-111.00
2025-06-26 18:26:11.290477,599618403886563386,-92.00
2025-06-26 18:26:11.290477,599618403886563386,-68.00
2025-06-26 18:26:11.290477,599618403886563386,-51.00
2025-06-26 18:26:11.290477,599618403886563386,-38.00
2025-06-26 18:26:11.290477,599618403886563386,-36.00
2025-06-26 18:26:11.290477,599618403886563386,-41.00
2025-06-26 18:26:11.290477,599618403886563386,-51.00
2025-06-26 18:26:11.290477,599618403886563386,-63.00
2025-06-26 18:26:11.290477,599618403886563386,-77.00
2025-06-26 18:26:11.290477,599618403886563386,-99.00
2025-06-26 18:26:11.290477,599618403886563386,-121.00
2025-06-26 18:26:11.290477,599618403886563386,-136.00
2025-06-26 18:26:11.290477,599618403886563386,-143.00
2025-06-26 18:26:11.290477,599618403886563386,-150.00
2025-06-26 18:26:11.290477,599618403886563386,-158.00
2025-06-26 18:26:11.290477,599618403886563386,-163.00
2025-06-26 18:26:11.290477,599618403886563386,-165.00
2025-06-26 18:26:11.290477,599618403886563386,-163.00
2025-06-26 18:26:11.290477,599618403886563386,-155.00
2025-06-26 18:26:11.290477,599618403886563386,-153.00
2025-06-26 18:26:11.290477,599618403886563386,-150.00
2025-06-26 18:26:11.290477,599618403886563386,-145.00
2025-06-26 18:26:11.290477,599618403886563386,-141.00
2025-06-26 18:26:11.290477,599618403886563386,-138.00
2025-06-26 18:26:11.290477,599618403886563386,-131.00
2025-06-26 18:26:11.290477,599618403886563386,-124.00
2025-06-26 18:26:11.290477,599618403886563386,-114.00
2025-06-26 18:26:11.290477,599618403886563386,-107.00
2025-06-26 18:26:11.290477,599618403886563386,-102.00
2025-06-26 18:26:11.290477,599618403886563386,-94.00
2025-06-26 18:26:11.290477,599618403886563386,-87.00
2025-06-26 18:26:11.290477,599618403886563386,-85.00
2025-06-26 18:26:11.290477,599618403886563386,-82.00
2025-06-26 18:26:11.290477,599618403886563386,-80.00
2025-06-26 18:26:11.290477,599618403886563386,-75.00
2025-06-26 18:26:11.290477,599618403886563386,-70.00
2025-06-26 18:26:11.290477,599618403886563386,-72.00
2025-06-26 18:26:11.290477,599618403886563386,-77.00
2025-06-26 18:26:11.290477,599618403886563386,-80.00
2025-06-26 18:26:11.290477,599618403886563386,-85.00
2025-06-26 18:26:11.290477,599618403886563386,-94.00
2025-06-26 18:26:11.290477,599618403886563386,-104.00
2025-06-26 18:26:11.290477,599618403886563386,-109.00
2025-06-26 18:26:11.290477,599618403886563386,-97.00
2025-06-26 18:26:11.892047,599618404447290947,-82.00
2025-06-26 18:26:11.892047,599618404447290947,-70.00
2025-06-26 18:26:11.892047,599618404447290947,-48.00
2025-06-26 18:26:11.892047,599618404447290947,-21.00
2025-06-26 18:26:11.892047,599618404447290947,-26.00
2025-06-26 18:26:11.892047,599618404447290947,-53.00
2025-06-26 18:26:11.892047,599618404447290947,-70.00
2025-06-26 18:26:11.892047,599618404447290947,-65.00
2025-06-26 18:26:11.892047,599618404447290947,-58.00
2025-06-26 18:26:11.892047,599618404447290947,-55.00
2025-06-26 18:26:11.892047,599618404447290947,-53.00
2025-06-26 18:26:11.892047,599618404447290947,-55.00
2025-06-26 18:26:11.892047,599618404447290947,-58.00
2025-06-26 18:26:11.892047,599618404447290947,-58.00
2025-06-26 18:26:11.892047,599618404447290947,-70.00
2025-06-26 18:26:11.892047,599618404447290947,-85.00
2025-06-26 18:26:11.892047,599618404447290947,2.00
2025-06-26 18:26:11.892047,599618404447290947,479.00
2025-06-26 18:26:11.892047,599618404447290947,1423.00
2025-06-26 18:26:11.892047,599618404447290947,2253.00
2025-06-26 18:26:11.892047,599618404447290947,2151.00
2025-06-26 18:26:11.892047,599618404447290947,1087.00
2025-06-26 18:26:11.892047,599618404447290947,12.00
2025-06-26 18:26:11.892047,599618404447290947,-291.00
2025-06-26 18:26:11.892047,599618404447290947,-165.00
2025-06-26 18:26:11.892047,599618404447290947,-245.00
2025-06-26 18:26:11.892047,599618404447290947,-362.00
2025-06-26 18:26:11.892047,599618404447290947,-304.00
2025-06-26 18:26:11.892047,599618404447290947,-279.00
2025-06-26 18:26:11.892047,599618404447290947,-306.00
2025-06-26 18:26:11.892047,599618404447290947,-282.00
2025-06-26 18:26:11.892047,599618404447290947,-255.00
2025-06-26 18:26:11.892047,599618404447290947,-253.00
2025-06-26 18:26:11.892047,599618404447290947,-236.00
2025-06-26 18:26:11.892047,599618404447290947,-209.00
2025-06-26 18:26:11.892047,599618404447290947,-194.00
2025-06-26 18:26:11.892047,599618404447290947,-182.00
2025-06-26 18:26:11.892047,599618404447290947,-160.00
2025-06-26 18:26:11.892047,599618404447290947,-136.00
2025-06-26 18:26:11.892047,599618404447290947,-119.00
2025-06-26 18:26:11.892047,599618404447290947,-99.00
2025-06-26 18:26:11.892047,599618404447290947,-77.00
2025-06-26 18:26:11.892047,599618404447290947,-63.00
2025-06-26 18:26:11.892047,599618404447290947,-48.00
2025-06-26 18:26:11.892047,599618404447290947,-41.00
2025-06-26 18:26:11.892047,599618404447290947,-43.00
2025-06-26 18:26:11.892047,599618404447290947,-55.00
2025-06-26 18:26:11.892047,599618404447290947,-70.00
2025-06-26 18:26:11.892047,599618404447290947,-80.00
2025-06-26 18:26:11.892047,599618404447290947,-94.00
2025-06-26 18:26:11.892047,599618404447290947,-116.00
2025-06-26 18:26:11.892047,599618404447290947,-128.00
2025-06-26 18:26:11.892047,599618404447290947,-136.00
2025-06-26 18:26:11.892047,599618404447290947,-145.00
2025-06-26 18:26:11.892047,599618404447290947,-153.00
2025-06-26 18:26:11.892047,599618404447290947,-155.00
2025-06-26 18:26:11.892047,599618404447290947,-153.00
2025-06-26 18:26:11.892047,599618404447290947,-148.00
2025-06-26 18:26:11.892047,599618404447290947,-143.00
2025-06-26 18:26:11.892047,599618404447290947,-138.00
2025-06-26 18:26:11.892047,599618404447290947,-131.00
2025-06-26 18:26:11.892047,599618404447290947,-124.00
2025-06-26 18:26:11.892047,599618404447290947,-116.00
2025-06-26 18:26:11.892047,599618404447290947,-111.00
2025-06-26 18:26:11.892047,599618404447290947,-107.00
2025-06-26 18:26:11.892047,599618404447290947,-102.00
2025-06-26 18:26:11.892047,599618404447290947,-99.00
2025-06-26 18:26:11.892047,599618404447290947,-97.00
2025-06-26 18:26:11.892047,599618404447290947,-90.00
2025-06-26 18:26:11.892047,599618404447290947,-82.00
2025-06-26 18:26:11.892047,599618404447290947,-80.00
2025-06-26 18:26:11.892047,599618404447290947,-75.00
2025-06-26 18:26:11.892047,599618404447290947,-70.00
2025-06-26 18:26:12.430331,599618405008018506,-68.00
2025-06-26 18:26:12.430331,599618405008018506,-65.00
2025-06-26 18:26:12.430331,599618405008018506,-63.00
2025-06-26 18:26:12.430331,599618405008018506,-63.00
2025-06-26 18:26:12.430331,599618405008018506,-65.00
2025-06-26 18:26:12.430331,599618405008018506,-68.00
2025-06-26 18:26:12.430331,599618405008018506,-75.00
2025-06-26 18:26:12.430331,599618405008018506,-85.00
2025-06-26 18:26:12.430331,599618405008018506,-97.00
2025-06-26 18:26:12.430331,599618405008018506,-97.00
2025-06-26 18:26:12.430331,599618405008018506,-80.00
2025-06-26 18:26:12.430331,599618405008018506,-63.00
2025-06-26 18:26:12.430331,599618405008018506,-51.00
2025-06-26 18:26:12.430331,599618405008018506,-24.00
2025-06-26 18:26:12.430331,599618405008018506,2.00
2025-06-26 18:26:12.430331,599618405008018506,-9.00
2025-06-26 18:26:12.430331,599618405008018506,-43.00
2025-06-26 18:26:12.430331,599618405008018506,-53.00
2025-06-26 18:26:12.430331,599618405008018506,-41.00
2025-06-26 18:26:12.430331,599618405008018506,-36.00
2025-06-26 18:26:12.430331,599618405008018506,-41.00
2025-06-26 18:26:12.430331,599618405008018506,-43.00
2025-06-26 18:26:12.430331,599618405008018506,-41.00
2025-06-26 18:26:12.430331,599618405008018506,-43.00
2025-06-26 18:26:12.430331,599618405008018506,-51.00
2025-06-26 18:26:12.430331,599618405008018506,-63.00
2025-06-26 18:26:12.430331,599618405008018506,-60.00
2025-06-26 18:26:12.430331,599618405008018506,107.00
2025-06-26 18:26:12.430331,599618405008018506,739.00
2025-06-26 18:26:12.430331,599618405008018506,1751.00
2025-06-26 18:26:12.430331,599618405008018506,2387.00
2025-06-26 18:26:12.430331,599618405008018506,1936.00
2025-06-26 18:26:12.430331,599618405008018506,712.00
2025-06-26 18:26:12.430331,599618405008018506,-170.00
2025-06-26 18:26:12.430331,599618405008018506,-240.00
2025-06-26 18:26:12.430331,599618405008018506,-153.00
2025-06-26 18:26:12.430331,599618405008018506,-291.00
2025-06-26 18:26:12.430331,599618405008018506,-343.00
2025-06-26 18:26:12.430331,599618405008018506,-274.00
2025-06-26 18:26:12.430331,599618405008018506,-279.00
2025-06-26 18:26:12.430331,599618405008018506,-296.00
2025-06-26 18:26:12.430331,599618405008018506,-262.00
2025-06-26 18:26:12.430331,599618405008018506,-243.00
2025-06-26 18:26:12.430331,599618405008018506,-240.00
2025-06-26 18:26:12.430331,599618405008018506,-218.00
2025-06-26 18:26:12.430331,599618405008018506,-194.00
2025-06-26 18:26:12.430331,599618405008018506,-177.00
2025-06-26 18:26:12.430331,599618405008018506,-158.00
2025-06-26 18:26:12.430331,599618405008018506,-143.00
2025-06-26 18:26:12.430331,599618405008018506,-124.00
2025-06-26 18:26:12.430331,599618405008018506,-102.00
2025-06-26 18:26:12.430331,599618405008018506,-82.00
2025-06-26 18:26:12.430331,599618405008018506,-63.00
2025-06-26 18:26:12.430331,599618405008018506,-48.00
2025-06-26 18:26:12.430331,599618405008018506,-41.00
2025-06-26 18:26:12.430331,599618405008018506,-38.00
2025-06-26 18:26:12.430331,599618405008018506,-43.00
2025-06-26 18:26:12.430331,599618405008018506,-55.00
2025-06-26 18:26:12.430331,599618405008018506,-65.00
2025-06-26 18:26:12.430331,599618405008018506,-75.00
2025-06-26 18:26:12.430331,599618405008018506,-94.00
2025-06-26 18:26:12.430331,599618405008018506,-116.00
2025-06-26 18:26:12.430331,599618405008018506,-128.00
2025-06-26 18:26:12.430331,599618405008018506,-136.00
2025-06-26 18:26:12.430331,599618405008018506,-143.00
2025-06-26 18:26:12.430331,599618405008018506,-145.00
2025-06-26 18:26:12.430331,599618405008018506,-145.00
2025-06-26 18:26:12.430331,599618405008018506,-148.00
2025-06-26 18:26:12.430331,599618405008018506,-143.00
2025-06-26 18:26:12.430331,599618405008018506,-133.00
2025-06-26 18:26:12.430331,599618405008018506,-133.00
2025-06-26 18:26:12.430331,599618405008018506,-131.00
2025-06-26 18:26:12.430331,599618405008018506,-119.00
2025-06-26 18:26:12.998197,599618405568746065,-111.00
2025-06-26 18:26:12.998197,599618405568746065,-107.00
2025-06-26 18:26:12.998197,599618405568746065,-102.00
2025-06-26 18:26:12.998197,599618405568746065,-97.00
2025-06-26 18:26:12.998197,599618405568746065,-92.00
2025-06-26 18:26:12.998197,599618405568746065,-85.00
2025-06-26 18:26:12.998197,599618405568746065,-82.00
2025-06-26 18:26:12.998197,599618405568746065,-82.00
2025-06-26 18:26:12.998197,599618405568746065,-72.00
2025-06-26 18:26:12.998197,599618405568746065,-68.00
2025-06-26 18:26:12.998197,599618405568746065,-70.00
2025-06-26 18:26:12.998197,599618405568746065,-68.00
2025-06-26 18:26:12.998197,599618405568746065,-60.00
2025-06-26 18:26:12.998197,599618405568746065,-60.00
2025-06-26 18:26:12.998197,599618405568746065,-63.00
2025-06-26 18:26:12.998197,599618405568746065,-68.00
2025-06-26 18:26:12.998197,599618405568746065,-72.00
2025-06-26 18:26:12.998197,599618405568746065,-77.00
2025-06-26 18:26:12.998197,599618405568746065,-82.00
2025-06-26 18:26:12.998197,599618405568746065,-92.00
2025-06-26 18:26:12.998197,599618405568746065,-82.00
2025-06-26 18:26:12.998197,599618405568746065,-65.00
2025-06-26 18:26:12.998197,599618405568746065,-63.00
2025-06-26 18:26:12.998197,599618405568746065,-55.00
2025-06-26 18:26:12.998197,599618405568746065,-19.00
2025-06-26 18:26:12.998197,599618405568746065,2.00
2025-06-26 18:26:12.998197,599618405568746065,-29.00
2025-06-26 18:26:12.998197,599618405568746065,-60.00
2025-06-26 18:26:12.998197,599618405568746065,-58.00
2025-06-26 18:26:12.998197,599618405568746065,-43.00
2025-06-26 18:26:12.998197,599618405568746065,-43.00
2025-06-26 18:26:12.998197,599618405568746065,-46.00
2025-06-26 18:26:12.998197,599618405568746065,-46.00
2025-06-26 18:26:12.998197,599618405568746065,-51.00
2025-06-26 18:26:12.998197,599618405568746065,-51.00
2025-06-26 18:26:12.998197,599618405568746065,-55.00
2025-06-26 18:26:12.998197,599618405568746065,-77.00
2025-06-26 18:26:12.998197,599618405568746065,-68.00
2025-06-26 18:26:12.998197,599618405568746065,163.00
2025-06-26 18:26:12.998197,599618405568746065,854.00
2025-06-26 18:26:12.998197,599618405568746065,1820.00
2025-06-26 18:26:12.998197,599618405568746065,2301.00
2025-06-26 18:26:12.998197,599618405568746065,1727.00
2025-06-26 18:26:12.998197,599618405568746065,513.00
2025-06-26 18:26:12.998197,599618405568746065,-248.00
2025-06-26 18:26:12.998197,599618405568746065,-223.00
2025-06-26 18:26:12.998197,599618405568746065,-141.00
2025-06-26 18:26:12.998197,599618405568746065,-304.00
2025-06-26 18:26:12.998197,599618405568746065,-340.00
2025-06-26 18:26:12.998197,599618405568746065,-265.00
2025-06-26 18:26:12.998197,599618405568746065,-279.00
2025-06-26 18:26:12.998197,599618405568746065,-296.00
2025-06-26 18:26:12.998197,599618405568746065,-257.00
2025-06-26 18:26:12.998197,599618405568746065,-238.00
2025-06-26 18:26:12.998197,599618405568746065,-236.00
2025-06-26 18:26:12.998197,599618405568746065,-216.00
2025-06-26 18:26:12.998197,599618405568746065,-192.00
2025-06-26 18:26:12.998197,599618405568746065,-175.00
2025-06-26 18:26:12.998197,599618405568746065,-160.00
2025-06-26 18:26:12.998197,599618405568746065,-141.00
2025-06-26 18:26:12.998197,599618405568746065,-119.00
2025-06-26 18:26:12.998197,599618405568746065,-99.00
2025-06-26 18:26:12.998197,599618405568746065,-80.00
2025-06-26 18:26:12.998197,599618405568746065,-65.00
2025-06-26 18:26:12.998197,599618405568746065,-55.00
2025-06-26 18:26:12.998197,599618405568746065,-51.00
2025-06-26 18:26:12.998197,599618405568746065,-53.00
2025-06-26 18:26:12.998197,599618405568746065,-63.00
2025-06-26 18:26:12.998197,599618405568746065,-72.00
2025-06-26 18:26:12.998197,599618405568746065,-85.00
2025-06-26 18:26:12.998197,599618405568746065,-104.00
2025-06-26 18:26:12.998197,599618405568746065,-124.00
2025-06-26 18:26:12.998197,599618405568746065,-143.00
2025-06-26 18:26:13.538677,599618406129493968,-153.00
2025-06-26 18:26:13.538677,599618406129493968,-163.00
2025-06-26 18:26:13.538677,599618406129493968,-170.00
2025-06-26 18:26:13.538677,599618406129493968,-170.00
2025-06-26 18:26:13.538677,599618406129493968,-170.00
2025-06-26 18:26:13.538677,599618406129493968,-177.00
2025-06-26 18:26:13.538677,599618406129493968,-180.00
2025-06-26 18:26:13.538677,599618406129493968,-167.00
2025-06-26 18:26:13.538677,599618406129493968,-165.00
2025-06-26 18:26:13.538677,599618406129493968,-170.00
2025-06-26 18:26:13.538677,599618406129493968,-163.00
2025-06-26 18:26:13.538677,599618406129493968,-145.00
2025-06-26 18:26:13.538677,599618406129493968,-131.00
2025-06-26 18:26:13.538677,599618406129493968,-124.00
2025-06-26 18:26:13.538677,599618406129493968,-114.00
2025-06-26 18:26:13.538677,599618406129493968,-107.00
2025-06-26 18:26:13.538677,599618406129493968,-102.00
2025-06-26 18:26:13.538677,599618406129493968,-102.00
2025-06-26 18:26:13.538677,599618406129493968,-119.00
2025-06-26 18:26:13.538677,599618406129493968,-109.00
2025-06-26 18:26:13.538677,599618406129493968,-68.00
2025-06-26 18:26:13.538677,599618406129493968,-70.00
2025-06-26 18:26:13.538677,599618406129493968,-99.00
2025-06-26 18:26:13.538677,599618406129493968,-94.00
2025-06-26 18:26:13.538677,599618406129493968,-92.00
2025-06-26 18:26:13.538677,599618406129493968,-114.00
2025-06-26 18:26:13.538677,599618406129493968,-121.00
2025-06-26 18:26:13.538677,599618406129493968,-116.00
2025-06-26 18:26:13.538677,599618406129493968,-109.00
2025-06-26 18:26:13.538677,599618406129493968,-97.00
2025-06-26 18:26:13.538677,599618406129493968,-80.00
2025-06-26 18:26:13.538677,599618406129493968,-53.00
2025-06-26 18:26:13.538677,599618406129493968,-60.00
2025-06-26 18:26:13.538677,599618406129493968,-126.00
2025-06-26 18:26:13.538677,599618406129493968,-145.00
2025-06-26 18:26:13.538677,599618406129493968,-114.00
2025-06-26 18:26:13.538677,599618406129493968,-114.00
2025-06-26 18:26:13.538677,599618406129493968,-124.00
2025-06-26 18:26:13.538677,599618406129493968,-119.00
2025-06-26 18:26:13.538677,599618406129493968,-133.00
2025-06-26 18:26:13.538677,599618406129493968,-145.00
2025-06-26 18:26:13.538677,599618406129493968,-150.00
2025-06-26 18:26:13.538677,599618406129493968,-172.00
2025-06-26 18:26:13.538677,599618406129493968,-175.00
2025-06-26 18:26:13.538677,599618406129493968,-72.00
2025-06-26 18:26:13.538677,599618406129493968,326.00
2025-06-26 18:26:13.538677,599618406129493968,1114.00
2025-06-26 18:26:13.538677,599618406129493968,1878.00
2025-06-26 18:26:13.538677,599618406129493968,1929.00
2025-06-26 18:26:13.538677,599618406129493968,1058.00
2025-06-26 18:26:13.538677,599618406129493968,-36.00
2025-06-26 18:26:13.538677,599618406129493968,-413.00
2025-06-26 18:26:13.538677,599618406129493968,-226.00
2025-06-26 18:26:13.538677,599618406129493968,-253.00
2025-06-26 18:26:13.538677,599618406129493968,-418.00
2025-06-26 18:26:13.538677,599618406129493968,-372.00
2025-06-26 18:26:13.538677,599618406129493968,-318.00
2025-06-26 18:26:13.538677,599618406129493968,-343.00
2025-06-26 18:26:13.538677,599618406129493968,-321.00
2025-06-26 18:26:13.538677,599618406129493968,-296.00
2025-06-26 18:26:13.538677,599618406129493968,-299.00
2025-06-26 18:26:13.538677,599618406129493968,-265.00
2025-06-26 18:26:13.538677,599618406129493968,-218.00
2025-06-26 18:26:13.538677,599618406129493968,-211.00
2025-06-26 18:26:13.538677,599618406129493968,-201.00
2025-06-26 18:26:13.538677,599618406129493968,-177.00
2025-06-26 18:26:13.538677,599618406129493968,-148.00
2025-06-26 18:26:13.538677,599618406129493968,-119.00
2025-06-26 18:26:13.538677,599618406129493968,-92.00
2025-06-26 18:26:13.538677,599618406129493968,-77.00
2025-06-26 18:26:13.538677,599618406129493968,-68.00
2025-06-26 18:26:13.538677,599618406129493968,-58.00
2025-06-26 18:26:13.538677,599618406129493968,-46.00
2025-06-26 18:26:14.079162,599618406690226613,-51.00
2025-06-26 18:26:14.079162,599618406690226613,-77.00
2025-06-26 18:26:14.079162,599618406690226613,-87.00
2025-06-26 18:26:14.079162,599618406690226613,-87.00
2025-06-26 18:26:14.079162,599618406690226613,-99.00
2025-06-26 18:26:14.079162,599618406690226613,-124.00
2025-06-26 18:26:14.079162,599618406690226613,-138.00
2025-06-26 18:26:14.079162,599618406690226613,-143.00
2025-06-26 18:26:14.079162,599618406690226613,-145.00
2025-06-26 18:26:14.079162,599618406690226613,-150.00
2025-06-26 18:26:14.079162,599618406690226613,-153.00
2025-06-26 18:26:14.079162,599618406690226613,-150.00
2025-06-26 18:26:14.079162,599618406690226613,-138.00
2025-06-26 18:26:14.079162,599618406690226613,-138.00
2025-06-26 18:26:14.079162,599618406690226613,-145.00
2025-06-26 18:26:14.079162,599618406690226613,-131.00
2025-06-26 18:26:14.079162,599618406690226613,-124.00
2025-06-26 18:26:14.079162,599618406690226613,-128.00
2025-06-26 18:26:14.079162,599618406690226613,-119.00
2025-06-26 18:26:14.079162,599618406690226613,-104.00
2025-06-26 18:26:14.079162,599618406690226613,-94.00
2025-06-26 18:26:14.079162,599618406690226613,-80.00
2025-06-26 18:26:14.079162,599618406690226613,-72.00
2025-06-26 18:26:14.079162,599618406690226613,-68.00
2025-06-26 18:26:14.079162,599618406690226613,-60.00
2025-06-26 18:26:14.079162,599618406690226613,-60.00
2025-06-26 18:26:14.079162,599618406690226613,-58.00
2025-06-26 18:26:14.079162,599618406690226613,-48.00
2025-06-26 18:26:14.079162,599618406690226613,-41.00
2025-06-26 18:26:14.079162,599618406690226613,-46.00
2025-06-26 18:26:14.079162,599618406690226613,-43.00
2025-06-26 18:26:14.079162,599618406690226613,-43.00
2025-06-26 18:26:14.079162,599618406690226613,-60.00
2025-06-26 18:26:14.079162,599618406690226613,-65.00
2025-06-26 18:26:14.079162,599618406690226613,-48.00
2025-06-26 18:26:14.079162,599618406690226613,-41.00
2025-06-26 18:26:14.079162,599618406690226613,-29.00
2025-06-26 18:26:14.079162,599618406690226613,4.00
2025-06-26 18:26:14.079162,599618406690226613,17.00
2025-06-26 18:26:14.079162,599618406690226613,-17.00
2025-06-26 18:26:14.079162,599618406690226613,-46.00
2025-06-26 18:26:14.079162,599618406690226613,-48.00
2025-06-26 18:26:14.079162,599618406690226613,-41.00
2025-06-26 18:26:14.079162,599618406690226613,-31.00
2025-06-26 18:26:14.079162,599618406690226613,-31.00
2025-06-26 18:26:14.079162,599618406690226613,-34.00
2025-06-26 18:26:14.079162,599618406690226613,-38.00
2025-06-26 18:26:14.079162,599618406690226613,-43.00
2025-06-26 18:26:14.079162,599618406690226613,-55.00
2025-06-26 18:26:14.079162,599618406690226613,-72.00
2025-06-26 18:26:14.079162,599618406690226613,-75.00
2025-06-26 18:26:14.079162,599618406690226613,143.00
2025-06-26 18:26:14.079162,599618406690226613,873.00
2025-06-26 18:26:14.079162,599618406690226613,1893.00
2025-06-26 18:26:14.079162,599618406690226613,2360.00
2025-06-26 18:26:14.079162,599618406690226613,1751.00
2025-06-26 18:26:14.079162,599618406690226613,554.00
2025-06-26 18:26:14.079162,599618406690226613,-211.00
2025-06-26 18:26:14.079162,599618406690226613,-228.00
2025-06-26 18:26:14.079162,599618406690226613,-163.00
2025-06-26 18:26:14.079162,599618406690226613,-318.00
2025-06-26 18:26:14.079162,599618406690226613,-347.00
2025-06-26 18:26:14.079162,599618406690226613,-272.00
2025-06-26 18:26:14.079162,599618406690226613,-289.00
2025-06-26 18:26:14.079162,599618406690226613,-304.00
2025-06-26 18:26:14.079162,599618406690226613,-272.00
2025-06-26 18:26:14.079162,599618406690226613,-253.00
2025-06-26 18:26:14.079162,599618406690226613,-245.00
2025-06-26 18:26:14.079162,599618406690226613,-231.00
2025-06-26 18:26:14.079162,599618406690226613,-211.00
2025-06-26 18:26:14.079162,599618406690226613,-189.00
2025-06-26 18:26:14.079162,599618406690226613,-177.00
2025-06-26 18:26:14.079162,599618406690226613,-160.00
2025-06-26 18:26:14.649813,599618407250959260,-126.00
2025-06-26 18:26:14.649813,599618407250959260,-107.00
2025-06-26 18:26:14.649813,599618407250959260,-104.00
2025-06-26 18:26:14.649813,599618407250959260,-92.00
2025-06-26 18:26:14.649813,599618407250959260,-63.00
2025-06-26 18:26:14.649813,599618407250959260,-46.00
2025-06-26 18:26:14.649813,599618407250959260,-46.00
2025-06-26 18:26:14.649813,599618407250959260,-58.00
2025-06-26 18:26:14.649813,599618407250959260,-70.00
2025-06-26 18:26:14.649813,599618407250959260,-87.00
2025-06-26 18:26:14.649813,599618407250959260,-102.00
2025-06-26 18:26:14.649813,599618407250959260,-119.00
2025-06-26 18:26:14.649813,599618407250959260,-133.00
2025-06-26 18:26:14.649813,599618407250959260,-138.00
2025-06-26 18:26:14.649813,599618407250959260,-143.00
2025-06-26 18:26:14.649813,599618407250959260,-150.00
2025-06-26 18:26:14.649813,599618407250959260,-155.00
2025-06-26 18:26:14.649813,599618407250959260,-153.00
2025-06-26 18:26:14.649813,599618407250959260,-153.00
2025-06-26 18:26:14.649813,599618407250959260,-148.00
2025-06-26 18:26:14.649813,599618407250959260,-136.00
2025-06-26 18:26:14.649813,599618407250959260,-133.00
2025-06-26 18:26:14.649813,599618407250959260,-133.00
2025-06-26 18:26:14.649813,599618407250959260,-119.00
2025-06-26 18:26:14.649813,599618407250959260,-114.00
2025-06-26 18:26:14.649813,599618407250959260,-111.00
2025-06-26 18:26:14.649813,599618407250959260,-109.00
2025-06-26 18:26:14.649813,599618407250959260,-109.00
2025-06-26 18:26:14.649813,599618407250959260,-111.00
2025-06-26 18:26:14.649813,599618407250959260,-99.00
2025-06-26 18:26:14.649813,599618407250959260,-97.00
2025-06-26 18:26:14.649813,599618407250959260,-92.00
2025-06-26 18:26:14.649813,599618407250959260,-82.00
2025-06-26 18:26:14.649813,599618407250959260,-85.00
2025-06-26 18:26:14.649813,599618407250959260,-85.00
2025-06-26 18:26:14.649813,599618407250959260,-90.00
2025-06-26 18:26:14.649813,599618407250959260,-97.00
2025-06-26 18:26:14.649813,599618407250959260,-102.00
2025-06-26 18:26:14.649813,599618407250959260,-102.00
2025-06-26 18:26:14.649813,599618407250959260,-92.00
2025-06-26 18:26:14.649813,599618407250959260,-80.00
2025-06-26 18:26:14.649813,599618407250959260,-70.00
2025-06-26 18:26:14.649813,599618407250959260,-53.00
2025-06-26 18:26:14.649813,599618407250959260,-24.00
2025-06-26 18:26:14.649813,599618407250959260,0.00
2025-06-26 18:26:14.649813,599618407250959260,-7.00
2025-06-26 18:26:14.649813,599618407250959260,-41.00
2025-06-26 18:26:14.649813,599618407250959260,-70.00
2025-06-26 18:26:14.649813,599618407250959260,-72.00
2025-06-26 18:26:14.649813,599618407250959260,-70.00
2025-06-26 18:26:14.649813,599618407250959260,-72.00
2025-06-26 18:26:14.649813,599618407250959260,-75.00
2025-06-26 18:26:14.649813,599618407250959260,-72.00
2025-06-26 18:26:14.649813,599618407250959260,-70.00
2025-06-26 18:26:14.649813,599618407250959260,-72.00
2025-06-26 18:26:14.649813,599618407250959260,-92.00
2025-06-26 18:26:14.649813,599618407250959260,-77.00
2025-06-26 18:26:14.649813,599618407250959260,221.00
2025-06-26 18:26:14.649813,599618407250959260,1029.00
2025-06-26 18:26:14.649813,599618407250959260,2026.00
2025-06-26 18:26:14.649813,599618407250959260,2370.00
2025-06-26 18:26:14.649813,599618407250959260,1632.00
2025-06-26 18:26:14.649813,599618407250959260,406.00
2025-06-26 18:26:14.649813,599618407250959260,-272.00
2025-06-26 18:26:14.649813,599618407250959260,-236.00
2025-06-26 18:26:14.649813,599618407250959260,-204.00
2025-06-26 18:26:14.649813,599618407250959260,-347.00
2025-06-26 18:26:14.649813,599618407250959260,-345.00
2025-06-26 18:26:14.649813,599618407250959260,-282.00
2025-06-26 18:26:14.649813,599618407250959260,-306.00
2025-06-26 18:26:14.649813,599618407250959260,-301.00
2025-06-26 18:26:14.649813,599618407250959260,-255.00
2025-06-26 18:26:14.649813,599618407250959260,-245.00
2025-06-26 18:26:15.249129,599618407811686821,-250.00
2025-06-26 18:26:15.249129,599618407811686821,-228.00
2025-06-26 18:26:15.249129,599618407811686821,-199.00
2025-06-26 18:26:15.249129,599618407811686821,-180.00
2025-06-26 18:26:15.249129,599618407811686821,-160.00
2025-06-26 18:26:15.249129,599618407811686821,-143.00
2025-06-26 18:26:15.249129,599618407811686821,-124.00
2025-06-26 18:26:15.249129,599618407811686821,-97.00
2025-06-26 18:26:15.249129,599618407811686821,-72.00
2025-06-26 18:26:15.249129,599618407811686821,-53.00
2025-06-26 18:26:15.249129,599618407811686821,-34.00
2025-06-26 18:26:15.249129,599618407811686821,-26.00
2025-06-26 18:26:15.249129,599618407811686821,-31.00
2025-06-26 18:26:15.249129,599618407811686821,-36.00
2025-06-26 18:26:15.249129,599618407811686821,-51.00
2025-06-26 18:26:15.249129,599618407811686821,-68.00
2025-06-26 18:26:15.249129,599618407811686821,-85.00
2025-06-26 18:26:15.249129,599618407811686821,-109.00
2025-06-26 18:26:15.249129,599618407811686821,-133.00
2025-06-26 18:26:15.249129,599618407811686821,-138.00
2025-06-26 18:26:15.249129,599618407811686821,-138.00
2025-06-26 18:26:15.249129,599618407811686821,-153.00
2025-06-26 18:26:15.249129,599618407811686821,-158.00
2025-06-26 18:26:15.249129,599618407811686821,-148.00
2025-06-26 18:26:15.249129,599618407811686821,-148.00
2025-06-26 18:26:15.249129,599618407811686821,-148.00
2025-06-26 18:26:15.249129,599618407811686821,-136.00
2025-06-26 18:26:15.249129,599618407811686821,-124.00
2025-06-26 18:26:15.249129,599618407811686821,-116.00
2025-06-26 18:26:15.249129,599618407811686821,-114.00
2025-06-26 18:26:15.249129,599618407811686821,-111.00
2025-06-26 18:26:15.249129,599618407811686821,-99.00
2025-06-26 18:26:15.249129,599618407811686821,-87.00
2025-06-26 18:26:15.249129,599618407811686821,-87.00
2025-06-26 18:26:15.249129,599618407811686821,-92.00
2025-06-26 18:26:15.249129,599618407811686821,-90.00
2025-06-26 18:26:15.249129,599618407811686821,-85.00
2025-06-26 18:26:15.249129,599618407811686821,-80.00
2025-06-26 18:26:15.249129,599618407811686821,-70.00
2025-06-26 18:26:15.249129,599618407811686821,-58.00
2025-06-26 18:26:15.249129,599618407811686821,-53.00
2025-06-26 18:26:15.249129,599618407811686821,-58.00
2025-06-26 18:26:15.249129,599618407811686821,-65.00
2025-06-26 18:26:15.249129,599618407811686821,-72.00
2025-06-26 18:26:15.249129,599618407811686821,-75.00
2025-06-26 18:26:15.249129,599618407811686821,-58.00
2025-06-26 18:26:15.249129,599618407811686821,-41.00
2025-06-26 18:26:15.249129,599618407811686821,-34.00
2025-06-26 18:26:15.249129,599618407811686821,-12.00
2025-06-26 18:26:15.249129,599618407811686821,7.00
2025-06-26 18:26:15.249129,599618407811686821,-2.00
2025-06-26 18:26:15.249129,599618407811686821,-31.00
2025-06-26 18:26:15.249129,599618407811686821,-43.00
2025-06-26 18:26:15.249129,599618407811686821,-26.00
2025-06-26 18:26:15.249129,599618407811686821,-9.00
2025-06-26 18:26:15.249129,599618407811686821,-14.00
2025-06-26 18:26:15.249129,599618407811686821,-17.00
2025-06-26 18:26:15.249129,599618407811686821,-7.00
2025-06-26 18:26:15.249129,599618407811686821,-9.00
2025-06-26 18:26:15.249129,599618407811686821,-17.00
2025-06-26 18:26:15.249129,599618407811686821,-29.00
2025-06-26 18:26:15.249129,599618407811686821,-53.00
2025-06-26 18:26:15.249129,599618407811686821,-12.00
2025-06-26 18:26:15.249129,599618407811686821,362.00
2025-06-26 18:26:15.249129,599618407811686821,1265.00
2025-06-26 18:26:15.249129,599618407811686821,2248.00
2025-06-26 18:26:15.249129,599618407811686821,2394.00
2025-06-26 18:26:15.249129,599618407811686821,1447.00
2025-06-26 18:26:15.249129,599618407811686821,248.00
2025-06-26 18:26:15.249129,599618407811686821,-240.00
2025-06-26 18:26:15.249129,599618407811686821,-145.00
2025-06-26 18:26:15.249129,599618407811686821,-175.00
2025-06-26 18:26:15.249129,599618407811686821,-313.00
2025-06-26 18:26:15.789205,599618408372414380,-277.00
2025-06-26 18:26:15.789205,599618408372414380,-228.00
2025-06-26 18:26:15.789205,599618408372414380,-262.00
2025-06-26 18:26:15.789205,599618408372414380,-257.00
2025-06-26 18:26:15.789205,599618408372414380,-216.00
2025-06-26 18:26:15.789205,599618408372414380,-201.00
2025-06-26 18:26:15.789205,599618408372414380,-199.00
2025-06-26 18:26:15.789205,599618408372414380,-184.00
2025-06-26 18:26:15.789205,599618408372414380,-163.00
2025-06-26 18:26:15.789205,599618408372414380,-143.00
2025-06-26 18:26:15.789205,599618408372414380,-119.00
2025-06-26 18:26:15.789205,599618408372414380,-102.00
2025-06-26 18:26:15.789205,599618408372414380,-97.00
2025-06-26 18:26:15.789205,599618408372414380,-80.00
2025-06-26 18:26:15.789205,599618408372414380,-48.00
2025-06-26 18:26:15.789205,599618408372414380,-21.00
2025-06-26 18:26:15.789205,599618408372414380,-7.00
2025-06-26 18:26:15.789205,599618408372414380,-7.00
2025-06-26 18:26:15.789205,599618408372414380,-7.00
2025-06-26 18:26:15.789205,599618408372414380,-7.00
2025-06-26 18:26:15.789205,599618408372414380,-19.00
2025-06-26 18:26:15.789205,599618408372414380,-38.00
2025-06-26 18:26:15.789205,599618408372414380,-55.00
2025-06-26 18:26:15.789205,599618408372414380,-80.00
2025-06-26 18:26:15.789205,599618408372414380,-102.00
2025-06-26 18:26:15.789205,599618408372414380,-109.00
2025-06-26 18:26:15.789205,599618408372414380,-114.00
2025-06-26 18:26:15.789205,599618408372414380,-126.00
2025-06-26 18:26:15.789205,599618408372414380,-133.00
2025-06-26 18:26:15.789205,599618408372414380,-128.00
2025-06-26 18:26:15.789205,599618408372414380,-126.00
2025-06-26 18:26:15.789205,599618408372414380,-124.00
2025-06-26 18:26:15.789205,599618408372414380,-119.00
2025-06-26 18:26:15.789205,599618408372414380,-102.00
2025-06-26 18:26:15.789205,599618408372414380,-87.00
2025-06-26 18:26:15.789205,599618408372414380,-94.00
2025-06-26 18:26:15.789205,599618408372414380,-99.00
2025-06-26 18:26:15.789205,599618408372414380,-90.00
2025-06-26 18:26:15.789205,599618408372414380,-80.00
2025-06-26 18:26:15.789205,599618408372414380,-77.00
2025-06-26 18:26:15.789205,599618408372414380,-77.00
2025-06-26 18:26:15.789205,599618408372414380,-70.00
2025-06-26 18:26:15.789205,599618408372414380,-60.00
2025-06-26 18:26:15.789205,599618408372414380,-53.00
2025-06-26 18:26:15.789205,599618408372414380,-55.00
2025-06-26 18:26:15.789205,599618408372414380,-60.00
2025-06-26 18:26:15.789205,599618408372414380,-53.00
2025-06-26 18:26:15.789205,599618408372414380,-46.00
2025-06-26 18:26:15.789205,599618408372414380,-46.00
2025-06-26 18:26:15.789205,599618408372414380,-51.00
2025-06-26 18:26:15.789205,599618408372414380,-63.00
2025-06-26 18:26:15.789205,599618408372414380,-60.00
2025-06-26 18:26:15.789205,599618408372414380,-41.00
2025-06-26 18:26:15.789205,599618408372414380,-36.00
2025-06-26 18:26:15.789205,599618408372414380,-36.00
2025-06-26 18:26:15.789205,599618408372414380,-12.00
2025-06-26 18:26:15.789205,599618408372414380,9.00
2025-06-26 18:26:15.789205,599618408372414380,-2.00
2025-06-26 18:26:15.789205,599618408372414380,-26.00
2025-06-26 18:26:15.789205,599618408372414380,-34.00
2025-06-26 18:26:15.789205,599618408372414380,-24.00
2025-06-26 18:26:15.789205,599618408372414380,-21.00
2025-06-26 18:26:15.789205,599618408372414380,-21.00
2025-06-26 18:26:15.789205,599618408372414380,-24.00
2025-06-26 18:26:15.789205,599618408372414380,-21.00
2025-06-26 18:26:15.789205,599618408372414380,-9.00
2025-06-26 18:26:15.789205,599618408372414380,-14.00
2025-06-26 18:26:15.789205,599618408372414380,-43.00
2025-06-26 18:26:15.789205,599618408372414380,-65.00
2025-06-26 18:26:15.789205,599618408372414380,104.00
2025-06-26 18:26:15.789205,599618408372414380,761.00
2025-06-26 18:26:15.789205,599618408372414380,1803.00
2025-06-26 18:26:15.789205,599618408372414380,2457.00
2025-06-26 18:26:16.358295,599618408933141939,2009.00
2025-06-26 18:26:16.358295,599618408933141939,773.00
2025-06-26 18:26:16.358295,599618408933141939,-131.00
2025-06-26 18:26:16.358295,599618408933141939,-216.00
2025-06-26 18:26:16.358295,599618408933141939,-102.00
2025-06-26 18:26:16.358295,599618408933141939,-238.00
2025-06-26 18:26:16.358295,599618408933141939,-321.00
2025-06-26 18:26:16.358295,599618408933141939,-250.00
2025-06-26 18:26:16.358295,599618408933141939,-240.00
2025-06-26 18:26:16.358295,599618408933141939,-257.00
2025-06-26 18:26:16.358295,599618408933141939,-226.00
2025-06-26 18:26:16.358295,599618408933141939,-204.00
2025-06-26 18:26:16.358295,599618408933141939,-199.00
2025-06-26 18:26:16.358295,599618408933141939,-180.00
2025-06-26 18:26:16.358295,599618408933141939,-165.00
2025-06-26 18:26:16.358295,599618408933141939,-150.00
2025-06-26 18:26:16.358295,599618408933141939,-121.00
2025-06-26 18:26:16.358295,599618408933141939,-104.00
2025-06-26 18:26:16.358295,599618408933141939,-90.00
2025-06-26 18:26:16.358295,599618408933141939,-55.00
2025-06-26 18:26:16.358295,599618408933141939,-31.00
2025-06-26 18:26:16.358295,599618408933141939,-24.00
2025-06-26 18:26:16.358295,599618408933141939,-14.00
2025-06-26 18:26:16.358295,599618408933141939,-2.00
2025-06-26 18:26:16.358295,599618408933141939,7.00
2025-06-26 18:26:16.358295,599618408933141939,2.00
2025-06-26 18:26:16.358295,599618408933141939,-19.00
2025-06-26 18:26:16.358295,599618408933141939,-31.00
2025-06-26 18:26:16.358295,599618408933141939,-41.00
2025-06-26 18:26:16.358295,599618408933141939,-55.00
2025-06-26 18:26:16.358295,599618408933141939,-72.00
2025-06-26 18:26:16.358295,599618408933141939,-94.00
2025-06-26 18:26:16.358295,599618408933141939,-111.00
2025-06-26 18:26:16.358295,599618408933141939,-114.00
2025-06-26 18:26:16.358295,599618408933141939,-109.00
2025-06-26 18:26:16.358295,599618408933141939,-104.00
2025-06-26 18:26:16.358295,599618408933141939,-107.00
2025-06-26 18:26:16.358295,599618408933141939,-107.00
2025-06-26 18:26:16.358295,599618408933141939,-97.00
2025-06-26 18:26:16.358295,599618408933141939,-80.00
2025-06-26 18:26:16.358295,599618408933141939,-72.00
2025-06-26 18:26:16.358295,599618408933141939,-75.00
2025-06-26 18:26:16.358295,599618408933141939,-75.00
2025-06-26 18:26:16.358295,599618408933141939,-60.00
2025-06-26 18:26:16.358295,599618408933141939,-48.00
2025-06-26 18:26:16.358295,599618408933141939,-58.00
2025-06-26 18:26:16.358295,599618408933141939,-60.00
2025-06-26 18:26:16.358295,599618408933141939,-34.00
2025-06-26 18:26:16.358295,599618408933141939,-24.00
2025-06-26 18:26:16.358295,599618408933141939,-29.00
2025-06-26 18:26:16.358295,599618408933141939,-17.00
2025-06-26 18:26:16.358295,599618408933141939,-2.00
2025-06-26 18:26:16.358295,599618408933141939,-7.00
2025-06-26 18:26:16.358295,599618408933141939,-9.00
2025-06-26 18:26:16.358295,599618408933141939,-7.00
2025-06-26 18:26:16.358295,599618408933141939,-4.00
2025-06-26 18:26:16.358295,599618408933141939,-2.00
2025-06-26 18:26:16.358295,599618408933141939,-7.00
2025-06-26 18:26:16.358295,599618408933141939,-17.00
2025-06-26 18:26:16.358295,599618408933141939,-21.00
2025-06-26 18:26:16.358295,599618408933141939,-24.00
2025-06-26 18:26:16.358295,599618408933141939,-26.00
2025-06-26 18:26:16.358295,599618408933141939,-36.00
2025-06-26 18:26:16.358295,599618408933141939,-41.00
2025-06-26 18:26:16.358295,599618408933141939,-38.00
2025-06-26 18:26:16.358295,599618408933141939,-36.00
2025-06-26 18:26:16.358295,599618408933141939,-19.00
2025-06-26 18:26:16.358295,599618408933141939,9.00
2025-06-26 18:26:16.358295,599618408933141939,21.00
2025-06-26 18:26:16.358295,599618408933141939,12.00
2025-06-26 18:26:16.358295,599618408933141939,-12.00
2025-06-26 18:26:16.358295,599618408933141939,-24.00
2025-06-26 18:26:16.358295,599618408933141939,-14.00
2025-06-26 18:26:16.898504,599618409493900016,0.00
2025-06-26 18:26:16.898504,599618409493900016,-4.00
2025-06-26 18:26:16.898504,599618409493900016,-19.00
2025-06-26 18:26:16.898504,599618409493900016,-21.00
2025-06-26 18:26:16.898504,599618409493900016,-14.00
2025-06-26 18:26:16.898504,599618409493900016,-24.00
2025-06-26 18:26:16.898504,599618409493900016,-55.00
2025-06-26 18:26:16.898504,599618409493900016,-55.00
2025-06-26 18:26:16.898504,599618409493900016,201.00
2025-06-26 18:26:16.898504,599618409493900016,980.00
2025-06-26 18:26:16.898504,599618409493900016,2039.00
2025-06-26 18:26:16.898504,599618409493900016,2535.00
2025-06-26 18:26:16.898504,599618409493900016,1868.00
2025-06-26 18:26:16.898504,599618409493900016,562.00
2025-06-26 18:26:16.898504,599618409493900016,-199.00
2025-06-26 18:26:16.898504,599618409493900016,-187.00
2025-06-26 18:26:16.898504,599618409493900016,-148.00
2025-06-26 18:26:16.898504,599618409493900016,-287.00
2025-06-26 18:26:16.898504,599618409493900016,-294.00
2025-06-26 18:26:16.898504,599618409493900016,-236.00
2025-06-26 18:26:16.898504,599618409493900016,-250.00
2025-06-26 18:26:16.898504,599618409493900016,-245.00
2025-06-26 18:26:16.898504,599618409493900016,-209.00
2025-06-26 18:26:16.898504,599618409493900016,-206.00
2025-06-26 18:26:16.898504,599618409493900016,-211.00
2025-06-26 18:26:16.898504,599618409493900016,-189.00
2025-06-26 18:26:16.898504,599618409493900016,-175.00
2025-06-26 18:26:16.898504,599618409493900016,-160.00
2025-06-26 18:26:16.898504,599618409493900016,-136.00
2025-06-26 18:26:16.898504,599618409493900016,-114.00
2025-06-26 18:26:16.898504,599618409493900016,-92.00
2025-06-26 18:26:16.898504,599618409493900016,-60.00
2025-06-26 18:26:16.898504,599618409493900016,-31.00
2025-06-26 18:26:16.898504,599618409493900016,-17.00
2025-06-26 18:26:16.898504,599618409493900016,-21.00
2025-06-26 18:26:16.898504,599618409493900016,-17.00
2025-06-26 18:26:16.898504,599618409493900016,7.00
2025-06-26 18:26:16.898504,599618409493900016,14.00
2025-06-26 18:26:16.898504,599618409493900016,-14.00
2025-06-26 18:26:16.898504,599618409493900016,-38.00
2025-06-26 18:26:16.898504,599618409493900016,-43.00
2025-06-26 18:26:16.898504,599618409493900016,-53.00
2025-06-26 18:26:16.898504,599618409493900016,-82.00
2025-06-26 18:26:16.898504,599618409493900016,-107.00
2025-06-26 18:26:16.898504,599618409493900016,-111.00
2025-06-26 18:26:16.898504,599618409493900016,-116.00
2025-06-26 18:26:16.898504,599618409493900016,-131.00
2025-06-26 18:26:16.898504,599618409493900016,-136.00
2025-06-26 18:26:16.898504,599618409493900016,-128.00
2025-06-26 18:26:16.898504,599618409493900016,-124.00
2025-06-26 18:26:16.898504,599618409493900016,-114.00
2025-06-26 18:26:16.898504,599618409493900016,-107.00
2025-06-26 18:26:16.898504,599618409493900016,-116.00
2025-06-26 18:26:16.898504,599618409493900016,-119.00
2025-06-26 18:26:16.898504,599618409493900016,-102.00
2025-06-26 18:26:16.898504,599618409493900016,-90.00
2025-06-26 18:26:16.898504,599618409493900016,-92.00
2025-06-26 18:26:16.898504,599618409493900016,-87.00
2025-06-26 18:26:16.898504,599618409493900016,-68.00
2025-06-26 18:26:16.898504,599618409493900016,-55.00
2025-06-26 18:26:16.898504,599618409493900016,-55.00
2025-06-26 18:26:16.898504,599618409493900016,-55.00
2025-06-26 18:26:16.898504,599618409493900016,-46.00
2025-06-26 18:26:16.898504,599618409493900016,-58.00
2025-06-26 18:26:16.898504,599618409493900016,-72.00
2025-06-26 18:26:16.898504,599618409493900016,-63.00
2025-06-26 18:26:16.898504,599618409493900016,-55.00
2025-06-26 18:26:16.898504,599618409493900016,-60.00
2025-06-26 18:26:16.898504,599618409493900016,-51.00
2025-06-26 18:26:16.898504,599618409493900016,-41.00
2025-06-26 18:26:16.898504,599618409493900016,-51.00
2025-06-26 18:26:16.898504,599618409493900016,-58.00
2025-06-26 18:26:16.898504,599618409493900016,-55.00
2025-06-26 18:26:17.499567,599618410054627575,-60.00
2025-06-26 18:26:17.499567,599618410054627575,-87.00
2025-06-26 18:26:17.499567,599618410054627575,-90.00
2025-06-26 18:26:17.499567,599618410054627575,-60.00
2025-06-26 18:26:17.499567,599618410054627575,-48.00
2025-06-26 18:26:17.499567,599618410054627575,-41.00
2025-06-26 18:26:17.499567,599618410054627575,-17.00
2025-06-26 18:26:17.499567,599618410054627575,0.00
2025-06-26 18:26:17.499567,599618410054627575,-21.00
2025-06-26 18:26:17.499567,599618410054627575,-58.00
2025-06-26 18:26:17.499567,599618410054627575,-63.00
2025-06-26 18:26:17.499567,599618410054627575,-41.00
2025-06-26 18:26:17.499567,599618410054627575,-34.00
2025-06-26 18:26:17.499567,599618410054627575,-38.00
2025-06-26 18:26:17.499567,599618410054627575,-43.00
2025-06-26 18:26:17.499567,599618410054627575,-41.00
2025-06-26 18:26:17.499567,599618410054627575,-38.00
2025-06-26 18:26:17.499567,599618410054627575,-60.00
2025-06-26 18:26:17.499567,599618410054627575,-109.00
2025-06-26 18:26:17.499567,599618410054627575,-70.00
2025-06-26 18:26:17.499567,599618410054627575,360.00
2025-06-26 18:26:17.499567,599618410054627575,1313.00
2025-06-26 18:26:17.499567,599618410054627575,2294.00
2025-06-26 18:26:17.499567,599618410054627575,2391.00
2025-06-26 18:26:17.499567,599618410054627575,1333.00
2025-06-26 18:26:17.499567,599618410054627575,107.00
2025-06-26 18:26:17.499567,599618410054627575,-270.00
2025-06-26 18:26:17.499567,599618410054627575,-131.00
2025-06-26 18:26:17.499567,599618410054627575,-206.00
2025-06-26 18:26:17.499567,599618410054627575,-335.00
2025-06-26 18:26:17.499567,599618410054627575,-277.00
2025-06-26 18:26:17.499567,599618410054627575,-248.00
2025-06-26 18:26:17.499567,599618410054627575,-272.00
2025-06-26 18:26:17.499567,599618410054627575,-248.00
2025-06-26 18:26:17.499567,599618410054627575,-226.00
2025-06-26 18:26:17.499567,599618410054627575,-218.00
2025-06-26 18:26:17.499567,599618410054627575,-187.00
2025-06-26 18:26:17.499567,599618410054627575,-158.00
2025-06-26 18:26:17.499567,599618410054627575,-153.00
2025-06-26 18:26:17.499567,599618410054627575,-138.00
2025-06-26 18:26:17.499567,599618410054627575,-114.00
2025-06-26 18:26:17.499567,599618410054627575,-99.00
2025-06-26 18:26:17.499567,599618410054627575,-82.00
2025-06-26 18:26:17.499567,599618410054627575,-53.00
2025-06-26 18:26:17.499567,599618410054627575,-31.00
2025-06-26 18:26:17.499567,599618410054627575,-17.00
2025-06-26 18:26:17.499567,599618410054627575,4.00
2025-06-26 18:26:17.499567,599618410054627575,17.00
2025-06-26 18:26:17.499567,599618410054627575,14.00
2025-06-26 18:26:17.499567,599618410054627575,2.00
2025-06-26 18:26:17.499567,599618410054627575,-9.00
2025-06-26 18:26:17.499567,599618410054627575,-19.00
2025-06-26 18:26:17.499567,599618410054627575,-34.00
2025-06-26 18:26:17.499567,599618410054627575,-60.00
2025-06-26 18:26:17.499567,599618410054627575,-87.00
2025-06-26 18:26:17.499567,599618410054627575,-104.00
2025-06-26 18:26:17.499567,599618410054627575,-107.00
2025-06-26 18:26:17.499567,599618410054627575,-107.00
2025-06-26 18:26:17.499567,599618410054627575,-121.00
2025-06-26 18:26:17.499567,599618410054627575,-131.00
2025-06-26 18:26:17.499567,599618410054627575,-124.00
2025-06-26 18:26:17.499567,599618410054627575,-114.00
2025-06-26 18:26:17.499567,599618410054627575,-109.00
2025-06-26 18:26:17.499567,599618410054627575,-107.00
2025-06-26 18:26:17.499567,599618410054627575,-111.00
2025-06-26 18:26:17.499567,599618410054627575,-109.00
2025-06-26 18:26:17.499567,599618410054627575,-97.00
2025-06-26 18:26:17.499567,599618410054627575,-90.00
2025-06-26 18:26:17.499567,599618410054627575,-87.00
2025-06-26 18:26:17.499567,599618410054627575,-75.00
2025-06-26 18:26:17.499567,599618410054627575,-65.00
2025-06-26 18:26:17.499567,599618410054627575,-72.00
2025-06-26 18:26:17.499567,599618410054627575,-72.00
2025-06-26 18:26:18.008744,599618410615385650,-58.00
2025-06-26 18:26:18.008744,599618410615385650,-55.00
2025-06-26 18:26:18.008744,599618410615385650,-63.00
2025-06-26 18:26:18.008744,599618410615385650,-63.00
2025-06-26 18:26:18.008744,599618410615385650,-60.00
2025-06-26 18:26:18.008744,599618410615385650,-63.00
2025-06-26 18:26:18.008744,599618410615385650,-68.00
2025-06-26 18:26:18.008744,599618410615385650,-75.00
2025-06-26 18:26:18.008744,599618410615385650,-75.00
2025-06-26 18:26:18.008744,599618410615385650,-75.00
2025-06-26 18:26:18.008744,599618410615385650,-75.00
2025-06-26 18:26:18.008744,599618410615385650,-70.00
2025-06-26 18:26:18.008744,599618410615385650,-65.00
2025-06-26 18:26:18.008744,599618410615385650,-68.00
2025-06-26 18:26:18.008744,599618410615385650,-72.00
2025-06-26 18:26:18.008744,599618410615385650,-77.00
2025-06-26 18:26:18.008744,599618410615385650,-77.00
2025-06-26 18:26:18.008744,599618410615385650,-77.00
2025-06-26 18:26:18.008744,599618410615385650,-87.00
2025-06-26 18:26:18.008744,599618410615385650,-94.00
2025-06-26 18:26:18.008744,599618410615385650,-85.00
2025-06-26 18:26:18.008744,599618410615385650,-70.00
2025-06-26 18:26:18.008744,599618410615385650,-63.00
2025-06-26 18:26:18.008744,599618410615385650,-48.00
2025-06-26 18:26:18.008744,599618410615385650,-29.00
2025-06-26 18:26:18.008744,599618410615385650,-31.00
2025-06-26 18:26:18.008744,599618410615385650,-55.00
2025-06-26 18:26:18.008744,599618410615385650,-68.00
2025-06-26 18:26:18.008744,599618410615385650,-65.00
2025-06-26 18:26:18.008744,599618410615385650,-58.00
2025-06-26 18:26:18.008744,599618410615385650,-60.00
2025-06-26 18:26:18.008744,599618410615385650,-70.00
2025-06-26 18:26:18.008744,599618410615385650,-77.00
2025-06-26 18:26:18.008744,599618410615385650,-77.00
2025-06-26 18:26:18.008744,599618410615385650,-85.00
2025-06-26 18:26:18.008744,599618410615385650,-111.00
2025-06-26 18:26:18.008744,599618410615385650,-148.00
2025-06-26 18:26:18.008744,599618410615385650,-7.00
2025-06-26 18:26:18.008744,599618410615385650,635.00
2025-06-26 18:26:18.008744,599618410615385650,1693.00
2025-06-26 18:26:18.008744,599618410615385650,2423.00
2025-06-26 18:26:18.008744,599618410615385650,2053.00
2025-06-26 18:26:18.008744,599618410615385650,793.00
2025-06-26 18:26:18.008744,599618410615385650,-199.00
2025-06-26 18:26:18.008744,599618410615385650,-318.00
2025-06-26 18:26:18.008744,599618410615385650,-209.00
2025-06-26 18:26:18.008744,599618410615385650,-350.00
2025-06-26 18:26:18.008744,599618410615385650,-440.00
2025-06-26 18:26:18.008744,599618410615385650,-386.00
2025-06-26 18:26:18.008744,599618410615385650,-384.00
2025-06-26 18:26:18.008744,599618410615385650,-396.00
2025-06-26 18:26:18.008744,599618410615385650,-362.00
2025-06-26 18:26:18.008744,599618410615385650,-338.00
2025-06-26 18:26:18.008744,599618410615385650,-328.00
2025-06-26 18:26:18.008744,599618410615385650,-309.00
2025-06-26 18:26:18.008744,599618410615385650,-287.00
2025-06-26 18:26:18.008744,599618410615385650,-272.00
2025-06-26 18:26:18.008744,599618410615385650,-257.00
2025-06-26 18:26:18.008744,599618410615385650,-240.00
2025-06-26 18:26:18.008744,599618410615385650,-223.00
2025-06-26 18:26:18.008744,599618410615385650,-206.00
2025-06-26 18:26:18.008744,599618410615385650,-189.00
2025-06-26 18:26:18.008744,599618410615385650,-170.00
2025-06-26 18:26:18.008744,599618410615385650,-150.00
2025-06-26 18:26:18.008744,599618410615385650,-141.00
2025-06-26 18:26:18.008744,599618410615385650,-133.00
2025-06-26 18:26:18.008744,599618410615385650,-126.00
2025-06-26 18:26:18.008744,599618410615385650,-133.00
2025-06-26 18:26:18.008744,599618410615385650,-150.00
2025-06-26 18:26:18.008744,599618410615385650,-165.00
2025-06-26 18:26:18.008744,599618410615385650,-182.00
2025-06-26 18:26:18.008744,599618410615385650,-201.00
2025-06-26 18:26:18.008744,599618410615385650,-209.00
2025-06-26 18:26:18.608476,599618411176113213,-216.00
2025-06-26 18:26:18.608476,599618411176113213,-223.00
2025-06-26 18:26:18.608476,599618411176113213,-228.00
2025-06-26 18:26:18.608476,599618411176113213,-226.00
2025-06-26 18:26:18.608476,599618411176113213,-226.00
2025-06-26 18:26:18.608476,599618411176113213,-218.00
2025-06-26 18:26:18.608476,599618411176113213,-209.00
2025-06-26 18:26:18.608476,599618411176113213,-206.00
2025-06-26 18:26:18.608476,599618411176113213,-204.00
2025-06-26 18:26:18.608476,599618411176113213,-197.00
2025-06-26 18:26:18.608476,599618411176113213,-187.00
2025-06-26 18:26:18.608476,599618411176113213,-182.00
2025-06-26 18:26:18.608476,599618411176113213,-177.00
2025-06-26 18:26:18.608476,599618411176113213,-177.00
2025-06-26 18:26:18.608476,599618411176113213,-177.00
2025-06-26 18:26:18.608476,599618411176113213,-172.00
2025-06-26 18:26:18.608476,599618411176113213,-167.00
2025-06-26 18:26:18.608476,599618411176113213,-167.00
2025-06-26 18:26:18.608476,599618411176113213,-160.00
2025-06-26 18:26:18.608476,599618411176113213,-153.00
2025-06-26 18:26:18.608476,599618411176113213,-155.00
2025-06-26 18:26:18.608476,599618411176113213,-158.00
2025-06-26 18:26:18.608476,599618411176113213,-150.00
2025-06-26 18:26:18.608476,599618411176113213,-153.00
2025-06-26 18:26:18.608476,599618411176113213,-160.00
2025-06-26 18:26:18.608476,599618411176113213,-163.00
2025-06-26 18:26:18.608476,599618411176113213,-158.00
2025-06-26 18:26:18.608476,599618411176113213,-153.00
2025-06-26 18:26:18.608476,599618411176113213,-155.00
2025-06-26 18:26:18.608476,599618411176113213,-172.00
2025-06-26 18:26:18.608476,599618411176113213,-194.00
2025-06-26 18:26:18.608476,599618411176113213,-192.00
2025-06-26 18:26:18.608476,599618411176113213,-170.00
2025-06-26 18:26:18.608476,599618411176113213,-158.00
2025-06-26 18:26:18.608476,599618411176113213,-150.00
2025-06-26 18:26:18.608476,599618411176113213,-124.00
2025-06-26 18:26:18.608476,599618411176113213,-94.00
2025-06-26 18:26:18.608476,599618411176113213,-92.00
2025-06-26 18:26:18.608476,599618411176113213,-119.00
2025-06-26 18:26:18.608476,599618411176113213,-133.00
2025-06-26 18:26:18.608476,599618411176113213,-124.00
2025-06-26 18:26:18.608476,599618411176113213,-116.00
2025-06-26 18:26:18.608476,599618411176113213,-119.00
2025-06-26 18:26:18.608476,599618411176113213,-116.00
2025-06-26 18:26:18.608476,599618411176113213,-119.00
2025-06-26 18:26:18.608476,599618411176113213,-131.00
2025-06-26 18:26:18.608476,599618411176113213,-136.00
2025-06-26 18:26:18.608476,599618411176113213,-148.00
2025-06-26 18:26:18.608476,599618411176113213,-177.00
2025-06-26 18:26:18.608476,599618411176113213,-36.00
2025-06-26 18:26:18.608476,599618411176113213,562.00
2025-06-26 18:26:18.608476,599618411176113213,1562.00
2025-06-26 18:26:18.608476,599618411176113213,2292.00
2025-06-26 18:26:18.608476,599618411176113213,2007.00
2025-06-26 18:26:18.608476,599618411176113213,844.00
2025-06-26 18:26:18.608476,599618411176113213,-155.00
2025-06-26 18:26:18.608476,599618411176113213,-338.00
2025-06-26 18:26:18.608476,599618411176113213,-206.00
2025-06-26 18:26:18.608476,599618411176113213,-318.00
2025-06-26 18:26:18.608476,599618411176113213,-420.00
2025-06-26 18:26:18.608476,599618411176113213,-355.00
2025-06-26 18:26:18.608476,599618411176113213,-335.00
2025-06-26 18:26:18.608476,599618411176113213,-360.00
2025-06-26 18:26:18.608476,599618411176113213,-328.00
2025-06-26 18:26:18.608476,599618411176113213,-291.00
2025-06-26 18:26:18.608476,599618411176113213,-284.00
2025-06-26 18:26:18.608476,599618411176113213,-277.00
2025-06-26 18:26:18.608476,599618411176113213,-257.00
2025-06-26 18:26:18.608476,599618411176113213,-238.00
2025-06-26 18:26:18.608476,599618411176113213,-218.00
2025-06-26 18:26:18.608476,599618411176113213,-192.00
2025-06-26 18:26:18.608476,599618411176113213,-165.00
2025-06-26 18:26:18.608476,599618411176113213,-148.00
2025-06-26 18:26:19.148364,599618411736840772,-128.00
2025-06-26 18:26:19.148364,599618411736840772,-104.00
2025-06-26 18:26:19.148364,599618411736840772,-87.00
2025-06-26 18:26:19.148364,599618411736840772,-77.00
2025-06-26 18:26:19.148364,599618411736840772,-72.00
2025-06-26 18:26:19.148364,599618411736840772,-75.00
2025-06-26 18:26:19.148364,599618411736840772,-82.00
2025-06-26 18:26:19.148364,599618411736840772,-92.00
2025-06-26 18:26:19.148364,599618411736840772,-114.00
2025-06-26 18:26:19.148364,599618411736840772,-136.00
2025-06-26 18:26:19.148364,599618411736840772,-150.00
2025-06-26 18:26:19.148364,599618411736840772,-167.00
2025-06-26 18:26:19.148364,599618411736840772,-184.00
2025-06-26 18:26:19.148364,599618411736840772,-187.00
2025-06-26 18:26:19.148364,599618411736840772,-182.00
2025-06-26 18:26:19.148364,599618411736840772,-184.00
2025-06-26 18:26:19.148364,599618411736840772,-184.00
2025-06-26 18:26:19.148364,599618411736840772,-180.00
2025-06-26 18:26:19.148364,599618411736840772,-175.00
2025-06-26 18:26:19.148364,599618411736840772,-172.00
2025-06-26 18:26:19.148364,599618411736840772,-170.00
2025-06-26 18:26:19.148364,599618411736840772,-167.00
2025-06-26 18:26:19.148364,599618411736840772,-167.00
2025-06-26 18:26:19.148364,599618411736840772,-158.00
2025-06-26 18:26:19.148364,599618411736840772,-145.00
2025-06-26 18:26:19.148364,599618411736840772,-133.00
2025-06-26 18:26:19.148364,599618411736840772,-128.00
2025-06-26 18:26:19.148364,599618411736840772,-124.00
2025-06-26 18:26:19.148364,599618411736840772,-109.00
2025-06-26 18:26:19.148364,599618411736840772,-92.00
2025-06-26 18:26:19.148364,599618411736840772,-85.00
2025-06-26 18:26:19.148364,599618411736840772,-85.00
2025-06-26 18:26:19.148364,599618411736840772,-82.00
2025-06-26 18:26:19.148364,599618411736840772,-72.00
2025-06-26 18:26:19.148364,599618411736840772,-70.00
2025-06-26 18:26:19.148364,599618411736840772,-75.00
2025-06-26 18:26:19.148364,599618411736840772,-75.00
2025-06-26 18:26:19.148364,599618411736840772,-77.00
2025-06-26 18:26:19.148364,599618411736840772,-82.00
2025-06-26 18:26:19.148364,599618411736840772,-87.00
2025-06-26 18:26:19.148364,599618411736840772,-102.00
2025-06-26 18:26:19.148364,599618411736840772,-111.00
2025-06-26 18:26:19.148364,599618411736840772,-99.00
2025-06-26 18:26:19.148364,599618411736840772,-85.00
2025-06-26 18:26:19.148364,599618411736840772,-72.00
2025-06-26 18:26:19.148364,599618411736840772,-51.00
2025-06-26 18:26:19.148364,599618411736840772,-21.00
2025-06-26 18:26:19.148364,599618411736840772,-19.00
2025-06-26 18:26:19.148364,599618411736840772,-48.00
2025-06-26 18:26:19.148364,599618411736840772,-72.00
2025-06-26 18:26:19.148364,599618411736840772,-63.00
2025-06-26 18:26:19.148364,599618411736840772,-48.00
2025-06-26 18:26:19.148364,599618411736840772,-51.00
2025-06-26 18:26:19.148364,599618411736840772,-58.00
2025-06-26 18:26:19.148364,599618411736840772,-58.00
2025-06-26 18:26:19.148364,599618411736840772,-55.00
2025-06-26 18:26:19.148364,599618411736840772,-60.00
2025-06-26 18:26:19.148364,599618411736840772,-77.00
2025-06-26 18:26:19.148364,599618411736840772,-104.00
2025-06-26 18:26:19.148364,599618411736840772,14.00
2025-06-26 18:26:19.148364,599618411736840772,583.00
2025-06-26 18:26:19.148364,599618411736840772,1598.00
2025-06-26 18:26:19.148364,599618411736840772,2382.00
2025-06-26 18:26:19.148364,599618411736840772,2143.00
2025-06-26 18:26:19.148364,599618411736840772,990.00
2025-06-26 18:26:19.148364,599618411736840772,-51.00
2025-06-26 18:26:19.148364,599618411736840772,-291.00
2025-06-26 18:26:19.148364,599618411736840772,-175.00
2025-06-26 18:26:19.148364,599618411736840772,-270.00
2025-06-26 18:26:19.148364,599618411736840772,-364.00
2025-06-26 18:26:19.148364,599618411736840772,-304.00
2025-06-26 18:26:19.148364,599618411736840772,-284.00
2025-06-26 18:26:19.148364,599618411736840772,-311.00
2025-06-26 18:26:19.748297,599618412297568331,-287.00
2025-06-26 18:26:19.748297,599618412297568331,-255.00
2025-06-26 18:26:19.748297,599618412297568331,-248.00
2025-06-26 18:26:19.748297,599618412297568331,-228.00
2025-06-26 18:26:19.748297,599618412297568331,-209.00
2025-06-26 18:26:19.748297,599618412297568331,-201.00
2025-06-26 18:26:19.748297,599618412297568331,-187.00
2025-06-26 18:26:19.748297,599618412297568331,-165.00
2025-06-26 18:26:19.748297,599618412297568331,-145.00
2025-06-26 18:26:19.748297,599618412297568331,-126.00
2025-06-26 18:26:19.748297,599618412297568331,-99.00
2025-06-26 18:26:19.748297,599618412297568331,-70.00
2025-06-26 18:26:19.748297,599618412297568331,-58.00
2025-06-26 18:26:19.748297,599618412297568331,-53.00
2025-06-26 18:26:19.748297,599618412297568331,-55.00
2025-06-26 18:26:19.748297,599618412297568331,-60.00
2025-06-26 18:26:19.748297,599618412297568331,-65.00
2025-06-26 18:26:19.748297,599618412297568331,-75.00
2025-06-26 18:26:19.748297,599618412297568331,-82.00
2025-06-26 18:26:19.748297,599618412297568331,-94.00
2025-06-26 18:26:19.748297,599618412297568331,-116.00
2025-06-26 18:26:19.748297,599618412297568331,-133.00
2025-06-26 18:26:19.748297,599618412297568331,-143.00
2025-06-26 18:26:19.748297,599618412297568331,-153.00
2025-06-26 18:26:19.748297,599618412297568331,-158.00
2025-06-26 18:26:19.748297,599618412297568331,-150.00
2025-06-26 18:26:19.748297,599618412297568331,-150.00
2025-06-26 18:26:19.748297,599618412297568331,-155.00
2025-06-26 18:26:19.748297,599618412297568331,-150.00
2025-06-26 18:26:19.748297,599618412297568331,-138.00
2025-06-26 18:26:19.748297,599618412297568331,-133.00
2025-06-26 18:26:19.748297,599618412297568331,-131.00
2025-06-26 18:26:19.748297,599618412297568331,-131.00
2025-06-26 18:26:19.748297,599618412297568331,-126.00
2025-06-26 18:26:19.748297,599618412297568331,-119.00
2025-06-26 18:26:19.748297,599618412297568331,-111.00
2025-06-26 18:26:19.748297,599618412297568331,-109.00
2025-06-26 18:26:19.748297,599618412297568331,-99.00
2025-06-26 18:26:19.748297,599618412297568331,-87.00
2025-06-26 18:26:19.748297,599618412297568331,-80.00
2025-06-26 18:26:19.748297,599618412297568331,-80.00
2025-06-26 18:26:19.748297,599618412297568331,-72.00
2025-06-26 18:26:19.748297,599618412297568331,-65.00
2025-06-26 18:26:19.748297,599618412297568331,-63.00
2025-06-26 18:26:19.748297,599618412297568331,-65.00
2025-06-26 18:26:19.748297,599618412297568331,-63.00
2025-06-26 18:26:19.748297,599618412297568331,-58.00
2025-06-26 18:26:19.748297,599618412297568331,-60.00
2025-06-26 18:26:19.748297,599618412297568331,-63.00
2025-06-26 18:26:19.748297,599618412297568331,-58.00
2025-06-26 18:26:19.748297,599618412297568331,-60.00
2025-06-26 18:26:19.748297,599618412297568331,-68.00
2025-06-26 18:26:19.748297,599618412297568331,-75.00
2025-06-26 18:26:19.748297,599618412297568331,-85.00
2025-06-26 18:26:19.748297,599618412297568331,-90.00
2025-06-26 18:26:19.748297,599618412297568331,-85.00
2025-06-26 18:26:19.748297,599618412297568331,-72.00
2025-06-26 18:26:19.748297,599618412297568331,-63.00
2025-06-26 18:26:19.748297,599618412297568331,-43.00
2025-06-26 18:26:19.748297,599618412297568331,-14.00
2025-06-26 18:26:19.748297,599618412297568331,-2.00
2025-06-26 18:26:19.748297,599618412297568331,-19.00
2025-06-26 18:26:19.748297,599618412297568331,-46.00
2025-06-26 18:26:19.748297,599618412297568331,-51.00
2025-06-26 18:26:19.748297,599618412297568331,-43.00
2025-06-26 18:26:19.748297,599618412297568331,-38.00
2025-06-26 18:26:19.748297,599618412297568331,-38.00
2025-06-26 18:26:19.748297,599618412297568331,-36.00
2025-06-26 18:26:19.748297,599618412297568331,-41.00
2025-06-26 18:26:19.748297,599618412297568331,-51.00
2025-06-26 18:26:19.748297,599618412297568331,-65.00
2025-06-26 18:26:19.748297,599618412297568331,-94.00
2025-06-26 18:26:19.748297,599618412297568331,-38.00
2025-06-26 18:26:20.258447,599618412858326408,401.00
2025-06-26 18:26:20.258447,599618412858326408,1352.00
2025-06-26 18:26:20.258447,599618412858326408,2282.00
2025-06-26 18:26:20.258447,599618412858326408,2321.00
2025-06-26 18:26:20.258447,599618412858326408,1306.00
2025-06-26 18:26:20.258447,599618412858326408,121.00
2025-06-26 18:26:20.258447,599618412858326408,-299.00
2025-06-26 18:26:20.258447,599618412858326408,-180.00
2025-06-26 18:26:20.258447,599618412858326408,-228.00
2025-06-26 18:26:20.258447,599618412858326408,-362.00
2025-06-26 18:26:20.258447,599618412858326408,-318.00
2025-06-26 18:26:20.258447,599618412858326408,-279.00
2025-06-26 18:26:20.258447,599618412858326408,-306.00
2025-06-26 18:26:20.258447,599618412858326408,-289.00
2025-06-26 18:26:20.258447,599618412858326408,-253.00
2025-06-26 18:26:20.258447,599618412858326408,-245.00
2025-06-26 18:26:20.258447,599618412858326408,-236.00
2025-06-26 18:26:20.258447,599618412858326408,-216.00
2025-06-26 18:26:20.258447,599618412858326408,-199.00
2025-06-26 18:26:20.258447,599618412858326408,-189.00
2025-06-26 18:26:20.258447,599618412858326408,-175.00
2025-06-26 18:26:20.258447,599618412858326408,-153.00
2025-06-26 18:26:20.258447,599618412858326408,-131.00
2025-06-26 18:26:20.258447,599618412858326408,-109.00
2025-06-26 18:26:20.258447,599618412858326408,-85.00
2025-06-26 18:26:20.258447,599618412858326408,-65.00
2025-06-26 18:26:20.258447,599618412858326408,-53.00
2025-06-26 18:26:20.258447,599618412858326408,-46.00
2025-06-26 18:26:20.258447,599618412858326408,-41.00
2025-06-26 18:26:20.258447,599618412858326408,-46.00
2025-06-26 18:26:20.258447,599618412858326408,-58.00
2025-06-26 18:26:20.258447,599618412858326408,-68.00
2025-06-26 18:26:20.258447,599618412858326408,-80.00
2025-06-26 18:26:20.258447,599618412858326408,-99.00
2025-06-26 18:26:20.258447,599618412858326408,-116.00
2025-06-26 18:26:20.258447,599618412858326408,-128.00
2025-06-26 18:26:20.258447,599618412858326408,-138.00
2025-06-26 18:26:20.258447,599618412858326408,-145.00
2025-06-26 18:26:20.258447,599618412858326408,-155.00
2025-06-26 18:26:20.258447,599618412858326408,-160.00
2025-06-26 18:26:20.258447,599618412858326408,-155.00
2025-06-26 18:26:20.258447,599618412858326408,-145.00
2025-06-26 18:26:20.258447,599618412858326408,-138.00
2025-06-26 18:26:20.258447,599618412858326408,-133.00
2025-06-26 18:26:20.258447,599618412858326408,-126.00
2025-06-26 18:26:20.258447,599618412858326408,-121.00
2025-06-26 18:26:20.258447,599618412858326408,-121.00
2025-06-26 18:26:20.258447,599618412858326408,-114.00
2025-06-26 18:26:20.258447,599618412858326408,-107.00
2025-06-26 18:26:20.258447,599618412858326408,-104.00
2025-06-26 18:26:20.258447,599618412858326408,-99.00
2025-06-26 18:26:20.258447,599618412858326408,-90.00
2025-06-26 18:26:20.258447,599618412858326408,-85.00
2025-06-26 18:26:20.258447,599618412858326408,-80.00
2025-06-26 18:26:20.258447,599618412858326408,-77.00
2025-06-26 18:26:20.258447,599618412858326408,-75.00
2025-06-26 18:26:20.258447,599618412858326408,-72.00
2025-06-26 18:26:20.258447,599618412858326408,-70.00
2025-06-26 18:26:20.258447,599618412858326408,-68.00
2025-06-26 18:26:20.258447,599618412858326408,-68.00
2025-06-26 18:26:20.258447,599618412858326408,-65.00
2025-06-26 18:26:20.258447,599618412858326408,-63.00
2025-06-26 18:26:20.258447,599618412858326408,-58.00
2025-06-26 18:26:20.258447,599618412858326408,-58.00
2025-06-26 18:26:20.258447,599618412858326408,-58.00
2025-06-26 18:26:20.258447,599618412858326408,-58.00
2025-06-26 18:26:20.258447,599618412858326408,-58.00
2025-06-26 18:26:20.258447,599618412858326408,-53.00
2025-06-26 18:26:20.258447,599618412858326408,-53.00
2025-06-26 18:26:20.258447,599618412858326408,-60.00
2025-06-26 18:26:20.258447,599618412858326408,-68.00
2025-06-26 18:26:20.258447,599618412858326408,-75.00
2025-06-26 18:26:20.258447,599618412858326408,-80.00
2025-06-26 18:26:20.830070,599618413419053967,-70.00
2025-06-26 18:26:20.830070,599618413419053967,-55.00
2025-06-26 18:26:20.830070,599618413419053967,-48.00
2025-06-26 18:26:20.830070,599618413419053967,-31.00
2025-06-26 18:26:20.830070,599618413419053967,-4.00
2025-06-26 18:26:20.830070,599618413419053967,2.00
2025-06-26 18:26:20.830070,599618413419053967,-24.00
2025-06-26 18:26:20.830070,599618413419053967,-43.00
2025-06-26 18:26:20.830070,599618413419053967,-38.00
2025-06-26 18:26:20.830070,599618413419053967,-24.00
2025-06-26 18:26:20.830070,599618413419053967,-29.00
2025-06-26 18:26:20.830070,599618413419053967,-34.00
2025-06-26 18:26:20.830070,599618413419053967,-31.00
2025-06-26 18:26:20.830070,599618413419053967,-31.00
2025-06-26 18:26:20.830070,599618413419053967,-41.00
2025-06-26 18:26:20.830070,599618413419053967,-68.00
2025-06-26 18:26:20.830070,599618413419053967,-94.00
2025-06-26 18:26:20.830070,599618413419053967,29.00
2025-06-26 18:26:20.830070,599618413419053967,603.00
2025-06-26 18:26:20.830070,599618413419053967,1620.00
2025-06-26 18:26:20.830070,599618413419053967,2406.00
2025-06-26 18:26:20.830070,599618413419053967,2163.00
2025-06-26 18:26:20.830070,599618413419053967,985.00
2025-06-26 18:26:20.830070,599618413419053967,-65.00
2025-06-26 18:26:20.830070,599618413419053967,-279.00
2025-06-26 18:26:20.830070,599618413419053967,-160.00
2025-06-26 18:26:20.830070,599618413419053967,-270.00
2025-06-26 18:26:20.830070,599618413419053967,-360.00
2025-06-26 18:26:20.830070,599618413419053967,-291.00
2025-06-26 18:26:20.830070,599618413419053967,-282.00
2025-06-26 18:26:20.830070,599618413419053967,-309.00
2025-06-26 18:26:20.830070,599618413419053967,-279.00
2025-06-26 18:26:20.830070,599618413419053967,-250.00
2025-06-26 18:26:20.830070,599618413419053967,-245.00
2025-06-26 18:26:20.830070,599618413419053967,-233.00
2025-06-26 18:26:20.830070,599618413419053967,-214.00
2025-06-26 18:26:20.830070,599618413419053967,-197.00
2025-06-26 18:26:20.830070,599618413419053967,-182.00
2025-06-26 18:26:20.830070,599618413419053967,-160.00
2025-06-26 18:26:20.830070,599618413419053967,-141.00
2025-06-26 18:26:20.830070,599618413419053967,-124.00
2025-06-26 18:26:20.830070,599618413419053967,-102.00
2025-06-26 18:26:20.830070,599618413419053967,-82.00
2025-06-26 18:26:20.830070,599618413419053967,-65.00
2025-06-26 18:26:20.830070,599618413419053967,-48.00
2025-06-26 18:26:20.830070,599618413419053967,-38.00
2025-06-26 18:26:20.830070,599618413419053967,-41.00
2025-06-26 18:26:20.830070,599618413419053967,-43.00
2025-06-26 18:26:20.830070,599618413419053967,-48.00
2025-06-26 18:26:20.830070,599618413419053967,-58.00
2025-06-26 18:26:20.830070,599618413419053967,-72.00
2025-06-26 18:26:20.830070,599618413419053967,-92.00
2025-06-26 18:26:20.830070,599618413419053967,-109.00
2025-06-26 18:26:20.830070,599618413419053967,-119.00
2025-06-26 18:26:20.830070,599618413419053967,-128.00
2025-06-26 18:26:20.830070,599618413419053967,-145.00
2025-06-26 18:26:20.830070,599618413419053967,-153.00
2025-06-26 18:26:20.830070,599618413419053967,-145.00
2025-06-26 18:26:20.830070,599618413419053967,-141.00
2025-06-26 18:26:20.830070,599618413419053967,-136.00
2025-06-26 18:26:20.830070,599618413419053967,-128.00
2025-06-26 18:26:20.830070,599618413419053967,-119.00
2025-06-26 18:26:20.830070,599618413419053967,-114.00
2025-06-26 18:26:20.830070,599618413419053967,-107.00
2025-06-26 18:26:20.830070,599618413419053967,-102.00
2025-06-26 18:26:20.830070,599618413419053967,-104.00
2025-06-26 18:26:20.830070,599618413419053967,-104.00
2025-06-26 18:26:20.830070,599618413419053967,-97.00
2025-06-26 18:26:20.830070,599618413419053967,-90.00
2025-06-26 18:26:20.830070,599618413419053967,-85.00
2025-06-26 18:26:20.830070,599618413419053967,-85.00
2025-06-26 18:26:20.830070,599618413419053967,-85.00
2025-06-26 18:26:20.830070,599618413419053967,-80.00
2025-06-26 18:26:21.399349,599618413979812042,-75.00
2025-06-26 18:26:21.399349,599618413979812042,-72.00
2025-06-26 18:26:21.399349,599618413979812042,-75.00
2025-06-26 18:26:21.399349,599618413979812042,-68.00
2025-06-26 18:26:21.399349,599618413979812042,-60.00
2025-06-26 18:26:21.399349,599618413979812042,-63.00
2025-06-26 18:26:21.399349,599618413979812042,-68.00
2025-06-26 18:26:21.399349,599618413979812042,-60.00
2025-06-26 18:26:21.399349,599618413979812042,-58.00
2025-06-26 18:26:21.399349,599618413979812042,-55.00
2025-06-26 18:26:21.399349,599618413979812042,-51.00
2025-06-26 18:26:21.399349,599618413979812042,-51.00
2025-06-26 18:26:21.399349,599618413979812042,-55.00
2025-06-26 18:26:21.399349,599618413979812042,-60.00
2025-06-26 18:26:21.399349,599618413979812042,-55.00
2025-06-26 18:26:21.399349,599618413979812042,-53.00
2025-06-26 18:26:21.399349,599618413979812042,-55.00
2025-06-26 18:26:21.399349,599618413979812042,-53.00
2025-06-26 18:26:21.399349,599618413979812042,-51.00
2025-06-26 18:26:21.399349,599618413979812042,-55.00
2025-06-26 18:26:21.399349,599618413979812042,-65.00
2025-06-26 18:26:21.399349,599618413979812042,-72.00
2025-06-26 18:26:21.399349,599618413979812042,-72.00
2025-06-26 18:26:21.399349,599618413979812042,-65.00
2025-06-26 18:26:21.399349,599618413979812042,-51.00
2025-06-26 18:26:21.399349,599618413979812042,-38.00
2025-06-26 18:26:21.399349,599618413979812042,-21.00
2025-06-26 18:26:21.399349,599618413979812042,0.00
2025-06-26 18:26:21.399349,599618413979812042,4.00
2025-06-26 18:26:21.399349,599618413979812042,-14.00
2025-06-26 18:26:21.399349,599618413979812042,-36.00
2025-06-26 18:26:21.399349,599618413979812042,-38.00
2025-06-26 18:26:21.399349,599618413979812042,-31.00
2025-06-26 18:26:21.399349,599618413979812042,-34.00
2025-06-26 18:26:21.399349,599618413979812042,-36.00
2025-06-26 18:26:21.399349,599618413979812042,-34.00
2025-06-26 18:26:21.399349,599618413979812042,-34.00
2025-06-26 18:26:21.399349,599618413979812042,-38.00
2025-06-26 18:26:21.399349,599618413979812042,-55.00
2025-06-26 18:26:21.399349,599618413979812042,-77.00
2025-06-26 18:26:21.399349,599618413979812042,46.00
2025-06-26 18:26:21.399349,599618413979812042,622.00
2025-06-26 18:26:21.399349,599618413979812042,1635.00
2025-06-26 18:26:21.399349,599618413979812042,2404.00
2025-06-26 18:26:21.399349,599618413979812042,2141.00
2025-06-26 18:26:21.399349,599618413979812042,958.00
2025-06-26 18:26:21.399349,599618413979812042,-75.00
2025-06-26 18:26:21.399349,599618413979812042,-270.00
2025-06-26 18:26:21.399349,599618413979812042,-153.00
2025-06-26 18:26:21.399349,599618413979812042,-265.00
2025-06-26 18:26:21.399349,599618413979812042,-350.00
2025-06-26 18:26:21.399349,599618413979812042,-284.00
2025-06-26 18:26:21.399349,599618413979812042,-279.00
2025-06-26 18:26:21.399349,599618413979812042,-296.00
2025-06-26 18:26:21.399349,599618413979812042,-262.00
2025-06-26 18:26:21.399349,599618413979812042,-243.00
2025-06-26 18:26:21.399349,599618413979812042,-238.00
2025-06-26 18:26:21.399349,599618413979812042,-218.00
2025-06-26 18:26:21.399349,599618413979812042,-201.00
2025-06-26 18:26:21.399349,599618413979812042,-192.00
2025-06-26 18:26:21.399349,599618413979812042,-175.00
2025-06-26 18:26:21.399349,599618413979812042,-153.00
2025-06-26 18:26:21.399349,599618413979812042,-136.00
2025-06-26 18:26:21.399349,599618413979812042,-116.00
2025-06-26 18:26:21.399349,599618413979812042,-99.00
2025-06-26 18:26:21.399349,599618413979812042,-80.00
2025-06-26 18:26:21.399349,599618413979812042,-63.00
2025-06-26 18:26:21.399349,599618413979812042,-48.00
2025-06-26 18:26:21.399349,599618413979812042,-43.00
2025-06-26 18:26:21.399349,599618413979812042,-46.00
2025-06-26 18:26:21.399349,599618413979812042,-48.00
2025-06-26 18:26:21.399349,599618413979812042,-55.00
2025-06-26 18:26:21.399349,599618413979812042,-65.00
2025-06-26 18:26:21.969594,599618414540539605,-75.00
2025-06-26 18:26:21.969594,599618414540539605,-87.00
2025-06-26 18:26:21.969594,599618414540539605,-107.00
2025-06-26 18:26:21.969594,599618414540539605,-119.00
2025-06-26 18:26:21.969594,599618414540539605,-121.00
2025-06-26 18:26:21.969594,599618414540539605,-126.00
2025-06-26 18:26:21.969594,599618414540539605,-133.00
2025-06-26 18:26:21.969594,599618414540539605,-133.00
2025-06-26 18:26:21.969594,599618414540539605,-126.00
2025-06-26 18:26:21.969594,599618414540539605,-119.00
2025-06-26 18:26:21.969594,599618414540539605,-119.00
2025-06-26 18:26:21.969594,599618414540539605,-114.00
2025-06-26 18:26:21.969594,599618414540539605,-107.00
2025-06-26 18:26:21.969594,599618414540539605,-102.00
2025-06-26 18:26:21.969594,599618414540539605,-99.00
2025-06-26 18:26:21.969594,599618414540539605,-97.00
2025-06-26 18:26:21.969594,599618414540539605,-94.00
2025-06-26 18:26:21.969594,599618414540539605,-90.00
2025-06-26 18:26:21.969594,599618414540539605,-85.00
2025-06-26 18:26:21.969594,599618414540539605,-80.00
2025-06-26 18:26:21.969594,599618414540539605,-75.00
2025-06-26 18:26:21.969594,599618414540539605,-72.00
2025-06-26 18:26:21.969594,599618414540539605,-65.00
2025-06-26 18:26:21.969594,599618414540539605,-60.00
2025-06-26 18:26:21.969594,599618414540539605,-60.00
2025-06-26 18:26:21.969594,599618414540539605,-60.00
2025-06-26 18:26:21.969594,599618414540539605,-60.00
2025-06-26 18:26:21.969594,599618414540539605,-55.00
2025-06-26 18:26:21.969594,599618414540539605,-53.00
2025-06-26 18:26:21.969594,599618414540539605,-55.00
2025-06-26 18:26:21.969594,599618414540539605,-58.00
2025-06-26 18:26:21.969594,599618414540539605,-55.00
2025-06-26 18:26:21.969594,599618414540539605,-53.00
2025-06-26 18:26:21.969594,599618414540539605,-51.00
2025-06-26 18:26:21.969594,599618414540539605,-51.00
2025-06-26 18:26:21.969594,599618414540539605,-51.00
2025-06-26 18:26:21.969594,599618414540539605,-51.00
2025-06-26 18:26:21.969594,599618414540539605,-46.00
2025-06-26 18:26:21.969594,599618414540539605,-48.00
2025-06-26 18:26:21.969594,599618414540539605,-51.00
2025-06-26 18:26:21.969594,599618414540539605,-48.00
2025-06-26 18:26:21.969594,599618414540539605,-48.00
2025-06-26 18:26:21.969594,599618414540539605,-55.00
2025-06-26 18:26:21.969594,599618414540539605,-58.00
2025-06-26 18:26:21.969594,599618414540539605,-65.00
2025-06-26 18:26:21.969594,599618414540539605,-68.00
2025-06-26 18:26:21.969594,599618414540539605,-60.00
2025-06-26 18:26:21.969594,599618414540539605,-51.00
2025-06-26 18:26:21.969594,599618414540539605,-38.00
2025-06-26 18:26:21.969594,599618414540539605,-17.00
2025-06-26 18:26:21.969594,599618414540539605,7.00
2025-06-26 18:26:21.969594,599618414540539605,4.00
2025-06-26 18:26:21.969594,599618414540539605,-26.00
2025-06-26 18:26:21.969594,599618414540539605,-46.00
2025-06-26 18:26:21.969594,599618414540539605,-36.00
2025-06-26 18:26:21.969594,599618414540539605,-24.00
2025-06-26 18:26:21.969594,599618414540539605,-26.00
2025-06-26 18:26:21.969594,599618414540539605,-31.00
2025-06-26 18:26:21.969594,599618414540539605,-29.00
2025-06-26 18:26:21.969594,599618414540539605,-29.00
2025-06-26 18:26:21.969594,599618414540539605,-36.00
2025-06-26 18:26:21.969594,599618414540539605,-58.00
2025-06-26 18:26:21.969594,599618414540539605,-72.00
2025-06-26 18:26:21.969594,599618414540539605,82.00
2025-06-26 18:26:21.969594,599618414540539605,712.00
2025-06-26 18:26:21.969594,599618414540539605,1739.00
2025-06-26 18:26:21.969594,599618414540539605,2421.00
2025-06-26 18:26:21.969594,599618414540539605,2019.00
2025-06-26 18:26:21.969594,599618414540539605,783.00
2025-06-26 18:26:21.969594,599618414540539605,-145.00
2025-06-26 18:26:21.969594,599618414540539605,-238.00
2025-06-26 18:26:21.969594,599618414540539605,-148.00
2025-06-26 18:26:21.969594,599618414540539605,-294.00
2025-06-26 18:26:22.540244,599618415101267164,-350.00
2025-06-26 18:26:22.540244,599618415101267164,-274.00
2025-06-26 18:26:22.540244,599618415101267164,-277.00
2025-06-26 18:26:22.540244,599618415101267164,-294.00
2025-06-26 18:26:22.540244,599618415101267164,-257.00
2025-06-26 18:26:22.540244,599618415101267164,-236.00
2025-06-26 18:26:22.540244,599618415101267164,-233.00
2025-06-26 18:26:22.540244,599618415101267164,-214.00
2025-06-26 18:26:22.540244,599618415101267164,-192.00
2025-06-26 18:26:22.540244,599618415101267164,-180.00
2025-06-26 18:26:22.540244,599618415101267164,-167.00
2025-06-26 18:26:22.540244,599618415101267164,-145.00
2025-06-26 18:26:22.540244,599618415101267164,-126.00
2025-06-26 18:26:22.540244,599618415101267164,-109.00
2025-06-26 18:26:22.540244,599618415101267164,-92.00
2025-06-26 18:26:22.540244,599618415101267164,-72.00
2025-06-26 18:26:22.540244,599618415101267164,-55.00
2025-06-26 18:26:22.540244,599618415101267164,-51.00
2025-06-26 18:26:22.540244,599618415101267164,-46.00
2025-06-26 18:26:22.540244,599618415101267164,-43.00
2025-06-26 18:26:22.540244,599618415101267164,-51.00
2025-06-26 18:26:22.540244,599618415101267164,-65.00
2025-06-26 18:26:22.540244,599618415101267164,-75.00
2025-06-26 18:26:22.540244,599618415101267164,-82.00
2025-06-26 18:26:22.540244,599618415101267164,-97.00
2025-06-26 18:26:22.540244,599618415101267164,-107.00
2025-06-26 18:26:22.540244,599618415101267164,-111.00
2025-06-26 18:26:22.540244,599618415101267164,-119.00
2025-06-26 18:26:22.540244,599618415101267164,-126.00
2025-06-26 18:26:22.540244,599618415101267164,-128.00
2025-06-26 18:26:22.540244,599618415101267164,-126.00
2025-06-26 18:26:22.540244,599618415101267164,-124.00
2025-06-26 18:26:22.540244,599618415101267164,-121.00
2025-06-26 18:26:22.540244,599618415101267164,-114.00
2025-06-26 18:26:22.540244,599618415101267164,-107.00
2025-06-26 18:26:22.540244,599618415101267164,-104.00
2025-06-26 18:26:22.540244,599618415101267164,-102.00
2025-06-26 18:26:22.540244,599618415101267164,-97.00
2025-06-26 18:26:22.540244,599618415101267164,-94.00
2025-06-26 18:26:22.540244,599618415101267164,-90.00
2025-06-26 18:26:22.540244,599618415101267164,-82.00
2025-06-26 18:26:22.540244,599618415101267164,-72.00
2025-06-26 18:26:22.540244,599618415101267164,-70.00
2025-06-26 18:26:22.540244,599618415101267164,-65.00
2025-06-26 18:26:22.540244,599618415101267164,-55.00
2025-06-26 18:26:22.540244,599618415101267164,-48.00
2025-06-26 18:26:22.540244,599618415101267164,-46.00
2025-06-26 18:26:22.540244,599618415101267164,-51.00
2025-06-26 18:26:22.540244,599618415101267164,-55.00
2025-06-26 18:26:22.540244,599618415101267164,-51.00
2025-06-26 18:26:22.540244,599618415101267164,-48.00
2025-06-26 18:26:22.540244,599618415101267164,-48.00
2025-06-26 18:26:22.540244,599618415101267164,-53.00
2025-06-26 18:26:22.540244,599618415101267164,-51.00
2025-06-26 18:26:22.540244,599618415101267164,-48.00
2025-06-26 18:26:22.540244,599618415101267164,-48.00
2025-06-26 18:26:22.540244,599618415101267164,-51.00
2025-06-26 18:26:22.540244,599618415101267164,-51.00
2025-06-26 18:26:22.540244,599618415101267164,-51.00
2025-06-26 18:26:22.540244,599618415101267164,-53.00
2025-06-26 18:26:22.540244,599618415101267164,-51.00
2025-06-26 18:26:22.540244,599618415101267164,-46.00
2025-06-26 18:26:22.540244,599618415101267164,-46.00
2025-06-26 18:26:22.540244,599618415101267164,-46.00
2025-06-26 18:26:22.540244,599618415101267164,-46.00
2025-06-26 18:26:22.540244,599618415101267164,-53.00
2025-06-26 18:26:22.540244,599618415101267164,-68.00
2025-06-26 18:26:22.540244,599618415101267164,-75.00
2025-06-26 18:26:22.540244,599618415101267164,-72.00
2025-06-26 18:26:22.540244,599618415101267164,-58.00
2025-06-26 18:26:22.540244,599618415101267164,-46.00
2025-06-26 18:26:22.540244,599618415101267164,-38.00
2025-06-26 18:26:22.540244,599618415101267164,-14.00
2025-06-26 18:26:23.078763,599618415662009981,7.00
2025-06-26 18:26:23.078763,599618415662009981,-4.00
2025-06-26 18:26:23.078763,599618415662009981,-34.00
2025-06-26 18:26:23.078763,599618415662009981,-43.00
2025-06-26 18:26:23.078763,599618415662009981,-31.00
2025-06-26 18:26:23.078763,599618415662009981,-26.00
2025-06-26 18:26:23.078763,599618415662009981,-31.00
2025-06-26 18:26:23.078763,599618415662009981,-29.00
2025-06-26 18:26:23.078763,599618415662009981,-26.00
2025-06-26 18:26:23.078763,599618415662009981,-31.00
2025-06-26 18:26:23.078763,599618415662009981,-41.00
2025-06-26 18:26:23.078763,599618415662009981,-55.00
2025-06-26 18:26:23.078763,599618415662009981,-58.00
2025-06-26 18:26:23.078763,599618415662009981,160.00
2025-06-26 18:26:23.078763,599618415662009981,885.00
2025-06-26 18:26:23.078763,599618415662009981,1902.00
2025-06-26 18:26:23.078763,599618415662009981,2411.00
2025-06-26 18:26:23.078763,599618415662009981,1817.00
2025-06-26 18:26:23.078763,599618415662009981,557.00
2025-06-26 18:26:23.078763,599618415662009981,-218.00
2025-06-26 18:26:23.078763,599618415662009981,-204.00
2025-06-26 18:26:23.078763,599618415662009981,-148.00
2025-06-26 18:26:23.078763,599618415662009981,-306.00
2025-06-26 18:26:23.078763,599618415662009981,-323.00
2025-06-26 18:26:23.078763,599618415662009981,-253.00
2025-06-26 18:26:23.078763,599618415662009981,-272.00
2025-06-26 18:26:23.078763,599618415662009981,-279.00
2025-06-26 18:26:23.078763,599618415662009981,-243.00
2025-06-26 18:26:23.078763,599618415662009981,-228.00
2025-06-26 18:26:23.078763,599618415662009981,-221.00
2025-06-26 18:26:23.078763,599618415662009981,-199.00
2025-06-26 18:26:23.078763,599618415662009981,-184.00
2025-06-26 18:26:23.078763,599618415662009981,-172.00
2025-06-26 18:26:23.078763,599618415662009981,-155.00
2025-06-26 18:26:23.078763,599618415662009981,-138.00
2025-06-26 18:26:23.078763,599618415662009981,-116.00
2025-06-26 18:26:23.078763,599618415662009981,-94.00
2025-06-26 18:26:23.078763,599618415662009981,-82.00
2025-06-26 18:26:23.078763,599618415662009981,-68.00
2025-06-26 18:26:23.078763,599618415662009981,-53.00
2025-06-26 18:26:23.078763,599618415662009981,-46.00
2025-06-26 18:26:23.078763,599618415662009981,-48.00
2025-06-26 18:26:23.078763,599618415662009981,-58.00
2025-06-26 18:26:23.078763,599618415662009981,-65.00
2025-06-26 18:26:23.078763,599618415662009981,-75.00
2025-06-26 18:26:23.078763,599618415662009981,-87.00
2025-06-26 18:26:23.078763,599618415662009981,-102.00
2025-06-26 18:26:23.078763,599618415662009981,-114.00
2025-06-26 18:26:23.078763,599618415662009981,-124.00
2025-06-26 18:26:23.078763,599618415662009981,-131.00
2025-06-26 18:26:23.078763,599618415662009981,-136.00
2025-06-26 18:26:23.078763,599618415662009981,-138.00
2025-06-26 18:26:23.078763,599618415662009981,-143.00
2025-06-26 18:26:23.078763,599618415662009981,-141.00
2025-06-26 18:26:23.078763,599618415662009981,-138.00
2025-06-26 18:26:23.078763,599618415662009981,-133.00
2025-06-26 18:26:23.078763,599618415662009981,-136.00
2025-06-26 18:26:23.078763,599618415662009981,-136.00
2025-06-26 18:26:23.078763,599618415662009981,-128.00
2025-06-26 18:26:23.078763,599618415662009981,-121.00
2025-06-26 18:26:23.078763,599618415662009981,-116.00
2025-06-26 18:26:23.078763,599618415662009981,-109.00
2025-06-26 18:26:23.078763,599618415662009981,-102.00
2025-06-26 18:26:23.078763,599618415662009981,-94.00
2025-06-26 18:26:23.078763,599618415662009981,-90.00
2025-06-26 18:26:23.078763,599618415662009981,-82.00
2025-06-26 18:26:23.078763,599618415662009981,-75.00
2025-06-26 18:26:23.078763,599618415662009981,-72.00
2025-06-26 18:26:23.078763,599618415662009981,-68.00
2025-06-26 18:26:23.078763,599618415662009981,-63.00
2025-06-26 18:26:23.078763,599618415662009981,-60.00
2025-06-26 18:26:23.078763,599618415662009981,-63.00
2025-06-26 18:26:23.078763,599618415662009981,-68.00
2025-06-26 18:26:23.618932,599618416222752800,-68.00
2025-06-26 18:26:23.618932,599618416222752800,-70.00
2025-06-26 18:26:23.618932,599618416222752800,-75.00
2025-06-26 18:26:23.618932,599618416222752800,-72.00
2025-06-26 18:26:23.618932,599618416222752800,-68.00
2025-06-26 18:26:23.618932,599618416222752800,-68.00
2025-06-26 18:26:23.618932,599618416222752800,-68.00
2025-06-26 18:26:23.618932,599618416222752800,-65.00
2025-06-26 18:26:23.618932,599618416222752800,-65.00
2025-06-26 18:26:23.618932,599618416222752800,-65.00
2025-06-26 18:26:23.618932,599618416222752800,-58.00
2025-06-26 18:26:23.618932,599618416222752800,-60.00
2025-06-26 18:26:23.618932,599618416222752800,-63.00
2025-06-26 18:26:23.618932,599618416222752800,-60.00
2025-06-26 18:26:23.618932,599618416222752800,-60.00
2025-06-26 18:26:23.618932,599618416222752800,-65.00
2025-06-26 18:26:23.618932,599618416222752800,-68.00
2025-06-26 18:26:23.618932,599618416222752800,-72.00
2025-06-26 18:26:23.618932,599618416222752800,-82.00
2025-06-26 18:26:23.618932,599618416222752800,-85.00
2025-06-26 18:26:23.618932,599618416222752800,-68.00
2025-06-26 18:26:23.618932,599618416222752800,-51.00
2025-06-26 18:26:23.618932,599618416222752800,-41.00
2025-06-26 18:26:23.618932,599618416222752800,-19.00
2025-06-26 18:26:23.618932,599618416222752800,-2.00
2025-06-26 18:26:23.618932,599618416222752800,-17.00
2025-06-26 18:26:23.618932,599618416222752800,-46.00
2025-06-26 18:26:23.618932,599618416222752800,-53.00
2025-06-26 18:26:23.618932,599618416222752800,-38.00
2025-06-26 18:26:23.618932,599618416222752800,-36.00
2025-06-26 18:26:23.618932,599618416222752800,-43.00
2025-06-26 18:26:23.618932,599618416222752800,-43.00
2025-06-26 18:26:23.618932,599618416222752800,-41.00
2025-06-26 18:26:23.618932,599618416222752800,-43.00
2025-06-26 18:26:23.618932,599618416222752800,-55.00
2025-06-26 18:26:23.618932,599618416222752800,-75.00
2025-06-26 18:26:23.618932,599618416222752800,-48.00
2025-06-26 18:26:23.618932,599618416222752800,226.00
2025-06-26 18:26:23.618932,599618416222752800,970.00
2025-06-26 18:26:23.618932,599618416222752800,1917.00
2025-06-26 18:26:23.618932,599618416222752800,2279.00
2025-06-26 18:26:23.618932,599618416222752800,1593.00
2025-06-26 18:26:23.618932,599618416222752800,403.00
2025-06-26 18:26:23.618932,599618416222752800,-253.00
2025-06-26 18:26:23.618932,599618416222752800,-187.00
2025-06-26 18:26:23.618932,599618416222752800,-138.00
2025-06-26 18:26:23.618932,599618416222752800,-301.00
2025-06-26 18:26:23.618932,599618416222752800,-316.00
2025-06-26 18:26:23.618932,599618416222752800,-248.00
2025-06-26 18:26:23.618932,599618416222752800,-272.00
2025-06-26 18:26:23.618932,599618416222752800,-277.00
2025-06-26 18:26:23.618932,599618416222752800,-236.00
2025-06-26 18:26:23.618932,599618416222752800,-218.00
2025-06-26 18:26:23.618932,599618416222752800,-216.00
2025-06-26 18:26:23.618932,599618416222752800,-201.00
2025-06-26 18:26:23.618932,599618416222752800,-182.00
2025-06-26 18:26:23.618932,599618416222752800,-165.00
2025-06-26 18:26:23.618932,599618416222752800,-150.00
2025-06-26 18:26:23.618932,599618416222752800,-131.00
2025-06-26 18:26:23.618932,599618416222752800,-111.00
2025-06-26 18:26:23.618932,599618416222752800,-92.00
2025-06-26 18:26:23.618932,599618416222752800,-72.00
2025-06-26 18:26:23.618932,599618416222752800,-55.00
2025-06-26 18:26:23.618932,599618416222752800,-51.00
2025-06-26 18:26:23.618932,599618416222752800,-51.00
2025-06-26 18:26:23.618932,599618416222752800,-51.00
2025-06-26 18:26:23.618932,599618416222752800,-55.00
2025-06-26 18:26:23.618932,599618416222752800,-70.00
2025-06-26 18:26:23.618932,599618416222752800,-90.00
2025-06-26 18:26:23.618932,599618416222752800,-102.00
2025-06-26 18:26:23.618932,599618416222752800,-109.00
2025-06-26 18:26:23.618932,599618416222752800,-124.00
2025-06-26 18:26:23.618932,599618416222752800,-138.00
2025-06-26 18:26:24.255736,599618416783480359,-141.00
2025-06-26 18:26:24.255736,599618416783480359,-141.00
2025-06-26 18:26:24.255736,599618416783480359,-143.00
2025-06-26 18:26:24.255736,599618416783480359,-141.00
2025-06-26 18:26:24.255736,599618416783480359,-141.00
2025-06-26 18:26:24.255736,599618416783480359,-143.00
2025-06-26 18:26:24.255736,599618416783480359,-141.00
2025-06-26 18:26:24.255736,599618416783480359,-136.00
2025-06-26 18:26:24.255736,599618416783480359,-136.00
2025-06-26 18:26:24.255736,599618416783480359,-131.00
2025-06-26 18:26:24.255736,599618416783480359,-124.00
2025-06-26 18:26:24.255736,599618416783480359,-114.00
2025-06-26 18:26:24.255736,599618416783480359,-104.00
2025-06-26 18:26:24.255736,599618416783480359,-99.00
2025-06-26 18:26:24.255736,599618416783480359,-92.00
2025-06-26 18:26:24.255736,599618416783480359,-80.00
2025-06-26 18:26:24.255736,599618416783480359,-70.00
2025-06-26 18:26:24.255736,599618416783480359,-70.00
2025-06-26 18:26:24.255736,599618416783480359,-68.00
2025-06-26 18:26:24.255736,599618416783480359,-60.00
2025-06-26 18:26:24.255736,599618416783480359,-55.00
2025-06-26 18:26:24.255736,599618416783480359,-55.00
2025-06-26 18:26:24.255736,599618416783480359,-63.00
2025-06-26 18:26:24.255736,599618416783480359,-65.00
2025-06-26 18:26:24.255736,599618416783480359,-63.00
2025-06-26 18:26:24.255736,599618416783480359,-63.00
2025-06-26 18:26:24.255736,599618416783480359,-63.00
2025-06-26 18:26:24.255736,599618416783480359,-63.00
2025-06-26 18:26:24.255736,599618416783480359,-68.00
2025-06-26 18:26:24.255736,599618416783480359,-68.00
2025-06-26 18:26:24.255736,599618416783480359,-68.00
2025-06-26 18:26:24.255736,599618416783480359,-65.00
2025-06-26 18:26:24.255736,599618416783480359,-63.00
2025-06-26 18:26:24.255736,599618416783480359,-65.00
2025-06-26 18:26:24.255736,599618416783480359,-65.00
2025-06-26 18:26:24.255736,599618416783480359,-68.00
2025-06-26 18:26:24.255736,599618416783480359,-68.00
2025-06-26 18:26:24.255736,599618416783480359,-63.00
2025-06-26 18:26:24.255736,599618416783480359,-63.00
2025-06-26 18:26:24.255736,599618416783480359,-70.00
2025-06-26 18:26:24.255736,599618416783480359,-75.00
2025-06-26 18:26:24.255736,599618416783480359,-80.00
2025-06-26 18:26:24.255736,599618416783480359,-87.00
2025-06-26 18:26:24.255736,599618416783480359,-75.00
2025-06-26 18:26:24.255736,599618416783480359,-60.00
2025-06-26 18:26:24.255736,599618416783480359,-53.00
2025-06-26 18:26:24.255736,599618416783480359,-34.00
2025-06-26 18:26:24.255736,599618416783480359,-2.00
2025-06-26 18:26:24.255736,599618416783480359,-2.00
2025-06-26 18:26:24.255736,599618416783480359,-34.00
2025-06-26 18:26:24.255736,599618416783480359,-46.00
2025-06-26 18:26:24.255736,599618416783480359,-41.00
2025-06-26 18:26:24.255736,599618416783480359,-36.00
2025-06-26 18:26:24.255736,599618416783480359,-38.00
2025-06-26 18:26:24.255736,599618416783480359,-38.00
2025-06-26 18:26:24.255736,599618416783480359,-31.00
2025-06-26 18:26:24.255736,599618416783480359,-31.00
2025-06-26 18:26:24.255736,599618416783480359,-43.00
2025-06-26 18:26:24.255736,599618416783480359,-55.00
2025-06-26 18:26:24.255736,599618416783480359,-65.00
2025-06-26 18:26:24.255736,599618416783480359,38.00
2025-06-26 18:26:24.255736,599618416783480359,537.00
2025-06-26 18:26:24.255736,599618416783480359,1479.00
2025-06-26 18:26:24.255736,599618416783480359,2258.00
2025-06-26 18:26:24.255736,599618416783480359,2092.00
2025-06-26 18:26:24.255736,599618416783480359,1024.00
2025-06-26 18:26:24.255736,599618416783480359,-4.00
2025-06-26 18:26:24.255736,599618416783480359,-265.00
2025-06-26 18:26:24.255736,599618416783480359,-136.00
2025-06-26 18:26:24.255736,599618416783480359,-223.00
2025-06-26 18:26:24.255736,599618416783480359,-333.00
2025-06-26 18:26:24.255736,599618416783480359,-272.00
2025-06-26 18:26:24.255736,599618416783480359,-253.00
2025-06-26 18:26:24.731235,599618417344238434,-284.00
2025-06-26 18:26:24.731235,599618417344238434,-262.00
2025-06-26 18:26:24.731235,599618417344238434,-233.00
2025-06-26 18:26:24.731235,599618417344238434,-226.00
2025-06-26 18:26:24.731235,599618417344238434,-214.00
2025-06-26 18:26:24.731235,599618417344238434,-197.00
2025-06-26 18:26:24.731235,599618417344238434,-182.00
2025-06-26 18:26:24.731235,599618417344238434,-165.00
2025-06-26 18:26:24.731235,599618417344238434,-148.00
2025-06-26 18:26:24.731235,599618417344238434,-133.00
2025-06-26 18:26:24.731235,599618417344238434,-114.00
2025-06-26 18:26:24.731235,599618417344238434,-97.00
2025-06-26 18:26:24.731235,599618417344238434,-85.00
2025-06-26 18:26:24.731235,599618417344238434,-72.00
