Timestamp,Device Timestamp (ns),ECG Value (uV)
2025-12-25 12:54:47.549617,599617995475074486,212.00
2025-12-25 12:54:47.549617,599617995475074486,110.00
2025-12-25 12:54:47.549617,599617995475074486,106.00
2025-12-25 12:54:47.549617,599617995475074486,212.00
2025-12-25 12:54:47.549617,599617995475074486,129.00
2025-12-25 12:54:47.549617,599617995475074486,-14.00
2025-12-25 12:54:47.549617,599617995475074486,37.00
2025-12-25 12:54:47.549617,599617995475074486,18.00
2025-12-25 12:54:47.549617,599617995475074486,-235.00
2025-12-25 12:54:47.549617,599617995475074486,-374.00
2025-12-25 12:54:47.549617,599617995475074486,-186.00
2025-12-25 12:54:47.549617,599617995475074486,-32.00
2025-12-25 12:54:47.549617,599617995475074486,-176.00
2025-12-25 12:54:47.549617,599617995475074486,-325.00
2025-12-25 12:54:47.549617,599617995475074486,-303.00
2025-12-25 12:54:47.549617,599617995475074486,-287.00
2025-12-25 12:54:47.549617,599617995475074486,-214.00
2025-12-25 12:54:47.549617,599617995475074486,-51.00
2025-12-25 12:54:47.549617,599617995475074486,-44.00
2025-12-25 12:54:47.549617,599617995475074486,-129.00
2025-12-25 12:54:47.549617,599617995475074486,-160.00
2025-12-25 12:54:47.549617,599617995475074486,-202.00
2025-12-25 12:54:47.549617,599617995475074486,-186.00
2025-12-25 12:54:47.549617,599617995475074486,-148.00
2025-12-25 12:54:47.549617,599617995475074486,-200.00
2025-12-25 12:54:47.549617,599617995475074486,-164.00
2025-12-25 12:54:47.549617,599617995475074486,-63.00
2025-12-25 12:54:47.549617,599617995475074486,-115.00
2025-12-25 12:54:47.549617,599617995475074486,-164.00
2025-12-25 12:54:47.549617,599617995475074486,-122.00
2025-12-25 12:54:47.549617,599617995475074486,-127.00
2025-12-25 12:54:47.549617,599617995475074486,-129.00
2025-12-25 12:54:47.549617,599617995475074486,-129.00
2025-12-25 12:54:47.549617,599617995475074486,-150.00
2025-12-25 12:54:47.549617,599617995475074486,-113.00
2025-12-25 12:54:47.549617,599617995475074486,-73.00
2025-12-25 12:54:47.549617,599617995475074486,-139.00
2025-12-25 12:54:47.549617,599617995475074486,-190.00
2025-12-25 12:54:47.549617,599617995475074486,-89.00
2025-12-25 12:54:47.549617,599617995475074486,-47.00
2025-12-25 12:54:47.549617,599617995475074486,-160.00
2025-12-25 12:54:47.549617,599617995475074486,-141.00
2025-12-25 12:54:47.549617,599617995475074486,-73.00
2025-12-25 12:54:47.549617,599617995475074486,-117.00
2025-12-25 12:54:47.549617,599617995475074486,-94.00
2025-12-25 12:54:47.549617,599617995475074486,-84.00
2025-12-25 12:54:47.549617,599617995475074486,-157.00
2025-12-25 12:54:47.549617,599617995475074486,-68.00
2025-12-25 12:54:47.549617,599617995475074486,35.00
2025-12-25 12:54:47.549617,599617995475074486,-70.00
2025-12-25 12:54:47.549617,599617995475074486,-122.00
2025-12-25 12:54:47.549617,599617995475074486,-75.00
2025-12-25 12:54:47.549617,599617995475074486,-110.00
2025-12-25 12:54:47.549617,599617995475074486,-110.00
2025-12-25 12:54:47.549617,599617995475074486,-35.00
2025-12-25 12:54:47.549617,599617995475074486,-40.00
2025-12-25 12:54:47.549617,599617995475074486,-160.00
2025-12-25 12:54:47.549617,599617995475074486,-216.00
2025-12-25 12:54:47.549617,599617995475074486,139.00
2025-12-25 12:54:47.549617,599617995475074486,980.00
2025-12-25 12:54:47.549617,599617995475074486,1646.00
2025-12-25 12:54:47.549617,599617995475074486,1222.00
2025-12-25 12:54:47.549617,599617995475074486,-63.00
2025-12-25 12:54:47.549617,599617995475074486,-631.00
2025-12-25 12:54:47.549617,599617995475074486,-141.00
2025-12-25 12:54:47.549617,599617995475074486,40.00
2025-12-25 12:54:47.549617,599617995475074486,-197.00
2025-12-25 12:54:47.549617,599617995475074486,-122.00
2025-12-25 12:54:47.549617,599617995475074486,-25.00
2025-12-25 12:54:47.549617,599617995475074486,-148.00
2025-12-25 12:54:47.549617,599617995475074486,-153.00
2025-12-25 12:54:47.549617,599617995475074486,-49.00
2025-12-25 12:54:47.549617,599617995475074486,-35.00
2025-12-25 12:54:47.786159,599617996035924117,-63.00
2025-12-25 12:54:47.786159,599617996035924117,-40.00
2025-12-25 12:54:47.786159,599617996035924117,0.00
2025-12-25 12:54:47.786159,599617996035924117,21.00
2025-12-25 12:54:47.786159,599617996035924117,14.00
2025-12-25 12:54:47.786159,599617996035924117,11.00
2025-12-25 12:54:47.786159,599617996035924117,25.00
2025-12-25 12:54:47.786159,599617996035924117,61.00
2025-12-25 12:54:47.786159,599617996035924117,106.00
2025-12-25 12:54:47.786159,599617996035924117,98.00
2025-12-25 12:54:47.786159,599617996035924117,139.00
2025-12-25 12:54:47.786159,599617996035924117,200.00
2025-12-25 12:54:47.786159,599617996035924117,160.00
2025-12-25 12:54:47.786159,599617996035924117,195.00
2025-12-25 12:54:47.786159,599617996035924117,263.00
2025-12-25 12:54:47.786159,599617996035924117,223.00
2025-12-25 12:54:47.786159,599617996035924117,214.00
2025-12-25 12:54:47.786159,599617996035924117,169.00
2025-12-25 12:54:47.786159,599617996035924117,23.00
2025-12-25 12:54:47.786159,599617996035924117,-23.00
2025-12-25 12:54:47.786159,599617996035924117,-23.00
2025-12-25 12:54:47.786159,599617996035924117,-113.00
2025-12-25 12:54:47.786159,599617996035924117,-153.00
2025-12-25 12:54:47.786159,599617996035924117,-164.00
2025-12-25 12:54:47.786159,599617996035924117,-242.00
2025-12-25 12:54:47.786159,599617996035924117,-240.00
2025-12-25 12:54:47.786159,599617996035924117,-204.00
2025-12-25 12:54:47.786159,599617996035924117,-216.00
2025-12-25 12:54:47.786159,599617996035924117,-160.00
2025-12-25 12:54:47.786159,599617996035924117,-160.00
2025-12-25 12:54:47.786159,599617996035924117,-237.00
2025-12-25 12:54:47.786159,599617996035924117,-209.00
2025-12-25 12:54:47.786159,599617996035924117,-183.00
2025-12-25 12:54:47.786159,599617996035924117,-207.00
2025-12-25 12:54:47.786159,599617996035924117,-150.00
2025-12-25 12:54:47.786159,599617996035924117,-124.00
2025-12-25 12:54:47.786159,599617996035924117,-174.00
2025-12-25 12:54:47.786159,599617996035924117,-157.00
2025-12-25 12:54:47.786159,599617996035924117,-124.00
2025-12-25 12:54:47.786159,599617996035924117,-134.00
2025-12-25 12:54:47.786159,599617996035924117,-117.00
2025-12-25 12:54:47.786159,599617996035924117,-110.00
2025-12-25 12:54:47.786159,599617996035924117,-162.00
2025-12-25 12:54:47.786159,599617996035924117,-167.00
2025-12-25 12:54:47.786159,599617996035924117,-120.00
2025-12-25 12:54:47.786159,599617996035924117,-94.00
2025-12-25 12:54:47.786159,599617996035924117,-84.00
2025-12-25 12:54:47.786159,599617996035924117,-155.00
2025-12-25 12:54:47.786159,599617996035924117,-204.00
2025-12-25 12:54:47.786159,599617996035924117,-70.00
2025-12-25 12:54:47.786159,599617996035924117,-9.00
2025-12-25 12:54:47.786159,599617996035924117,-139.00
2025-12-25 12:54:47.786159,599617996035924117,-202.00
2025-12-25 12:54:47.786159,599617996035924117,-106.00
2025-12-25 12:54:47.786159,599617996035924117,-14.00
2025-12-25 12:54:47.786159,599617996035924117,-44.00
2025-12-25 12:54:47.786159,599617996035924117,-82.00
2025-12-25 12:54:47.786159,599617996035924117,-77.00
2025-12-25 12:54:47.786159,599617996035924117,-117.00
2025-12-25 12:54:47.786159,599617996035924117,-134.00
2025-12-25 12:54:47.786159,599617996035924117,-89.00
2025-12-25 12:54:47.786159,599617996035924117,-61.00
2025-12-25 12:54:47.786159,599617996035924117,-28.00
2025-12-25 12:54:47.786159,599617996035924117,-11.00
2025-12-25 12:54:47.786159,599617996035924117,-91.00
2025-12-25 12:54:47.786159,599617996035924117,-106.00
2025-12-25 12:54:47.786159,599617996035924117,-25.00
2025-12-25 12:54:47.786159,599617996035924117,-42.00
2025-12-25 12:54:47.786159,599617996035924117,-80.00
2025-12-25 12:54:47.786159,599617996035924117,-37.00
2025-12-25 12:54:47.786159,599617996035924117,-25.00
2025-12-25 12:54:47.786159,599617996035924117,-58.00
2025-12-25 12:54:47.786159,599617996035924117,-113.00
2025-12-25 12:54:48.304749,599617996596773748,-129.00
2025-12-25 12:54:48.304749,599617996596773748,268.00
2025-12-25 12:54:48.304749,599617996596773748,1090.00
2025-12-25 12:54:48.304749,599617996596773748,1467.00
2025-12-25 12:54:48.304749,599617996596773748,803.00
2025-12-25 12:54:48.304749,599617996596773748,-237.00
2025-12-25 12:54:48.304749,599617996596773748,-534.00
2025-12-25 12:54:48.304749,599617996596773748,-127.00
2025-12-25 12:54:48.304749,599617996596773748,47.00
2025-12-25 12:54:48.304749,599617996596773748,-110.00
2025-12-25 12:54:48.304749,599617996596773748,-106.00
2025-12-25 12:54:48.304749,599617996596773748,-14.00
2025-12-25 12:54:48.304749,599617996596773748,-80.00
2025-12-25 12:54:48.304749,599617996596773748,-122.00
2025-12-25 12:54:48.304749,599617996596773748,-65.00
2025-12-25 12:54:48.304749,599617996596773748,-44.00
2025-12-25 12:54:48.304749,599617996596773748,-23.00
2025-12-25 12:54:48.304749,599617996596773748,23.00
2025-12-25 12:54:48.304749,599617996596773748,25.00
2025-12-25 12:54:48.304749,599617996596773748,11.00
2025-12-25 12:54:48.304749,599617996596773748,4.00
2025-12-25 12:54:48.304749,599617996596773748,35.00
2025-12-25 12:54:48.304749,599617996596773748,65.00
2025-12-25 12:54:48.304749,599617996596773748,49.00
2025-12-25 12:54:48.304749,599617996596773748,120.00
2025-12-25 12:54:48.304749,599617996596773748,188.00
2025-12-25 12:54:48.304749,599617996596773748,108.00
2025-12-25 12:54:48.304749,599617996596773748,122.00
2025-12-25 12:54:48.304749,599617996596773748,207.00
2025-12-25 12:54:48.304749,599617996596773748,181.00
2025-12-25 12:54:48.304749,599617996596773748,183.00
2025-12-25 12:54:48.304749,599617996596773748,219.00
2025-12-25 12:54:48.304749,599617996596773748,200.00
2025-12-25 12:54:48.304749,599617996596773748,148.00
2025-12-25 12:54:48.304749,599617996596773748,73.00
2025-12-25 12:54:48.304749,599617996596773748,-4.00
2025-12-25 12:54:48.304749,599617996596773748,-65.00
2025-12-25 12:54:48.304749,599617996596773748,-136.00
2025-12-25 12:54:48.304749,599617996596773748,-188.00
2025-12-25 12:54:48.304749,599617996596773748,-183.00
2025-12-25 12:54:48.304749,599617996596773748,-153.00
2025-12-25 12:54:48.304749,599617996596773748,-129.00
2025-12-25 12:54:48.304749,599617996596773748,-174.00
2025-12-25 12:54:48.304749,599617996596773748,-259.00
2025-12-25 12:54:48.304749,599617996596773748,-235.00
2025-12-25 12:54:48.304749,599617996596773748,-134.00
2025-12-25 12:54:48.304749,599617996596773748,-141.00
2025-12-25 12:54:48.304749,599617996596773748,-200.00
2025-12-25 12:54:48.304749,599617996596773748,-143.00
2025-12-25 12:54:48.304749,599617996596773748,-98.00
2025-12-25 12:54:48.304749,599617996596773748,-181.00
2025-12-25 12:54:48.304749,599617996596773748,-171.00
2025-12-25 12:54:48.304749,599617996596773748,-44.00
2025-12-25 12:54:48.304749,599617996596773748,-75.00
2025-12-25 12:54:48.304749,599617996596773748,-195.00
2025-12-25 12:54:48.304749,599617996596773748,-181.00
2025-12-25 12:54:48.304749,599617996596773748,-120.00
2025-12-25 12:54:48.304749,599617996596773748,-108.00
2025-12-25 12:54:48.304749,599617996596773748,-101.00
2025-12-25 12:54:48.304749,599617996596773748,-80.00
2025-12-25 12:54:48.304749,599617996596773748,-70.00
2025-12-25 12:54:48.304749,599617996596773748,-63.00
2025-12-25 12:54:48.304749,599617996596773748,-42.00
2025-12-25 12:54:48.304749,599617996596773748,-91.00
2025-12-25 12:54:48.304749,599617996596773748,-167.00
2025-12-25 12:54:48.304749,599617996596773748,-120.00
2025-12-25 12:54:48.304749,599617996596773748,-61.00
2025-12-25 12:54:48.304749,599617996596773748,-68.00
2025-12-25 12:54:48.304749,599617996596773748,-56.00
2025-12-25 12:54:48.304749,599617996596773748,-65.00
2025-12-25 12:54:48.304749,599617996596773748,-87.00
2025-12-25 12:54:48.304749,599617996596773748,-87.00
2025-12-25 12:54:48.304749,599617996596773748,-84.00
2025-12-25 12:54:48.833155,599617997157618291,-56.00
2025-12-25 12:54:48.833155,599617997157618291,-63.00
2025-12-25 12:54:48.833155,599617997157618291,-77.00
2025-12-25 12:54:48.833155,599617997157618291,-18.00
2025-12-25 12:54:48.833155,599617997157618291,-37.00
2025-12-25 12:54:48.833155,599617997157618291,-94.00
2025-12-25 12:54:48.833155,599617997157618291,-30.00
2025-12-25 12:54:48.833155,599617997157618291,18.00
2025-12-25 12:54:48.833155,599617997157618291,-58.00
2025-12-25 12:54:48.833155,599617997157618291,-94.00
2025-12-25 12:54:48.833155,599617997157618291,-14.00
2025-12-25 12:54:48.833155,599617997157618291,-58.00
2025-12-25 12:54:48.833155,599617997157618291,-204.00
2025-12-25 12:54:48.833155,599617997157618291,-56.00
2025-12-25 12:54:48.833155,599617997157618291,504.00
2025-12-25 12:54:48.833155,599617997157618291,1208.00
2025-12-25 12:54:48.833155,599617997157618291,1331.00
2025-12-25 12:54:48.833155,599617997157618291,426.00
2025-12-25 12:54:48.833155,599617997157618291,-518.00
2025-12-25 12:54:48.833155,599617997157618291,-447.00
2025-12-25 12:54:48.833155,599617997157618291,-4.00
2025-12-25 12:54:48.833155,599617997157618291,-11.00
2025-12-25 12:54:48.833155,599617997157618291,-89.00
2025-12-25 12:54:48.833155,599617997157618291,14.00
2025-12-25 12:54:48.833155,599617997157618291,-35.00
2025-12-25 12:54:48.833155,599617997157618291,-160.00
2025-12-25 12:54:48.833155,599617997157618291,-117.00
2025-12-25 12:54:48.833155,599617997157618291,-28.00
2025-12-25 12:54:48.833155,599617997157618291,9.00
2025-12-25 12:54:48.833155,599617997157618291,21.00
2025-12-25 12:54:48.833155,599617997157618291,28.00
2025-12-25 12:54:48.833155,599617997157618291,54.00
2025-12-25 12:54:48.833155,599617997157618291,44.00
2025-12-25 12:54:48.833155,599617997157618291,-18.00
2025-12-25 12:54:48.833155,599617997157618291,-4.00
2025-12-25 12:54:48.833155,599617997157618291,47.00
2025-12-25 12:54:48.833155,599617997157618291,42.00
2025-12-25 12:54:48.833155,599617997157618291,82.00
2025-12-25 12:54:48.833155,599617997157618291,153.00
2025-12-25 12:54:48.833155,599617997157618291,153.00
2025-12-25 12:54:48.833155,599617997157618291,150.00
2025-12-25 12:54:48.833155,599617997157618291,212.00
2025-12-25 12:54:48.833155,599617997157618291,235.00
2025-12-25 12:54:48.833155,599617997157618291,150.00
2025-12-25 12:54:48.833155,599617997157618291,75.00
2025-12-25 12:54:48.833155,599617997157618291,89.00
2025-12-25 12:54:48.833155,599617997157618291,73.00
2025-12-25 12:54:48.833155,599617997157618291,4.00
2025-12-25 12:54:48.833155,599617997157618291,-42.00
2025-12-25 12:54:48.833155,599617997157618291,-122.00
2025-12-25 12:54:48.833155,599617997157618291,-207.00
2025-12-25 12:54:48.833155,599617997157618291,-197.00
2025-12-25 12:54:48.833155,599617997157618291,-181.00
2025-12-25 12:54:48.833155,599617997157618291,-240.00
2025-12-25 12:54:48.833155,599617997157618291,-247.00
2025-12-25 12:54:48.833155,599617997157618291,-193.00
2025-12-25 12:54:48.833155,599617997157618291,-141.00
2025-12-25 12:54:48.833155,599617997157618291,-103.00
2025-12-25 12:54:48.833155,599617997157618291,-181.00
2025-12-25 12:54:48.833155,599617997157618291,-285.00
2025-12-25 12:54:48.833155,599617997157618291,-261.00
2025-12-25 12:54:48.833155,599617997157618291,-204.00
2025-12-25 12:54:48.833155,599617997157618291,-157.00
2025-12-25 12:54:48.833155,599617997157618291,-129.00
2025-12-25 12:54:48.833155,599617997157618291,-153.00
2025-12-25 12:54:48.833155,599617997157618291,-162.00
2025-12-25 12:54:48.833155,599617997157618291,-141.00
2025-12-25 12:54:48.833155,599617997157618291,-134.00
2025-12-25 12:54:48.833155,599617997157618291,-141.00
2025-12-25 12:54:48.833155,599617997157618291,-150.00
2025-12-25 12:54:48.833155,599617997157618291,-160.00
2025-12-25 12:54:48.833155,599617997157618291,-162.00
2025-12-25 12:54:48.833155,599617997157618291,-129.00
2025-12-25 12:54:49.423744,599617997718473008,-101.00
2025-12-25 12:54:49.423744,599617997718473008,-101.00
2025-12-25 12:54:49.423744,599617997718473008,-124.00
2025-12-25 12:54:49.423744,599617997718473008,-136.00
2025-12-25 12:54:49.423744,599617997718473008,-94.00
2025-12-25 12:54:49.423744,599617997718473008,-47.00
2025-12-25 12:54:49.423744,599617997718473008,-91.00
2025-12-25 12:54:49.423744,599617997718473008,-183.00
2025-12-25 12:54:49.423744,599617997718473008,-179.00
2025-12-25 12:54:49.423744,599617997718473008,-120.00
2025-12-25 12:54:49.423744,599617997718473008,-101.00
2025-12-25 12:54:49.423744,599617997718473008,-98.00
2025-12-25 12:54:49.423744,599617997718473008,-89.00
2025-12-25 12:54:49.423744,599617997718473008,-68.00
2025-12-25 12:54:49.423744,599617997718473008,-51.00
2025-12-25 12:54:49.423744,599617997718473008,-75.00
2025-12-25 12:54:49.423744,599617997718473008,-108.00
2025-12-25 12:54:49.423744,599617997718473008,-108.00
2025-12-25 12:54:49.423744,599617997718473008,-94.00
2025-12-25 12:54:49.423744,599617997718473008,-87.00
2025-12-25 12:54:49.423744,599617997718473008,-87.00
2025-12-25 12:54:49.423744,599617997718473008,-91.00
2025-12-25 12:54:49.423744,599617997718473008,-103.00
2025-12-25 12:54:49.423744,599617997718473008,-153.00
2025-12-25 12:54:49.423744,599617997718473008,-160.00
2025-12-25 12:54:49.423744,599617997718473008,221.00
2025-12-25 12:54:49.423744,599617997718473008,968.00
2025-12-25 12:54:49.423744,599617997718473008,1307.00
2025-12-25 12:54:49.423744,599617997718473008,669.00
2025-12-25 12:54:49.423744,599617997718473008,-358.00
2025-12-25 12:54:49.423744,599617997718473008,-598.00
2025-12-25 12:54:49.423744,599617997718473008,-134.00
2025-12-25 12:54:49.423744,599617997718473008,7.00
2025-12-25 12:54:49.423744,599617997718473008,-155.00
2025-12-25 12:54:49.423744,599617997718473008,-141.00
2025-12-25 12:54:49.423744,599617997718473008,-101.00
2025-12-25 12:54:49.423744,599617997718473008,-136.00
2025-12-25 12:54:49.423744,599617997718473008,-124.00
2025-12-25 12:54:49.423744,599617997718473008,-106.00
2025-12-25 12:54:49.423744,599617997718473008,-108.00
2025-12-25 12:54:49.423744,599617997718473008,-35.00
2025-12-25 12:54:49.423744,599617997718473008,7.00
2025-12-25 12:54:49.423744,599617997718473008,-51.00
2025-12-25 12:54:49.423744,599617997718473008,-35.00
2025-12-25 12:54:49.423744,599617997718473008,35.00
2025-12-25 12:54:49.423744,599617997718473008,0.00
2025-12-25 12:54:49.423744,599617997718473008,-40.00
2025-12-25 12:54:49.423744,599617997718473008,21.00
2025-12-25 12:54:49.423744,599617997718473008,70.00
2025-12-25 12:54:49.423744,599617997718473008,49.00
2025-12-25 12:54:49.423744,599617997718473008,49.00
2025-12-25 12:54:49.423744,599617997718473008,98.00
2025-12-25 12:54:49.423744,599617997718473008,134.00
2025-12-25 12:54:49.423744,599617997718473008,124.00
2025-12-25 12:54:49.423744,599617997718473008,131.00
2025-12-25 12:54:49.423744,599617997718473008,162.00
2025-12-25 12:54:49.423744,599617997718473008,98.00
2025-12-25 12:54:49.423744,599617997718473008,-25.00
2025-12-25 12:54:49.423744,599617997718473008,-80.00
2025-12-25 12:54:49.423744,599617997718473008,-113.00
2025-12-25 12:54:49.423744,599617997718473008,-153.00
2025-12-25 12:54:49.423744,599617997718473008,-160.00
2025-12-25 12:54:49.423744,599617997718473008,-174.00
2025-12-25 12:54:49.423744,599617997718473008,-200.00
2025-12-25 12:54:49.423744,599617997718473008,-223.00
2025-12-25 12:54:49.423744,599617997718473008,-249.00
2025-12-25 12:54:49.423744,599617997718473008,-266.00
2025-12-25 12:54:49.423744,599617997718473008,-245.00
2025-12-25 12:54:49.423744,599617997718473008,-214.00
2025-12-25 12:54:49.423744,599617997718473008,-209.00
2025-12-25 12:54:49.423744,599617997718473008,-204.00
2025-12-25 12:54:49.423744,599617997718473008,-190.00
2025-12-25 12:54:49.423744,599617997718473008,-179.00
2025-12-25 12:54:50.165307,599617998279297211,-146.00
2025-12-25 12:54:50.165307,599617998279297211,-131.00
2025-12-25 12:54:50.165307,599617998279297211,-181.00
2025-12-25 12:54:50.165307,599617998279297211,-212.00
2025-12-25 12:54:50.165307,599617998279297211,-174.00
2025-12-25 12:54:50.165307,599617998279297211,-164.00
2025-12-25 12:54:50.165307,599617998279297211,-171.00
2025-12-25 12:54:50.165307,599617998279297211,-117.00
2025-12-25 12:54:50.165307,599617998279297211,-87.00
2025-12-25 12:54:50.165307,599617998279297211,-120.00
2025-12-25 12:54:50.165307,599617998279297211,-131.00
2025-12-25 12:54:50.165307,599617998279297211,-120.00
2025-12-25 12:54:50.165307,599617998279297211,-129.00
2025-12-25 12:54:50.165307,599617998279297211,-141.00
2025-12-25 12:54:50.165307,599617998279297211,-117.00
2025-12-25 12:54:50.165307,599617998279297211,-77.00
2025-12-25 12:54:50.165307,599617998279297211,-80.00
2025-12-25 12:54:50.165307,599617998279297211,-108.00
2025-12-25 12:54:50.165307,599617998279297211,-101.00
2025-12-25 12:54:50.165307,599617998279297211,-54.00
2025-12-25 12:54:50.165307,599617998279297211,-35.00
2025-12-25 12:54:50.165307,599617998279297211,-58.00
2025-12-25 12:54:50.165307,599617998279297211,-101.00
2025-12-25 12:54:50.165307,599617998279297211,-155.00
2025-12-25 12:54:50.165307,599617998279297211,-127.00
2025-12-25 12:54:50.165307,599617998279297211,-82.00
2025-12-25 12:54:50.165307,599617998279297211,-115.00
2025-12-25 12:54:50.165307,599617998279297211,-115.00
2025-12-25 12:54:50.165307,599617998279297211,-40.00
2025-12-25 12:54:50.165307,599617998279297211,-7.00
2025-12-25 12:54:50.165307,599617998279297211,-40.00
2025-12-25 12:54:50.165307,599617998279297211,-56.00
2025-12-25 12:54:50.165307,599617998279297211,-65.00
2025-12-25 12:54:50.165307,599617998279297211,-115.00
2025-12-25 12:54:50.165307,599617998279297211,-113.00
2025-12-25 12:54:50.165307,599617998279297211,-42.00
2025-12-25 12:54:50.165307,599617998279297211,-40.00
2025-12-25 12:54:50.165307,599617998279297211,-70.00
2025-12-25 12:54:50.165307,599617998279297211,-110.00
2025-12-25 12:54:50.165307,599617998279297211,-110.00
2025-12-25 12:54:50.165307,599617998279297211,275.00
2025-12-25 12:54:50.165307,599617998279297211,1017.00
2025-12-25 12:54:50.165307,599617998279297211,1300.00
2025-12-25 12:54:50.165307,599617998279297211,534.00
2025-12-25 12:54:50.165307,599617998279297211,-471.00
2025-12-25 12:54:50.165307,599617998279297211,-478.00
2025-12-25 12:54:50.165307,599617998279297211,28.00
2025-12-25 12:54:50.165307,599617998279297211,16.00
2025-12-25 12:54:50.165307,599617998279297211,-155.00
2025-12-25 12:54:50.165307,599617998279297211,-82.00
2025-12-25 12:54:50.165307,599617998279297211,-56.00
2025-12-25 12:54:50.165307,599617998279297211,-103.00
2025-12-25 12:54:50.165307,599617998279297211,-89.00
2025-12-25 12:54:50.165307,599617998279297211,-98.00
2025-12-25 12:54:50.165307,599617998279297211,-89.00
2025-12-25 12:54:50.165307,599617998279297211,-14.00
2025-12-25 12:54:50.165307,599617998279297211,-18.00
2025-12-25 12:54:50.165307,599617998279297211,-70.00
2025-12-25 12:54:50.165307,599617998279297211,2.00
2025-12-25 12:54:50.165307,599617998279297211,68.00
2025-12-25 12:54:50.165307,599617998279297211,14.00
2025-12-25 12:54:50.165307,599617998279297211,-14.00
2025-12-25 12:54:50.165307,599617998279297211,0.00
2025-12-25 12:54:50.165307,599617998279297211,23.00
2025-12-25 12:54:50.165307,599617998279297211,101.00
2025-12-25 12:54:50.165307,599617998279297211,120.00
2025-12-25 12:54:50.165307,599617998279297211,73.00
2025-12-25 12:54:50.165307,599617998279297211,129.00
2025-12-25 12:54:50.165307,599617998279297211,190.00
2025-12-25 12:54:50.165307,599617998279297211,136.00
2025-12-25 12:54:50.165307,599617998279297211,87.00
2025-12-25 12:54:50.165307,599617998279297211,87.00
2025-12-25 12:54:50.165307,599617998279297211,58.00
2025-12-25 12:54:50.536973,599617998840151928,-21.00
2025-12-25 12:54:50.536973,599617998840151928,-65.00
2025-12-25 12:54:50.536973,599617998840151928,-77.00
2025-12-25 12:54:50.536973,599617998840151928,-153.00
2025-12-25 12:54:50.536973,599617998840151928,-209.00
2025-12-25 12:54:50.536973,599617998840151928,-190.00
2025-12-25 12:54:50.536973,599617998840151928,-188.00
2025-12-25 12:54:50.536973,599617998840151928,-221.00
2025-12-25 12:54:50.536973,599617998840151928,-296.00
2025-12-25 12:54:50.536973,599617998840151928,-285.00
2025-12-25 12:54:50.536973,599617998840151928,-160.00
2025-12-25 12:54:50.536973,599617998840151928,-134.00
2025-12-25 12:54:50.536973,599617998840151928,-195.00
2025-12-25 12:54:50.536973,599617998840151928,-176.00
2025-12-25 12:54:50.536973,599617998840151928,-110.00
2025-12-25 12:54:50.536973,599617998840151928,-179.00
2025-12-25 12:54:50.536973,599617998840151928,-252.00
2025-12-25 12:54:50.536973,599617998840151928,-197.00
2025-12-25 12:54:50.536973,599617998840151928,-155.00
2025-12-25 12:54:50.536973,599617998840151928,-143.00
2025-12-25 12:54:50.536973,599617998840151928,-136.00
2025-12-25 12:54:50.536973,599617998840151928,-127.00
2025-12-25 12:54:50.536973,599617998840151928,-91.00
2025-12-25 12:54:50.536973,599617998840151928,-80.00
2025-12-25 12:54:50.536973,599617998840151928,-127.00
2025-12-25 12:54:50.536973,599617998840151928,-157.00
2025-12-25 12:54:50.536973,599617998840151928,-108.00
2025-12-25 12:54:50.536973,599617998840151928,-80.00
2025-12-25 12:54:50.536973,599617998840151928,-108.00
2025-12-25 12:54:50.536973,599617998840151928,-120.00
2025-12-25 12:54:50.536973,599617998840151928,-91.00
2025-12-25 12:54:50.536973,599617998840151928,-47.00
2025-12-25 12:54:50.536973,599617998840151928,-37.00
2025-12-25 12:54:50.536973,599617998840151928,-94.00
2025-12-25 12:54:50.536973,599617998840151928,-131.00
2025-12-25 12:54:50.536973,599617998840151928,-117.00
2025-12-25 12:54:50.536973,599617998840151928,-84.00
2025-12-25 12:54:50.536973,599617998840151928,-16.00
2025-12-25 12:54:50.536973,599617998840151928,28.00
2025-12-25 12:54:50.536973,599617998840151928,-30.00
2025-12-25 12:54:50.536973,599617998840151928,-108.00
2025-12-25 12:54:50.536973,599617998840151928,-120.00
2025-12-25 12:54:50.536973,599617998840151928,-115.00
2025-12-25 12:54:50.536973,599617998840151928,-82.00
2025-12-25 12:54:50.536973,599617998840151928,-18.00
2025-12-25 12:54:50.536973,599617998840151928,4.00
2025-12-25 12:54:50.536973,599617998840151928,-4.00
2025-12-25 12:54:50.536973,599617998840151928,-14.00
2025-12-25 12:54:50.536973,599617998840151928,-65.00
2025-12-25 12:54:50.536973,599617998840151928,-136.00
2025-12-25 12:54:50.536973,599617998840151928,-96.00
2025-12-25 12:54:50.536973,599617998840151928,-51.00
2025-12-25 12:54:50.536973,599617998840151928,-89.00
2025-12-25 12:54:50.536973,599617998840151928,-32.00
2025-12-25 12:54:50.536973,599617998840151928,68.00
2025-12-25 12:54:50.536973,599617998840151928,-21.00
2025-12-25 12:54:50.536973,599617998840151928,-200.00
2025-12-25 12:54:50.536973,599617998840151928,25.00
2025-12-25 12:54:50.536973,599617998840151928,775.00
2025-12-25 12:54:50.536973,599617998840151928,1335.00
2025-12-25 12:54:50.536973,599617998840151928,975.00
2025-12-25 12:54:50.536973,599617998840151928,-75.00
2025-12-25 12:54:50.536973,599617998840151928,-603.00
2025-12-25 12:54:50.536973,599617998840151928,-167.00
2025-12-25 12:54:50.536973,599617998840151928,155.00
2025-12-25 12:54:50.536973,599617998840151928,-101.00
2025-12-25 12:54:50.536973,599617998840151928,-233.00
2025-12-25 12:54:50.536973,599617998840151928,-37.00
2025-12-25 12:54:50.536973,599617998840151928,42.00
2025-12-25 12:54:50.536973,599617998840151928,-44.00
2025-12-25 12:54:50.536973,599617998840151928,-58.00
2025-12-25 12:54:50.536973,599617998840151928,-47.00
2025-12-25 12:54:50.536973,599617998840151928,-70.00
2025-12-25 12:54:51.143669,599617999400991387,-18.00
2025-12-25 12:54:51.143669,599617999400991387,44.00
2025-12-25 12:54:51.143669,599617999400991387,42.00
2025-12-25 12:54:51.143669,599617999400991387,37.00
2025-12-25 12:54:51.143669,599617999400991387,14.00
2025-12-25 12:54:51.143669,599617999400991387,-25.00
2025-12-25 12:54:51.143669,599617999400991387,40.00
2025-12-25 12:54:51.143669,599617999400991387,136.00
2025-12-25 12:54:51.143669,599617999400991387,143.00
2025-12-25 12:54:51.143669,599617999400991387,108.00
2025-12-25 12:54:51.143669,599617999400991387,89.00
2025-12-25 12:54:51.143669,599617999400991387,150.00
2025-12-25 12:54:51.143669,599617999400991387,226.00
2025-12-25 12:54:51.143669,599617999400991387,183.00
2025-12-25 12:54:51.143669,599617999400991387,155.00
2025-12-25 12:54:51.143669,599617999400991387,176.00
2025-12-25 12:54:51.143669,599617999400991387,117.00
2025-12-25 12:54:51.143669,599617999400991387,80.00
2025-12-25 12:54:51.143669,599617999400991387,51.00
2025-12-25 12:54:51.143669,599617999400991387,-30.00
2025-12-25 12:54:51.143669,599617999400991387,-51.00
2025-12-25 12:54:51.143669,599617999400991387,-80.00
2025-12-25 12:54:51.143669,599617999400991387,-188.00
2025-12-25 12:54:51.143669,599617999400991387,-228.00
2025-12-25 12:54:51.143669,599617999400991387,-179.00
2025-12-25 12:54:51.143669,599617999400991387,-164.00
2025-12-25 12:54:51.143669,599617999400991387,-150.00
2025-12-25 12:54:51.143669,599617999400991387,-106.00
2025-12-25 12:54:51.143669,599617999400991387,-115.00
2025-12-25 12:54:51.143669,599617999400991387,-174.00
2025-12-25 12:54:51.143669,599617999400991387,-188.00
2025-12-25 12:54:51.143669,599617999400991387,-139.00
2025-12-25 12:54:51.143669,599617999400991387,-94.00
2025-12-25 12:54:51.143669,599617999400991387,-96.00
2025-12-25 12:54:51.143669,599617999400991387,-115.00
2025-12-25 12:54:51.143669,599617999400991387,-129.00
2025-12-25 12:54:51.143669,599617999400991387,-146.00
2025-12-25 12:54:51.143669,599617999400991387,-150.00
2025-12-25 12:54:51.143669,599617999400991387,-87.00
2025-12-25 12:54:51.143669,599617999400991387,-35.00
2025-12-25 12:54:51.143669,599617999400991387,-65.00
2025-12-25 12:54:51.143669,599617999400991387,-113.00
2025-12-25 12:54:51.143669,599617999400991387,-117.00
2025-12-25 12:54:51.143669,599617999400991387,-42.00
2025-12-25 12:54:51.143669,599617999400991387,-42.00
2025-12-25 12:54:51.143669,599617999400991387,-155.00
2025-12-25 12:54:51.143669,599617999400991387,-96.00
2025-12-25 12:54:51.143669,599617999400991387,14.00
2025-12-25 12:54:51.143669,599617999400991387,-63.00
2025-12-25 12:54:51.143669,599617999400991387,-91.00
2025-12-25 12:54:51.143669,599617999400991387,-16.00
2025-12-25 12:54:51.143669,599617999400991387,-21.00
2025-12-25 12:54:51.143669,599617999400991387,-58.00
2025-12-25 12:54:51.143669,599617999400991387,-110.00
2025-12-25 12:54:51.143669,599617999400991387,-117.00
2025-12-25 12:54:51.143669,599617999400991387,-25.00
2025-12-25 12:54:51.143669,599617999400991387,11.00
2025-12-25 12:54:51.143669,599617999400991387,-44.00
2025-12-25 12:54:51.143669,599617999400991387,-77.00
2025-12-25 12:54:51.143669,599617999400991387,-61.00
2025-12-25 12:54:51.143669,599617999400991387,-49.00
2025-12-25 12:54:51.143669,599617999400991387,-47.00
2025-12-25 12:54:51.143669,599617999400991387,-51.00
2025-12-25 12:54:51.143669,599617999400991387,-30.00
2025-12-25 12:54:51.143669,599617999400991387,11.00
2025-12-25 12:54:51.143669,599617999400991387,-23.00
2025-12-25 12:54:51.143669,599617999400991387,-65.00
2025-12-25 12:54:51.143669,599617999400991387,-28.00
2025-12-25 12:54:51.143669,599617999400991387,-18.00
2025-12-25 12:54:51.143669,599617999400991387,-70.00
2025-12-25 12:54:51.143669,599617999400991387,-84.00
2025-12-25 12:54:51.143669,599617999400991387,-61.00
2025-12-25 12:54:51.143669,599617999400991387,-134.00
2025-12-25 12:54:51.670049,599617999961841018,-91.00
2025-12-25 12:54:51.670049,599617999961841018,525.00
2025-12-25 12:54:51.670049,599617999961841018,1243.00
2025-12-25 12:54:51.670049,599617999961841018,1046.00
2025-12-25 12:54:51.670049,599617999961841018,54.00
2025-12-25 12:54:51.670049,599617999961841018,-560.00
2025-12-25 12:54:51.670049,599617999961841018,-292.00
2025-12-25 12:54:51.670049,599617999961841018,37.00
2025-12-25 12:54:51.670049,599617999961841018,-61.00
2025-12-25 12:54:51.670049,599617999961841018,-127.00
2025-12-25 12:54:51.670049,599617999961841018,-44.00
2025-12-25 12:54:51.670049,599617999961841018,-14.00
2025-12-25 12:54:51.670049,599617999961841018,-11.00
2025-12-25 12:54:51.670049,599617999961841018,-23.00
2025-12-25 12:54:51.670049,599617999961841018,-18.00
2025-12-25 12:54:51.670049,599617999961841018,21.00
2025-12-25 12:54:51.670049,599617999961841018,-2.00
2025-12-25 12:54:51.670049,599617999961841018,-23.00
2025-12-25 12:54:51.670049,599617999961841018,58.00
2025-12-25 12:54:51.670049,599617999961841018,82.00
2025-12-25 12:54:51.670049,599617999961841018,35.00
2025-12-25 12:54:51.670049,599617999961841018,54.00
2025-12-25 12:54:51.670049,599617999961841018,94.00
2025-12-25 12:54:51.670049,599617999961841018,106.00
2025-12-25 12:54:51.670049,599617999961841018,124.00
2025-12-25 12:54:51.670049,599617999961841018,103.00
2025-12-25 12:54:51.670049,599617999961841018,68.00
2025-12-25 12:54:51.670049,599617999961841018,98.00
2025-12-25 12:54:51.670049,599617999961841018,134.00
2025-12-25 12:54:51.670049,599617999961841018,150.00
2025-12-25 12:54:51.670049,599617999961841018,193.00
2025-12-25 12:54:51.670049,599617999961841018,179.00
2025-12-25 12:54:51.670049,599617999961841018,84.00
2025-12-25 12:54:51.670049,599617999961841018,28.00
2025-12-25 12:54:51.670049,599617999961841018,32.00
2025-12-25 12:54:51.670049,599617999961841018,-40.00
2025-12-25 12:54:51.670049,599617999961841018,-181.00
2025-12-25 12:54:51.670049,599617999961841018,-171.00
2025-12-25 12:54:51.670049,599617999961841018,-91.00
2025-12-25 12:54:51.670049,599617999961841018,-136.00
2025-12-25 12:54:51.670049,599617999961841018,-197.00
2025-12-25 12:54:51.670049,599617999961841018,-216.00
2025-12-25 12:54:51.670049,599617999961841018,-202.00
2025-12-25 12:54:51.670049,599617999961841018,-169.00
2025-12-25 12:54:51.670049,599617999961841018,-195.00
2025-12-25 12:54:51.670049,599617999961841018,-200.00
2025-12-25 12:54:51.670049,599617999961841018,-134.00
2025-12-25 12:54:51.670049,599617999961841018,-141.00
2025-12-25 12:54:51.670049,599617999961841018,-174.00
2025-12-25 12:54:51.670049,599617999961841018,-131.00
2025-12-25 12:54:51.670049,599617999961841018,-115.00
2025-12-25 12:54:51.670049,599617999961841018,-160.00
2025-12-25 12:54:51.670049,599617999961841018,-155.00
2025-12-25 12:54:51.670049,599617999961841018,-110.00
2025-12-25 12:54:51.670049,599617999961841018,-115.00
2025-12-25 12:54:51.670049,599617999961841018,-129.00
2025-12-25 12:54:51.670049,599617999961841018,-101.00
2025-12-25 12:54:51.670049,599617999961841018,-106.00
2025-12-25 12:54:51.670049,599617999961841018,-146.00
2025-12-25 12:54:51.670049,599617999961841018,-117.00
2025-12-25 12:54:51.670049,599617999961841018,-82.00
2025-12-25 12:54:51.670049,599617999961841018,-96.00
2025-12-25 12:54:51.670049,599617999961841018,-103.00
2025-12-25 12:54:51.670049,599617999961841018,-98.00
2025-12-25 12:54:51.670049,599617999961841018,-91.00
2025-12-25 12:54:51.670049,599617999961841018,-70.00
2025-12-25 12:54:51.670049,599617999961841018,-87.00
2025-12-25 12:54:51.670049,599617999961841018,-110.00
2025-12-25 12:54:51.670049,599617999961841018,-82.00
2025-12-25 12:54:51.670049,599617999961841018,-63.00
2025-12-25 12:54:51.670049,599617999961841018,-80.00
2025-12-25 12:54:51.670049,599617999961841018,-77.00
2025-12-25 12:54:51.670049,599617999961841018,-82.00
2025-12-25 12:54:52.254288,599618000522685561,-98.00
2025-12-25 12:54:52.254288,599618000522685561,-91.00
2025-12-25 12:54:52.254288,599618000522685561,-98.00
2025-12-25 12:54:52.254288,599618000522685561,-94.00
2025-12-25 12:54:52.254288,599618000522685561,-28.00
2025-12-25 12:54:52.254288,599618000522685561,-4.00
2025-12-25 12:54:52.254288,599618000522685561,-51.00
2025-12-25 12:54:52.254288,599618000522685561,-84.00
2025-12-25 12:54:52.254288,599618000522685561,-80.00
2025-12-25 12:54:52.254288,599618000522685561,-70.00
2025-12-25 12:54:52.254288,599618000522685561,-91.00
2025-12-25 12:54:52.254288,599618000522685561,-120.00
2025-12-25 12:54:52.254288,599618000522685561,-84.00
2025-12-25 12:54:52.254288,599618000522685561,-25.00
2025-12-25 12:54:52.254288,599618000522685561,-47.00
2025-12-25 12:54:52.254288,599618000522685561,-122.00
2025-12-25 12:54:52.254288,599618000522685561,9.00
2025-12-25 12:54:52.254288,599618000522685561,593.00
2025-12-25 12:54:52.254288,599618000522685561,1187.00
2025-12-25 12:54:52.254288,599618000522685561,918.00
2025-12-25 12:54:52.254288,599618000522685561,-127.00
2025-12-25 12:54:52.254288,599618000522685561,-652.00
2025-12-25 12:54:52.254288,599618000522685561,-216.00
2025-12-25 12:54:52.254288,599618000522685561,68.00
2025-12-25 12:54:52.254288,599618000522685561,-113.00
2025-12-25 12:54:52.254288,599618000522685561,-131.00
2025-12-25 12:54:52.254288,599618000522685561,-35.00
2025-12-25 12:54:52.254288,599618000522685561,-91.00
2025-12-25 12:54:52.254288,599618000522685561,-136.00
2025-12-25 12:54:52.254288,599618000522685561,-110.00
2025-12-25 12:54:52.254288,599618000522685561,-87.00
2025-12-25 12:54:52.254288,599618000522685561,-42.00
2025-12-25 12:54:52.254288,599618000522685561,7.00
2025-12-25 12:54:52.254288,599618000522685561,-14.00
2025-12-25 12:54:52.254288,599618000522685561,-42.00
2025-12-25 12:54:52.254288,599618000522685561,-14.00
2025-12-25 12:54:52.254288,599618000522685561,14.00
2025-12-25 12:54:52.254288,599618000522685561,11.00
2025-12-25 12:54:52.254288,599618000522685561,-9.00
2025-12-25 12:54:52.254288,599618000522685561,-14.00
2025-12-25 12:54:52.254288,599618000522685561,47.00
2025-12-25 12:54:52.254288,599618000522685561,82.00
2025-12-25 12:54:52.254288,599618000522685561,51.00
2025-12-25 12:54:52.254288,599618000522685561,94.00
2025-12-25 12:54:52.254288,599618000522685561,127.00
2025-12-25 12:54:52.254288,599618000522685561,61.00
2025-12-25 12:54:52.254288,599618000522685561,49.00
2025-12-25 12:54:52.254288,599618000522685561,73.00
2025-12-25 12:54:52.254288,599618000522685561,25.00
2025-12-25 12:54:52.254288,599618000522685561,-16.00
2025-12-25 12:54:52.254288,599618000522685561,-32.00
2025-12-25 12:54:52.254288,599618000522685561,-84.00
2025-12-25 12:54:52.254288,599618000522685561,-153.00
2025-12-25 12:54:52.254288,599618000522685561,-160.00
2025-12-25 12:54:52.254288,599618000522685561,-160.00
2025-12-25 12:54:52.254288,599618000522685561,-207.00
2025-12-25 12:54:52.254288,599618000522685561,-228.00
2025-12-25 12:54:52.254288,599618000522685561,-214.00
2025-12-25 12:54:52.254288,599618000522685561,-221.00
2025-12-25 12:54:52.254288,599618000522685561,-228.00
2025-12-25 12:54:52.254288,599618000522685561,-214.00
2025-12-25 12:54:52.254288,599618000522685561,-209.00
2025-12-25 12:54:52.254288,599618000522685561,-193.00
2025-12-25 12:54:52.254288,599618000522685561,-155.00
2025-12-25 12:54:52.254288,599618000522685561,-148.00
2025-12-25 12:54:52.254288,599618000522685561,-162.00
2025-12-25 12:54:52.254288,599618000522685561,-164.00
2025-12-25 12:54:52.254288,599618000522685561,-160.00
2025-12-25 12:54:52.254288,599618000522685561,-157.00
2025-12-25 12:54:52.254288,599618000522685561,-153.00
2025-12-25 12:54:52.254288,599618000522685561,-139.00
2025-12-25 12:54:52.254288,599618000522685561,-129.00
2025-12-25 12:54:52.254288,599618000522685561,-124.00
2025-12-25 12:54:52.773270,599618001083540278,-120.00
2025-12-25 12:54:52.773270,599618001083540278,-117.00
2025-12-25 12:54:52.773270,599618001083540278,-117.00
2025-12-25 12:54:52.773270,599618001083540278,-110.00
2025-12-25 12:54:52.773270,599618001083540278,-106.00
2025-12-25 12:54:52.773270,599618001083540278,-103.00
2025-12-25 12:54:52.773270,599618001083540278,-96.00
2025-12-25 12:54:52.773270,599618001083540278,-91.00
2025-12-25 12:54:52.773270,599618001083540278,-94.00
2025-12-25 12:54:52.773270,599618001083540278,-94.00
2025-12-25 12:54:52.773270,599618001083540278,-89.00
2025-12-25 12:54:52.773270,599618001083540278,-87.00
2025-12-25 12:54:52.773270,599618001083540278,-82.00
2025-12-25 12:54:52.773270,599618001083540278,-77.00
2025-12-25 12:54:52.773270,599618001083540278,-75.00
2025-12-25 12:54:52.773270,599618001083540278,-75.00
2025-12-25 12:54:52.773270,599618001083540278,-77.00
2025-12-25 12:54:52.773270,599618001083540278,-80.00
2025-12-25 12:54:52.773270,599618001083540278,-80.00
2025-12-25 12:54:52.773270,599618001083540278,-82.00
2025-12-25 12:54:52.773270,599618001083540278,-80.00
2025-12-25 12:54:52.773270,599618001083540278,-58.00
2025-12-25 12:54:52.773270,599618001083540278,-35.00
2025-12-25 12:54:52.773270,599618001083540278,-21.00
2025-12-25 12:54:52.773270,599618001083540278,-23.00
2025-12-25 12:54:52.773270,599618001083540278,-44.00
2025-12-25 12:54:52.773270,599618001083540278,-65.00
2025-12-25 12:54:52.773270,599618001083540278,-63.00
2025-12-25 12:54:52.773270,599618001083540278,-56.00
2025-12-25 12:54:52.773270,599618001083540278,-56.00
2025-12-25 12:54:52.773270,599618001083540278,-54.00
2025-12-25 12:54:52.773270,599618001083540278,-54.00
2025-12-25 12:54:52.773270,599618001083540278,-96.00
2025-12-25 12:54:52.773270,599618001083540278,-117.00
2025-12-25 12:54:52.773270,599618001083540278,209.00
2025-12-25 12:54:52.773270,599618001083540278,949.00
2025-12-25 12:54:52.773270,599618001083540278,1340.00
2025-12-25 12:54:52.773270,599618001083540278,687.00
2025-12-25 12:54:52.773270,599618001083540278,-360.00
2025-12-25 12:54:52.773270,599618001083540278,-565.00
2025-12-25 12:54:52.773270,599618001083540278,-120.00
2025-12-25 12:54:52.773270,599618001083540278,2.00
2025-12-25 12:54:52.773270,599618001083540278,-129.00
2025-12-25 12:54:52.773270,599618001083540278,-101.00
2025-12-25 12:54:52.773270,599618001083540278,-49.00
2025-12-25 12:54:52.773270,599618001083540278,-80.00
2025-12-25 12:54:52.773270,599618001083540278,-75.00
2025-12-25 12:54:52.773270,599618001083540278,-42.00
2025-12-25 12:54:52.773270,599618001083540278,-40.00
2025-12-25 12:54:52.773270,599618001083540278,-40.00
2025-12-25 12:54:52.773270,599618001083540278,-23.00
2025-12-25 12:54:52.773270,599618001083540278,-11.00
2025-12-25 12:54:52.773270,599618001083540278,-2.00
2025-12-25 12:54:52.773270,599618001083540278,14.00
2025-12-25 12:54:52.773270,599618001083540278,25.00
2025-12-25 12:54:52.773270,599618001083540278,35.00
2025-12-25 12:54:52.773270,599618001083540278,49.00
2025-12-25 12:54:52.773270,599618001083540278,68.00
2025-12-25 12:54:52.773270,599618001083540278,82.00
2025-12-25 12:54:52.773270,599618001083540278,94.00
2025-12-25 12:54:52.773270,599618001083540278,106.00
2025-12-25 12:54:52.773270,599618001083540278,120.00
2025-12-25 12:54:52.773270,599618001083540278,124.00
2025-12-25 12:54:52.773270,599618001083540278,124.00
2025-12-25 12:54:52.773270,599618001083540278,127.00
2025-12-25 12:54:52.773270,599618001083540278,122.00
2025-12-25 12:54:52.773270,599618001083540278,89.00
2025-12-25 12:54:52.773270,599618001083540278,40.00
2025-12-25 12:54:52.773270,599618001083540278,-16.00
2025-12-25 12:54:52.773270,599618001083540278,-63.00
2025-12-25 12:54:52.773270,599618001083540278,-98.00
2025-12-25 12:54:52.773270,599618001083540278,-134.00
2025-12-25 12:54:52.773270,599618001083540278,-160.00
2025-12-25 12:54:53.430837,599618001644364481,-164.00
2025-12-25 12:54:53.430837,599618001644364481,-171.00
2025-12-25 12:54:53.430837,599618001644364481,-176.00
2025-12-25 12:54:53.430837,599618001644364481,-167.00
2025-12-25 12:54:53.430837,599618001644364481,-155.00
2025-12-25 12:54:53.430837,599618001644364481,-150.00
2025-12-25 12:54:53.430837,599618001644364481,-150.00
2025-12-25 12:54:53.430837,599618001644364481,-148.00
2025-12-25 12:54:53.430837,599618001644364481,-129.00
2025-12-25 12:54:53.430837,599618001644364481,-110.00
2025-12-25 12:54:53.430837,599618001644364481,-101.00
2025-12-25 12:54:53.430837,599618001644364481,-96.00
2025-12-25 12:54:53.430837,599618001644364481,-89.00
2025-12-25 12:54:53.430837,599618001644364481,-87.00
2025-12-25 12:54:53.430837,599618001644364481,-80.00
2025-12-25 12:54:53.430837,599618001644364481,-75.00
2025-12-25 12:54:53.430837,599618001644364481,-77.00
2025-12-25 12:54:53.430837,599618001644364481,-82.00
2025-12-25 12:54:53.430837,599618001644364481,-75.00
2025-12-25 12:54:53.430837,599618001644364481,-73.00
2025-12-25 12:54:53.430837,599618001644364481,-75.00
2025-12-25 12:54:53.430837,599618001644364481,-68.00
2025-12-25 12:54:53.430837,599618001644364481,-70.00
2025-12-25 12:54:53.430837,599618001644364481,-77.00
2025-12-25 12:54:53.430837,599618001644364481,-70.00
2025-12-25 12:54:53.430837,599618001644364481,-63.00
2025-12-25 12:54:53.430837,599618001644364481,-68.00
2025-12-25 12:54:53.430837,599618001644364481,-68.00
2025-12-25 12:54:53.430837,599618001644364481,-56.00
2025-12-25 12:54:53.430837,599618001644364481,-58.00
2025-12-25 12:54:53.430837,599618001644364481,-65.00
2025-12-25 12:54:53.430837,599618001644364481,-63.00
2025-12-25 12:54:53.430837,599618001644364481,-56.00
2025-12-25 12:54:53.430837,599618001644364481,-56.00
2025-12-25 12:54:53.430837,599618001644364481,-65.00
2025-12-25 12:54:53.430837,599618001644364481,-65.00
2025-12-25 12:54:53.430837,599618001644364481,-68.00
2025-12-25 12:54:53.430837,599618001644364481,-65.00
2025-12-25 12:54:53.430837,599618001644364481,-44.00
2025-12-25 12:54:53.430837,599618001644364481,-18.00
2025-12-25 12:54:53.430837,599618001644364481,-14.00
2025-12-25 12:54:53.430837,599618001644364481,-25.00
2025-12-25 12:54:53.430837,599618001644364481,-42.00
2025-12-25 12:54:53.430837,599618001644364481,-54.00
2025-12-25 12:54:53.430837,599618001644364481,-54.00
2025-12-25 12:54:53.430837,599618001644364481,-51.00
2025-12-25 12:54:53.430837,599618001644364481,-49.00
2025-12-25 12:54:53.430837,599618001644364481,-47.00
2025-12-25 12:54:53.430837,599618001644364481,-51.00
2025-12-25 12:54:53.430837,599618001644364481,-98.00
2025-12-25 12:54:53.430837,599618001644364481,-87.00
2025-12-25 12:54:53.430837,599618001644364481,339.00
2025-12-25 12:54:53.430837,599618001644364481,1100.00
2025-12-25 12:54:53.430837,599618001644364481,1326.00
2025-12-25 12:54:53.430837,599618001644364481,494.00
2025-12-25 12:54:53.430837,599618001644364481,-480.00
2025-12-25 12:54:53.430837,599618001644364481,-499.00
2025-12-25 12:54:53.430837,599618001644364481,-49.00
2025-12-25 12:54:53.430837,599618001644364481,-2.00
2025-12-25 12:54:53.430837,599618001644364481,-117.00
2025-12-25 12:54:53.430837,599618001644364481,-68.00
2025-12-25 12:54:53.430837,599618001644364481,-37.00
2025-12-25 12:54:53.430837,599618001644364481,-63.00
2025-12-25 12:54:53.430837,599618001644364481,-47.00
2025-12-25 12:54:53.430837,599618001644364481,-25.00
2025-12-25 12:54:53.430837,599618001644364481,-30.00
2025-12-25 12:54:53.430837,599618001644364481,-18.00
2025-12-25 12:54:53.430837,599618001644364481,0.00
2025-12-25 12:54:53.430837,599618001644364481,7.00
2025-12-25 12:54:53.430837,599618001644364481,16.00
2025-12-25 12:54:53.430837,599618001644364481,32.00
2025-12-25 12:54:53.430837,599618001644364481,47.00
2025-12-25 12:54:53.430837,599618001644364481,56.00
2025-12-25 12:54:53.947794,599618002205219198,70.00
2025-12-25 12:54:53.947794,599618002205219198,84.00
2025-12-25 12:54:53.947794,599618002205219198,101.00
2025-12-25 12:54:53.947794,599618002205219198,117.00
2025-12-25 12:54:53.947794,599618002205219198,129.00
2025-12-25 12:54:53.947794,599618002205219198,131.00
2025-12-25 12:54:53.947794,599618002205219198,134.00
2025-12-25 12:54:53.947794,599618002205219198,139.00
2025-12-25 12:54:53.947794,599618002205219198,129.00
2025-12-25 12:54:53.947794,599618002205219198,103.00
2025-12-25 12:54:53.947794,599618002205219198,68.00
2025-12-25 12:54:53.947794,599618002205219198,21.00
2025-12-25 12:54:53.947794,599618002205219198,-32.00
2025-12-25 12:54:53.947794,599618002205219198,-82.00
2025-12-25 12:54:53.947794,599618002205219198,-117.00
2025-12-25 12:54:53.947794,599618002205219198,-146.00
2025-12-25 12:54:53.947794,599618002205219198,-164.00
2025-12-25 12:54:53.947794,599618002205219198,-171.00
2025-12-25 12:54:53.947794,599618002205219198,-167.00
2025-12-25 12:54:53.947794,599618002205219198,-162.00
2025-12-25 12:54:53.947794,599618002205219198,-160.00
2025-12-25 12:54:53.947794,599618002205219198,-155.00
2025-12-25 12:54:53.947794,599618002205219198,-148.00
2025-12-25 12:54:53.947794,599618002205219198,-143.00
2025-12-25 12:54:53.947794,599618002205219198,-134.00
2025-12-25 12:54:53.947794,599618002205219198,-122.00
2025-12-25 12:54:53.947794,599618002205219198,-115.00
2025-12-25 12:54:53.947794,599618002205219198,-115.00
2025-12-25 12:54:53.947794,599618002205219198,-110.00
2025-12-25 12:54:53.947794,599618002205219198,-103.00
2025-12-25 12:54:53.947794,599618002205219198,-101.00
2025-12-25 12:54:53.947794,599618002205219198,-98.00
2025-12-25 12:54:53.947794,599618002205219198,-94.00
2025-12-25 12:54:53.947794,599618002205219198,-91.00
2025-12-25 12:54:53.947794,599618002205219198,-89.00
2025-12-25 12:54:53.947794,599618002205219198,-87.00
2025-12-25 12:54:53.947794,599618002205219198,-84.00
2025-12-25 12:54:53.947794,599618002205219198,-84.00
2025-12-25 12:54:53.947794,599618002205219198,-87.00
2025-12-25 12:54:53.947794,599618002205219198,-87.00
2025-12-25 12:54:53.947794,599618002205219198,-87.00
2025-12-25 12:54:53.947794,599618002205219198,-87.00
2025-12-25 12:54:53.947794,599618002205219198,-87.00
2025-12-25 12:54:53.947794,599618002205219198,-87.00
2025-12-25 12:54:53.947794,599618002205219198,-87.00
2025-12-25 12:54:53.947794,599618002205219198,-84.00
2025-12-25 12:54:53.947794,599618002205219198,-82.00
2025-12-25 12:54:53.947794,599618002205219198,-82.00
2025-12-25 12:54:53.947794,599618002205219198,-82.00
2025-12-25 12:54:53.947794,599618002205219198,-82.00
2025-12-25 12:54:53.947794,599618002205219198,-80.00
2025-12-25 12:54:53.947794,599618002205219198,-75.00
2025-12-25 12:54:53.947794,599618002205219198,-80.00
2025-12-25 12:54:53.947794,599618002205219198,-84.00
2025-12-25 12:54:53.947794,599618002205219198,-77.00
2025-12-25 12:54:53.947794,599618002205219198,-58.00
2025-12-25 12:54:53.947794,599618002205219198,-37.00
2025-12-25 12:54:53.947794,599618002205219198,-25.00
2025-12-25 12:54:53.947794,599618002205219198,-42.00
2025-12-25 12:54:53.947794,599618002205219198,-65.00
2025-12-25 12:54:53.947794,599618002205219198,-73.00
2025-12-25 12:54:53.947794,599618002205219198,-70.00
2025-12-25 12:54:53.947794,599618002205219198,-68.00
2025-12-25 12:54:53.947794,599618002205219198,-68.00
2025-12-25 12:54:53.947794,599618002205219198,-65.00
2025-12-25 12:54:53.947794,599618002205219198,-80.00
2025-12-25 12:54:53.947794,599618002205219198,-139.00
2025-12-25 12:54:53.947794,599618002205219198,-47.00
2025-12-25 12:54:53.947794,599618002205219198,520.00
2025-12-25 12:54:53.947794,599618002205219198,1243.00
2025-12-25 12:54:53.947794,599618002205219198,1218.00
2025-12-25 12:54:53.947794,599618002205219198,230.00
2025-12-25 12:54:53.947794,599618002205219198,-577.00
2025-12-25 12:54:54.465581,599618002766058657,-376.00
2025-12-25 12:54:54.465581,599618002766058657,11.00
2025-12-25 12:54:54.465581,599618002766058657,-73.00
2025-12-25 12:54:54.465581,599618002766058657,-164.00
2025-12-25 12:54:54.465581,599618002766058657,-77.00
2025-12-25 12:54:54.465581,599618002766058657,-70.00
2025-12-25 12:54:54.465581,599618002766058657,-103.00
2025-12-25 12:54:54.465581,599618002766058657,-75.00
2025-12-25 12:54:54.465581,599618002766058657,-54.00
2025-12-25 12:54:54.465581,599618002766058657,-56.00
2025-12-25 12:54:54.465581,599618002766058657,-42.00
2025-12-25 12:54:54.465581,599618002766058657,-25.00
2025-12-25 12:54:54.465581,599618002766058657,-21.00
2025-12-25 12:54:54.465581,599618002766058657,-7.00
2025-12-25 12:54:54.465581,599618002766058657,11.00
2025-12-25 12:54:54.465581,599618002766058657,25.00
2025-12-25 12:54:54.465581,599618002766058657,42.00
2025-12-25 12:54:54.465581,599618002766058657,54.00
2025-12-25 12:54:54.465581,599618002766058657,63.00
2025-12-25 12:54:54.465581,599618002766058657,82.00
2025-12-25 12:54:54.465581,599618002766058657,103.00
2025-12-25 12:54:54.465581,599618002766058657,115.00
2025-12-25 12:54:54.465581,599618002766058657,122.00
2025-12-25 12:54:54.465581,599618002766058657,129.00
2025-12-25 12:54:54.465581,599618002766058657,127.00
2025-12-25 12:54:54.465581,599618002766058657,122.00
2025-12-25 12:54:54.465581,599618002766058657,106.00
2025-12-25 12:54:54.465581,599618002766058657,61.00
2025-12-25 12:54:54.465581,599618002766058657,-2.00
2025-12-25 12:54:54.465581,599618002766058657,-63.00
2025-12-25 12:54:54.465581,599618002766058657,-108.00
2025-12-25 12:54:54.465581,599618002766058657,-143.00
2025-12-25 12:54:54.465581,599618002766058657,-169.00
2025-12-25 12:54:54.465581,599618002766058657,-186.00
2025-12-25 12:54:54.465581,599618002766058657,-195.00
2025-12-25 12:54:54.465581,599618002766058657,-195.00
2025-12-25 12:54:54.465581,599618002766058657,-193.00
2025-12-25 12:54:54.465581,599618002766058657,-190.00
2025-12-25 12:54:54.465581,599618002766058657,-183.00
2025-12-25 12:54:54.465581,599618002766058657,-174.00
2025-12-25 12:54:54.465581,599618002766058657,-169.00
2025-12-25 12:54:54.465581,599618002766058657,-162.00
2025-12-25 12:54:54.465581,599618002766058657,-150.00
2025-12-25 12:54:54.465581,599618002766058657,-134.00
2025-12-25 12:54:54.465581,599618002766058657,-124.00
2025-12-25 12:54:54.465581,599618002766058657,-122.00
2025-12-25 12:54:54.465581,599618002766058657,-117.00
2025-12-25 12:54:54.465581,599618002766058657,-113.00
2025-12-25 12:54:54.465581,599618002766058657,-110.00
2025-12-25 12:54:54.465581,599618002766058657,-106.00
2025-12-25 12:54:54.465581,599618002766058657,-101.00
2025-12-25 12:54:54.465581,599618002766058657,-96.00
2025-12-25 12:54:54.465581,599618002766058657,-96.00
2025-12-25 12:54:54.465581,599618002766058657,-96.00
2025-12-25 12:54:54.465581,599618002766058657,-96.00
2025-12-25 12:54:54.465581,599618002766058657,-94.00
2025-12-25 12:54:54.465581,599618002766058657,-89.00
2025-12-25 12:54:54.465581,599618002766058657,-89.00
2025-12-25 12:54:54.465581,599618002766058657,-87.00
2025-12-25 12:54:54.465581,599618002766058657,-87.00
2025-12-25 12:54:54.465581,599618002766058657,-84.00
2025-12-25 12:54:54.465581,599618002766058657,-82.00
2025-12-25 12:54:54.465581,599618002766058657,-82.00
2025-12-25 12:54:54.465581,599618002766058657,-82.00
2025-12-25 12:54:54.465581,599618002766058657,-82.00
2025-12-25 12:54:54.465581,599618002766058657,-80.00
2025-12-25 12:54:54.465581,599618002766058657,-77.00
2025-12-25 12:54:54.465581,599618002766058657,-75.00
2025-12-25 12:54:54.465581,599618002766058657,-77.00
2025-12-25 12:54:54.465581,599618002766058657,-80.00
2025-12-25 12:54:54.465581,599618002766058657,-84.00
2025-12-25 12:54:54.465581,599618002766058657,-91.00
2025-12-25 12:54:54.465581,599618002766058657,-94.00
2025-12-25 12:54:55.017125,599618003326908288,-80.00
2025-12-25 12:54:55.017125,599618003326908288,-58.00
2025-12-25 12:54:55.017125,599618003326908288,-42.00
2025-12-25 12:54:55.017125,599618003326908288,-32.00
2025-12-25 12:54:55.017125,599618003326908288,-37.00
2025-12-25 12:54:55.017125,599618003326908288,-61.00
2025-12-25 12:54:55.017125,599618003326908288,-68.00
2025-12-25 12:54:55.017125,599618003326908288,-56.00
2025-12-25 12:54:55.017125,599618003326908288,-54.00
2025-12-25 12:54:55.017125,599618003326908288,-61.00
2025-12-25 12:54:55.017125,599618003326908288,-54.00
2025-12-25 12:54:55.017125,599618003326908288,-56.00
2025-12-25 12:54:55.017125,599618003326908288,-103.00
2025-12-25 12:54:55.017125,599618003326908288,-122.00
2025-12-25 12:54:55.017125,599618003326908288,216.00
2025-12-25 12:54:55.017125,599618003326908288,996.00
2025-12-25 12:54:55.017125,599618003326908288,1470.00
2025-12-25 12:54:55.017125,599618003326908288,866.00
2025-12-25 12:54:55.017125,599618003326908288,-249.00
2025-12-25 12:54:55.017125,599618003326908288,-539.00
2025-12-25 12:54:55.017125,599618003326908288,-94.00
2025-12-25 12:54:55.017125,599618003326908288,23.00
2025-12-25 12:54:55.017125,599618003326908288,-146.00
2025-12-25 12:54:55.017125,599618003326908288,-117.00
2025-12-25 12:54:55.017125,599618003326908288,-49.00
2025-12-25 12:54:55.017125,599618003326908288,-84.00
2025-12-25 12:54:55.017125,599618003326908288,-82.00
2025-12-25 12:54:55.017125,599618003326908288,-49.00
2025-12-25 12:54:55.017125,599618003326908288,-49.00
2025-12-25 12:54:55.017125,599618003326908288,-47.00
2025-12-25 12:54:55.017125,599618003326908288,-23.00
2025-12-25 12:54:55.017125,599618003326908288,-11.00
2025-12-25 12:54:55.017125,599618003326908288,-4.00
2025-12-25 12:54:55.017125,599618003326908288,7.00
2025-12-25 12:54:55.017125,599618003326908288,14.00
2025-12-25 12:54:55.017125,599618003326908288,30.00
2025-12-25 12:54:55.017125,599618003326908288,58.00
2025-12-25 12:54:55.017125,599618003326908288,77.00
2025-12-25 12:54:55.017125,599618003326908288,91.00
2025-12-25 12:54:55.017125,599618003326908288,115.00
2025-12-25 12:54:55.017125,599618003326908288,136.00
2025-12-25 12:54:55.017125,599618003326908288,150.00
2025-12-25 12:54:55.017125,599618003326908288,160.00
2025-12-25 12:54:55.017125,599618003326908288,162.00
2025-12-25 12:54:55.017125,599618003326908288,155.00
2025-12-25 12:54:55.017125,599618003326908288,141.00
2025-12-25 12:54:55.017125,599618003326908288,110.00
2025-12-25 12:54:55.017125,599618003326908288,58.00
2025-12-25 12:54:55.017125,599618003326908288,-7.00
2025-12-25 12:54:55.017125,599618003326908288,-65.00
2025-12-25 12:54:55.017125,599618003326908288,-110.00
2025-12-25 12:54:55.017125,599618003326908288,-146.00
2025-12-25 12:54:55.017125,599618003326908288,-179.00
2025-12-25 12:54:55.017125,599618003326908288,-195.00
2025-12-25 12:54:55.017125,599618003326908288,-190.00
2025-12-25 12:54:55.017125,599618003326908288,-190.00
2025-12-25 12:54:55.017125,599618003326908288,-190.00
2025-12-25 12:54:55.017125,599618003326908288,-183.00
2025-12-25 12:54:55.017125,599618003326908288,-171.00
2025-12-25 12:54:55.017125,599618003326908288,-160.00
2025-12-25 12:54:55.017125,599618003326908288,-139.00
2025-12-25 12:54:55.017125,599618003326908288,-129.00
2025-12-25 12:54:55.017125,599618003326908288,-148.00
2025-12-25 12:54:55.017125,599618003326908288,-157.00
2025-12-25 12:54:55.017125,599618003326908288,-136.00
2025-12-25 12:54:55.017125,599618003326908288,-117.00
2025-12-25 12:54:55.017125,599618003326908288,-113.00
2025-12-25 12:54:55.017125,599618003326908288,-115.00
2025-12-25 12:54:55.017125,599618003326908288,-113.00
2025-12-25 12:54:55.017125,599618003326908288,-101.00
2025-12-25 12:54:55.017125,599618003326908288,-96.00
2025-12-25 12:54:55.017125,599618003326908288,-113.00
2025-12-25 12:54:55.017125,599618003326908288,-122.00
2025-12-25 12:54:55.565128,599618003887752831,-113.00
2025-12-25 12:54:55.565128,599618003887752831,-108.00
2025-12-25 12:54:55.565128,599618003887752831,-101.00
2025-12-25 12:54:55.565128,599618003887752831,-89.00
2025-12-25 12:54:55.565128,599618003887752831,-91.00
2025-12-25 12:54:55.565128,599618003887752831,-96.00
2025-12-25 12:54:55.565128,599618003887752831,-94.00
2025-12-25 12:54:55.565128,599618003887752831,-87.00
2025-12-25 12:54:55.565128,599618003887752831,-77.00
2025-12-25 12:54:55.565128,599618003887752831,-61.00
2025-12-25 12:54:55.565128,599618003887752831,-56.00
2025-12-25 12:54:55.565128,599618003887752831,-80.00
2025-12-25 12:54:55.565128,599618003887752831,-77.00
2025-12-25 12:54:55.565128,599618003887752831,-42.00
2025-12-25 12:54:55.565128,599618003887752831,-49.00
2025-12-25 12:54:55.565128,599618003887752831,-80.00
2025-12-25 12:54:55.565128,599618003887752831,-58.00
2025-12-25 12:54:55.565128,599618003887752831,-47.00
2025-12-25 12:54:55.565128,599618003887752831,-87.00
2025-12-25 12:54:55.565128,599618003887752831,-87.00
2025-12-25 12:54:55.565128,599618003887752831,-65.00
2025-12-25 12:54:55.565128,599618003887752831,-75.00
2025-12-25 12:54:55.565128,599618003887752831,-44.00
2025-12-25 12:54:55.565128,599618003887752831,2.00
2025-12-25 12:54:55.565128,599618003887752831,-30.00
2025-12-25 12:54:55.565128,599618003887752831,-63.00
2025-12-25 12:54:55.565128,599618003887752831,-40.00
2025-12-25 12:54:55.565128,599618003887752831,-47.00
2025-12-25 12:54:55.565128,599618003887752831,-80.00
2025-12-25 12:54:55.565128,599618003887752831,-68.00
2025-12-25 12:54:55.565128,599618003887752831,-44.00
2025-12-25 12:54:55.565128,599618003887752831,-42.00
2025-12-25 12:54:55.565128,599618003887752831,-47.00
2025-12-25 12:54:55.565128,599618003887752831,-75.00
2025-12-25 12:54:55.565128,599618003887752831,-127.00
2025-12-25 12:54:55.565128,599618003887752831,28.00
2025-12-25 12:54:55.565128,599618003887752831,671.00
2025-12-25 12:54:55.565128,599618003887752831,1371.00
2025-12-25 12:54:55.565128,599618003887752831,1218.00
2025-12-25 12:54:55.565128,599618003887752831,183.00
2025-12-25 12:54:55.565128,599618003887752831,-534.00
2025-12-25 12:54:55.565128,599618003887752831,-301.00
2025-12-25 12:54:55.565128,599618003887752831,21.00
2025-12-25 12:54:55.565128,599618003887752831,-77.00
2025-12-25 12:54:55.565128,599618003887752831,-150.00
2025-12-25 12:54:55.565128,599618003887752831,-77.00
2025-12-25 12:54:55.565128,599618003887752831,-73.00
2025-12-25 12:54:55.565128,599618003887752831,-91.00
2025-12-25 12:54:55.565128,599618003887752831,-68.00
2025-12-25 12:54:55.565128,599618003887752831,-54.00
2025-12-25 12:54:55.565128,599618003887752831,-54.00
2025-12-25 12:54:55.565128,599618003887752831,-35.00
2025-12-25 12:54:55.565128,599618003887752831,-21.00
2025-12-25 12:54:55.565128,599618003887752831,-11.00
2025-12-25 12:54:55.565128,599618003887752831,-4.00
2025-12-25 12:54:55.565128,599618003887752831,4.00
2025-12-25 12:54:55.565128,599618003887752831,16.00
2025-12-25 12:54:55.565128,599618003887752831,14.00
2025-12-25 12:54:55.565128,599618003887752831,21.00
2025-12-25 12:54:55.565128,599618003887752831,94.00
2025-12-25 12:54:55.565128,599618003887752831,162.00
2025-12-25 12:54:55.565128,599618003887752831,148.00
2025-12-25 12:54:55.565128,599618003887752831,129.00
2025-12-25 12:54:55.565128,599618003887752831,141.00
2025-12-25 12:54:55.565128,599618003887752831,160.00
2025-12-25 12:54:55.565128,599618003887752831,150.00
2025-12-25 12:54:55.565128,599618003887752831,103.00
2025-12-25 12:54:55.565128,599618003887752831,94.00
2025-12-25 12:54:55.565128,599618003887752831,106.00
2025-12-25 12:54:55.565128,599618003887752831,32.00
2025-12-25 12:54:55.565128,599618003887752831,-23.00
2025-12-25 12:54:55.565128,599618003887752831,-23.00
2025-12-25 12:54:55.565128,599618003887752831,-98.00
2025-12-25 12:54:56.104351,599618004448607548,-174.00
2025-12-25 12:54:56.104351,599618004448607548,-164.00
2025-12-25 12:54:56.104351,599618004448607548,-164.00
2025-12-25 12:54:56.104351,599618004448607548,-190.00
2025-12-25 12:54:56.104351,599618004448607548,-183.00
2025-12-25 12:54:56.104351,599618004448607548,-160.00
2025-12-25 12:54:56.104351,599618004448607548,-155.00
2025-12-25 12:54:56.104351,599618004448607548,-146.00
2025-12-25 12:54:56.104351,599618004448607548,-141.00
2025-12-25 12:54:56.104351,599618004448607548,-160.00
2025-12-25 12:54:56.104351,599618004448607548,-146.00
2025-12-25 12:54:56.104351,599618004448607548,-108.00
2025-12-25 12:54:56.104351,599618004448607548,-117.00
2025-12-25 12:54:56.104351,599618004448607548,-120.00
2025-12-25 12:54:56.104351,599618004448607548,-82.00
2025-12-25 12:54:56.104351,599618004448607548,-75.00
2025-12-25 12:54:56.104351,599618004448607548,-94.00
2025-12-25 12:54:56.104351,599618004448607548,-106.00
2025-12-25 12:54:56.104351,599618004448607548,-103.00
2025-12-25 12:54:56.104351,599618004448607548,-89.00
2025-12-25 12:54:56.104351,599618004448607548,-84.00
2025-12-25 12:54:56.104351,599618004448607548,-84.00
2025-12-25 12:54:56.104351,599618004448607548,-80.00
2025-12-25 12:54:56.104351,599618004448607548,-75.00
2025-12-25 12:54:56.104351,599618004448607548,-68.00
2025-12-25 12:54:56.104351,599618004448607548,-75.00
2025-12-25 12:54:56.104351,599618004448607548,-84.00
2025-12-25 12:54:56.104351,599618004448607548,-82.00
2025-12-25 12:54:56.104351,599618004448607548,-68.00
2025-12-25 12:54:56.104351,599618004448607548,-65.00
2025-12-25 12:54:56.104351,599618004448607548,-77.00
2025-12-25 12:54:56.104351,599618004448607548,-75.00
2025-12-25 12:54:56.104351,599618004448607548,-73.00
2025-12-25 12:54:56.104351,599618004448607548,-94.00
2025-12-25 12:54:56.104351,599618004448607548,-96.00
2025-12-25 12:54:56.104351,599618004448607548,-61.00
2025-12-25 12:54:56.104351,599618004448607548,-56.00
2025-12-25 12:54:56.104351,599618004448607548,-84.00
2025-12-25 12:54:56.104351,599618004448607548,-89.00
2025-12-25 12:54:56.104351,599618004448607548,-84.00
2025-12-25 12:54:56.104351,599618004448607548,-98.00
2025-12-25 12:54:56.104351,599618004448607548,-87.00
2025-12-25 12:54:56.104351,599618004448607548,-54.00
2025-12-25 12:54:56.104351,599618004448607548,-37.00
2025-12-25 12:54:56.104351,599618004448607548,-23.00
2025-12-25 12:54:56.104351,599618004448607548,-11.00
2025-12-25 12:54:56.104351,599618004448607548,-28.00
2025-12-25 12:54:56.104351,599618004448607548,-70.00
2025-12-25 12:54:56.104351,599618004448607548,-91.00
2025-12-25 12:54:56.104351,599618004448607548,-82.00
2025-12-25 12:54:56.104351,599618004448607548,-63.00
2025-12-25 12:54:56.104351,599618004448607548,-25.00
2025-12-25 12:54:56.104351,599618004448607548,-30.00
2025-12-25 12:54:56.104351,599618004448607548,-75.00
2025-12-25 12:54:56.104351,599618004448607548,-91.00
2025-12-25 12:54:56.104351,599618004448607548,-146.00
2025-12-25 12:54:56.104351,599618004448607548,-30.00
2025-12-25 12:54:56.104351,599618004448607548,624.00
2025-12-25 12:54:56.104351,599618004448607548,1411.00
2025-12-25 12:54:56.104351,599618004448607548,1352.00
2025-12-25 12:54:56.104351,599618004448607548,306.00
2025-12-25 12:54:56.104351,599618004448607548,-523.00
2025-12-25 12:54:56.104351,599618004448607548,-336.00
2025-12-25 12:54:56.104351,599618004448607548,32.00
2025-12-25 12:54:56.104351,599618004448607548,-61.00
2025-12-25 12:54:56.104351,599618004448607548,-169.00
2025-12-25 12:54:56.104351,599618004448607548,-96.00
2025-12-25 12:54:56.104351,599618004448607548,-91.00
2025-12-25 12:54:56.104351,599618004448607548,-143.00
2025-12-25 12:54:56.104351,599618004448607548,-108.00
2025-12-25 12:54:56.104351,599618004448607548,-16.00
2025-12-25 12:54:56.104351,599618004448607548,-14.00
2025-12-25 12:54:56.104351,599618004448607548,-63.00
2025-12-25 12:54:56.794677,599618005009457183,-47.00
2025-12-25 12:54:56.794677,599618005009457183,-11.00
2025-12-25 12:54:56.794677,599618005009457183,-4.00
2025-12-25 12:54:56.794677,599618005009457183,14.00
2025-12-25 12:54:56.794677,599618005009457183,28.00
2025-12-25 12:54:56.794677,599618005009457183,25.00
2025-12-25 12:54:56.794677,599618005009457183,49.00
2025-12-25 12:54:56.794677,599618005009457183,87.00
2025-12-25 12:54:56.794677,599618005009457183,122.00
2025-12-25 12:54:56.794677,599618005009457183,150.00
2025-12-25 12:54:56.794677,599618005009457183,148.00
2025-12-25 12:54:56.794677,599618005009457183,146.00
2025-12-25 12:54:56.794677,599618005009457183,157.00
2025-12-25 12:54:56.794677,599618005009457183,160.00
2025-12-25 12:54:56.794677,599618005009457183,160.00
2025-12-25 12:54:56.794677,599618005009457183,141.00
2025-12-25 12:54:56.794677,599618005009457183,80.00
2025-12-25 12:54:56.794677,599618005009457183,23.00
2025-12-25 12:54:56.794677,599618005009457183,-18.00
2025-12-25 12:54:56.794677,599618005009457183,-89.00
2025-12-25 12:54:56.794677,599618005009457183,-148.00
2025-12-25 12:54:56.794677,599618005009457183,-146.00
2025-12-25 12:54:56.794677,599618005009457183,-148.00
2025-12-25 12:54:56.794677,599618005009457183,-190.00
2025-12-25 12:54:56.794677,599618005009457183,-200.00
2025-12-25 12:54:56.794677,599618005009457183,-176.00
2025-12-25 12:54:56.794677,599618005009457183,-181.00
2025-12-25 12:54:56.794677,599618005009457183,-181.00
2025-12-25 12:54:56.794677,599618005009457183,-171.00
2025-12-25 12:54:56.794677,599618005009457183,-167.00
2025-12-25 12:54:56.794677,599618005009457183,-157.00
2025-12-25 12:54:56.794677,599618005009457183,-160.00
2025-12-25 12:54:56.794677,599618005009457183,-153.00
2025-12-25 12:54:56.794677,599618005009457183,-124.00
2025-12-25 12:54:56.794677,599618005009457183,-115.00
2025-12-25 12:54:56.794677,599618005009457183,-136.00
2025-12-25 12:54:56.794677,599618005009457183,-141.00
2025-12-25 12:54:56.794677,599618005009457183,-122.00
2025-12-25 12:54:56.794677,599618005009457183,-110.00
2025-12-25 12:54:56.794677,599618005009457183,-117.00
2025-12-25 12:54:56.794677,599618005009457183,-129.00
2025-12-25 12:54:56.794677,599618005009457183,-131.00
2025-12-25 12:54:56.794677,599618005009457183,-117.00
2025-12-25 12:54:56.794677,599618005009457183,-108.00
2025-12-25 12:54:56.794677,599618005009457183,-113.00
2025-12-25 12:54:56.794677,599618005009457183,-106.00
2025-12-25 12:54:56.794677,599618005009457183,-108.00
2025-12-25 12:54:56.794677,599618005009457183,-124.00
2025-12-25 12:54:56.794677,599618005009457183,-106.00
2025-12-25 12:54:56.794677,599618005009457183,-77.00
2025-12-25 12:54:56.794677,599618005009457183,-94.00
2025-12-25 12:54:56.794677,599618005009457183,-110.00
2025-12-25 12:54:56.794677,599618005009457183,-103.00
2025-12-25 12:54:56.794677,599618005009457183,-106.00
2025-12-25 12:54:56.794677,599618005009457183,-120.00
2025-12-25 12:54:56.794677,599618005009457183,-101.00
2025-12-25 12:54:56.794677,599618005009457183,-65.00
2025-12-25 12:54:56.794677,599618005009457183,-73.00
2025-12-25 12:54:56.794677,599618005009457183,-94.00
2025-12-25 12:54:56.794677,599618005009457183,-80.00
2025-12-25 12:54:56.794677,599618005009457183,-73.00
2025-12-25 12:54:56.794677,599618005009457183,-94.00
2025-12-25 12:54:56.794677,599618005009457183,-108.00
2025-12-25 12:54:56.794677,599618005009457183,-94.00
2025-12-25 12:54:56.794677,599618005009457183,-80.00
2025-12-25 12:54:56.794677,599618005009457183,-70.00
2025-12-25 12:54:56.794677,599618005009457183,-35.00
2025-12-25 12:54:56.794677,599618005009457183,-7.00
2025-12-25 12:54:56.794677,599618005009457183,-32.00
2025-12-25 12:54:56.794677,599618005009457183,-73.00
2025-12-25 12:54:56.794677,599618005009457183,-82.00
2025-12-25 12:54:56.794677,599618005009457183,-82.00
2025-12-25 12:54:56.794677,599618005009457183,-89.00
2025-12-25 12:54:57.261003,599618005570306814,-73.00
2025-12-25 12:54:57.261003,599618005570306814,-61.00
2025-12-25 12:54:57.261003,599618005570306814,-91.00
2025-12-25 12:54:57.261003,599618005570306814,-134.00
2025-12-25 12:54:57.261003,599618005570306814,-108.00
2025-12-25 12:54:57.261003,599618005570306814,254.00
2025-12-25 12:54:57.261003,599618005570306814,1034.00
2025-12-25 12:54:57.261003,599618005570306814,1491.00
2025-12-25 12:54:57.261003,599618005570306814,850.00
2025-12-25 12:54:57.261003,599618005570306814,-249.00
2025-12-25 12:54:57.261003,599618005570306814,-508.00
2025-12-25 12:54:57.261003,599618005570306814,-94.00
2025-12-25 12:54:57.261003,599618005570306814,4.00
2025-12-25 12:54:57.261003,599618005570306814,-150.00
2025-12-25 12:54:57.261003,599618005570306814,-124.00
2025-12-25 12:54:57.261003,599618005570306814,-68.00
2025-12-25 12:54:57.261003,599618005570306814,-110.00
2025-12-25 12:54:57.261003,599618005570306814,-101.00
2025-12-25 12:54:57.261003,599618005570306814,-40.00
2025-12-25 12:54:57.261003,599618005570306814,-28.00
2025-12-25 12:54:57.261003,599618005570306814,-40.00
2025-12-25 12:54:57.261003,599618005570306814,-23.00
2025-12-25 12:54:57.261003,599618005570306814,-7.00
2025-12-25 12:54:57.261003,599618005570306814,0.00
2025-12-25 12:54:57.261003,599618005570306814,16.00
2025-12-25 12:54:57.261003,599618005570306814,40.00
2025-12-25 12:54:57.261003,599618005570306814,54.00
2025-12-25 12:54:57.261003,599618005570306814,58.00
2025-12-25 12:54:57.261003,599618005570306814,91.00
2025-12-25 12:54:57.261003,599618005570306814,146.00
2025-12-25 12:54:57.261003,599618005570306814,162.00
2025-12-25 12:54:57.261003,599618005570306814,157.00
2025-12-25 12:54:57.261003,599618005570306814,176.00
2025-12-25 12:54:57.261003,599618005570306814,190.00
2025-12-25 12:54:57.261003,599618005570306814,183.00
2025-12-25 12:54:57.261003,599618005570306814,183.00
2025-12-25 12:54:57.261003,599618005570306814,171.00
2025-12-25 12:54:57.261003,599618005570306814,131.00
2025-12-25 12:54:57.261003,599618005570306814,73.00
2025-12-25 12:54:57.261003,599618005570306814,9.00
2025-12-25 12:54:57.261003,599618005570306814,-49.00
2025-12-25 12:54:57.261003,599618005570306814,-98.00
2025-12-25 12:54:57.261003,599618005570306814,-134.00
2025-12-25 12:54:57.261003,599618005570306814,-153.00
2025-12-25 12:54:57.261003,599618005570306814,-171.00
2025-12-25 12:54:57.261003,599618005570306814,-188.00
2025-12-25 12:54:57.261003,599618005570306814,-179.00
2025-12-25 12:54:57.261003,599618005570306814,-167.00
2025-12-25 12:54:57.261003,599618005570306814,-164.00
2025-12-25 12:54:57.261003,599618005570306814,-162.00
2025-12-25 12:54:57.261003,599618005570306814,-157.00
2025-12-25 12:54:57.261003,599618005570306814,-153.00
2025-12-25 12:54:57.261003,599618005570306814,-143.00
2025-12-25 12:54:57.261003,599618005570306814,-136.00
2025-12-25 12:54:57.261003,599618005570306814,-129.00
2025-12-25 12:54:57.261003,599618005570306814,-120.00
2025-12-25 12:54:57.261003,599618005570306814,-122.00
2025-12-25 12:54:57.261003,599618005570306814,-127.00
2025-12-25 12:54:57.261003,599618005570306814,-117.00
2025-12-25 12:54:57.261003,599618005570306814,-110.00
2025-12-25 12:54:57.261003,599618005570306814,-110.00
2025-12-25 12:54:57.261003,599618005570306814,-103.00
2025-12-25 12:54:57.261003,599618005570306814,-96.00
2025-12-25 12:54:57.261003,599618005570306814,-98.00
2025-12-25 12:54:57.261003,599618005570306814,-101.00
2025-12-25 12:54:57.261003,599618005570306814,-96.00
2025-12-25 12:54:57.261003,599618005570306814,-89.00
2025-12-25 12:54:57.261003,599618005570306814,-87.00
2025-12-25 12:54:57.261003,599618005570306814,-91.00
2025-12-25 12:54:57.261003,599618005570306814,-98.00
2025-12-25 12:54:57.261003,599618005570306814,-98.00
2025-12-25 12:54:57.261003,599618005570306814,-89.00
2025-12-25 12:54:57.261003,599618005570306814,-75.00
2025-12-25 12:54:57.817026,599618006131141185,-70.00
2025-12-25 12:54:57.817026,599618006131141185,-75.00
2025-12-25 12:54:57.817026,599618006131141185,-84.00
2025-12-25 12:54:57.817026,599618006131141185,-106.00
2025-12-25 12:54:57.817026,599618006131141185,-87.00
2025-12-25 12:54:57.817026,599618006131141185,-32.00
2025-12-25 12:54:57.817026,599618006131141185,-42.00
2025-12-25 12:54:57.817026,599618006131141185,-77.00
2025-12-25 12:54:57.817026,599618006131141185,-70.00
2025-12-25 12:54:57.817026,599618006131141185,-61.00
2025-12-25 12:54:57.817026,599618006131141185,-68.00
2025-12-25 12:54:57.817026,599618006131141185,-65.00
2025-12-25 12:54:57.817026,599618006131141185,-91.00
2025-12-25 12:54:57.817026,599618006131141185,-103.00
2025-12-25 12:54:57.817026,599618006131141185,-32.00
2025-12-25 12:54:57.817026,599618006131141185,21.00
2025-12-25 12:54:57.817026,599618006131141185,-11.00
2025-12-25 12:54:57.817026,599618006131141185,-21.00
2025-12-25 12:54:57.817026,599618006131141185,-11.00
2025-12-25 12:54:57.817026,599618006131141185,-44.00
2025-12-25 12:54:57.817026,599618006131141185,-68.00
2025-12-25 12:54:57.817026,599618006131141185,-65.00
2025-12-25 12:54:57.817026,599618006131141185,-80.00
2025-12-25 12:54:57.817026,599618006131141185,-65.00
2025-12-25 12:54:57.817026,599618006131141185,-35.00
2025-12-25 12:54:57.817026,599618006131141185,-47.00
2025-12-25 12:54:57.817026,599618006131141185,-82.00
2025-12-25 12:54:57.817026,599618006131141185,-101.00
2025-12-25 12:54:57.817026,599618006131141185,179.00
2025-12-25 12:54:57.817026,599618006131141185,961.00
2025-12-25 12:54:57.817026,599618006131141185,1531.00
2025-12-25 12:54:57.817026,599618006131141185,982.00
2025-12-25 12:54:57.817026,599618006131141185,-186.00
2025-12-25 12:54:57.817026,599618006131141185,-574.00
2025-12-25 12:54:57.817026,599618006131141185,-157.00
2025-12-25 12:54:57.817026,599618006131141185,18.00
2025-12-25 12:54:57.817026,599618006131141185,-120.00
2025-12-25 12:54:57.817026,599618006131141185,-110.00
2025-12-25 12:54:57.817026,599618006131141185,-47.00
2025-12-25 12:54:57.817026,599618006131141185,-70.00
2025-12-25 12:54:57.817026,599618006131141185,-73.00
2025-12-25 12:54:57.817026,599618006131141185,-42.00
2025-12-25 12:54:57.817026,599618006131141185,-35.00
2025-12-25 12:54:57.817026,599618006131141185,-25.00
2025-12-25 12:54:57.817026,599618006131141185,-7.00
2025-12-25 12:54:57.817026,599618006131141185,-4.00
2025-12-25 12:54:57.817026,599618006131141185,9.00
2025-12-25 12:54:57.817026,599618006131141185,35.00
2025-12-25 12:54:57.817026,599618006131141185,49.00
2025-12-25 12:54:57.817026,599618006131141185,63.00
2025-12-25 12:54:57.817026,599618006131141185,91.00
2025-12-25 12:54:57.817026,599618006131141185,117.00
2025-12-25 12:54:57.817026,599618006131141185,136.00
2025-12-25 12:54:57.817026,599618006131141185,155.00
2025-12-25 12:54:57.817026,599618006131141185,167.00
2025-12-25 12:54:57.817026,599618006131141185,186.00
2025-12-25 12:54:57.817026,599618006131141185,200.00
2025-12-25 12:54:57.817026,599618006131141185,195.00
2025-12-25 12:54:57.817026,599618006131141185,179.00
2025-12-25 12:54:57.817026,599618006131141185,183.00
2025-12-25 12:54:57.817026,599618006131141185,174.00
2025-12-25 12:54:57.817026,599618006131141185,108.00
2025-12-25 12:54:57.817026,599618006131141185,23.00
2025-12-25 12:54:57.817026,599618006131141185,-47.00
2025-12-25 12:54:57.817026,599618006131141185,-96.00
2025-12-25 12:54:57.817026,599618006131141185,-129.00
2025-12-25 12:54:57.817026,599618006131141185,-150.00
2025-12-25 12:54:57.817026,599618006131141185,-167.00
2025-12-25 12:54:57.817026,599618006131141185,-176.00
2025-12-25 12:54:57.817026,599618006131141185,-174.00
2025-12-25 12:54:57.817026,599618006131141185,-171.00
2025-12-25 12:54:57.817026,599618006131141185,-167.00
2025-12-25 12:54:57.817026,599618006131141185,-157.00
2025-12-25 12:54:58.356599,599618006691995902,-160.00
2025-12-25 12:54:58.356599,599618006691995902,-155.00
2025-12-25 12:54:58.356599,599618006691995902,-139.00
2025-12-25 12:54:58.356599,599618006691995902,-129.00
2025-12-25 12:54:58.356599,599618006691995902,-127.00
2025-12-25 12:54:58.356599,599618006691995902,-122.00
2025-12-25 12:54:58.356599,599618006691995902,-117.00
2025-12-25 12:54:58.356599,599618006691995902,-108.00
2025-12-25 12:54:58.356599,599618006691995902,-96.00
2025-12-25 12:54:58.356599,599618006691995902,-91.00
2025-12-25 12:54:58.356599,599618006691995902,-94.00
2025-12-25 12:54:58.356599,599618006691995902,-91.00
2025-12-25 12:54:58.356599,599618006691995902,-87.00
2025-12-25 12:54:58.356599,599618006691995902,-84.00
2025-12-25 12:54:58.356599,599618006691995902,-84.00
2025-12-25 12:54:58.356599,599618006691995902,-82.00
2025-12-25 12:54:58.356599,599618006691995902,-80.00
2025-12-25 12:54:58.356599,599618006691995902,-80.00
2025-12-25 12:54:58.356599,599618006691995902,-82.00
2025-12-25 12:54:58.356599,599618006691995902,-82.00
2025-12-25 12:54:58.356599,599618006691995902,-80.00
2025-12-25 12:54:58.356599,599618006691995902,-84.00
2025-12-25 12:54:58.356599,599618006691995902,-89.00
2025-12-25 12:54:58.356599,599618006691995902,-80.00
2025-12-25 12:54:58.356599,599618006691995902,-70.00
2025-12-25 12:54:58.356599,599618006691995902,-75.00
2025-12-25 12:54:58.356599,599618006691995902,-82.00
2025-12-25 12:54:58.356599,599618006691995902,-75.00
2025-12-25 12:54:58.356599,599618006691995902,-65.00
2025-12-25 12:54:58.356599,599618006691995902,-70.00
2025-12-25 12:54:58.356599,599618006691995902,-80.00
2025-12-25 12:54:58.356599,599618006691995902,-80.00
2025-12-25 12:54:58.356599,599618006691995902,-68.00
2025-12-25 12:54:58.356599,599618006691995902,-51.00
2025-12-25 12:54:58.356599,599618006691995902,-35.00
2025-12-25 12:54:58.356599,599618006691995902,-25.00
2025-12-25 12:54:58.356599,599618006691995902,-32.00
2025-12-25 12:54:58.356599,599618006691995902,-56.00
2025-12-25 12:54:58.356599,599618006691995902,-68.00
2025-12-25 12:54:58.356599,599618006691995902,-70.00
2025-12-25 12:54:58.356599,599618006691995902,-73.00
2025-12-25 12:54:58.356599,599618006691995902,-73.00
2025-12-25 12:54:58.356599,599618006691995902,-63.00
2025-12-25 12:54:58.356599,599618006691995902,-68.00
2025-12-25 12:54:58.356599,599618006691995902,-110.00
2025-12-25 12:54:58.356599,599618006691995902,-143.00
2025-12-25 12:54:58.356599,599618006691995902,183.00
2025-12-25 12:54:58.356599,599618006691995902,996.00
2025-12-25 12:54:58.356599,599618006691995902,1519.00
2025-12-25 12:54:58.356599,599618006691995902,907.00
2025-12-25 12:54:58.356599,599618006691995902,-259.00
2025-12-25 12:54:58.356599,599618006691995902,-598.00
2025-12-25 12:54:58.356599,599618006691995902,-186.00
2025-12-25 12:54:58.356599,599618006691995902,-25.00
2025-12-25 12:54:58.356599,599618006691995902,-129.00
2025-12-25 12:54:58.356599,599618006691995902,-110.00
2025-12-25 12:54:58.356599,599618006691995902,-63.00
2025-12-25 12:54:58.356599,599618006691995902,-77.00
2025-12-25 12:54:58.356599,599618006691995902,-68.00
2025-12-25 12:54:58.356599,599618006691995902,-44.00
2025-12-25 12:54:58.356599,599618006691995902,-42.00
2025-12-25 12:54:58.356599,599618006691995902,-28.00
2025-12-25 12:54:58.356599,599618006691995902,-4.00
2025-12-25 12:54:58.356599,599618006691995902,7.00
2025-12-25 12:54:58.356599,599618006691995902,14.00
2025-12-25 12:54:58.356599,599618006691995902,28.00
2025-12-25 12:54:58.356599,599618006691995902,44.00
2025-12-25 12:54:58.356599,599618006691995902,61.00
2025-12-25 12:54:58.356599,599618006691995902,80.00
2025-12-25 12:54:58.356599,599618006691995902,103.00
2025-12-25 12:54:58.356599,599618006691995902,124.00
2025-12-25 12:54:58.356599,599618006691995902,148.00
2025-12-25 12:54:58.356599,599618006691995902,171.00
2025-12-25 12:54:58.999266,599618007252850619,186.00
2025-12-25 12:54:58.999266,599618007252850619,188.00
2025-12-25 12:54:58.999266,599618007252850619,190.00
2025-12-25 12:54:58.999266,599618007252850619,188.00
2025-12-25 12:54:58.999266,599618007252850619,167.00
2025-12-25 12:54:58.999266,599618007252850619,127.00
2025-12-25 12:54:58.999266,599618007252850619,68.00
2025-12-25 12:54:58.999266,599618007252850619,-11.00
2025-12-25 12:54:58.999266,599618007252850619,-77.00
2025-12-25 12:54:58.999266,599618007252850619,-122.00
2025-12-25 12:54:58.999266,599618007252850619,-160.00
2025-12-25 12:54:58.999266,599618007252850619,-188.00
2025-12-25 12:54:58.999266,599618007252850619,-197.00
2025-12-25 12:54:58.999266,599618007252850619,-200.00
2025-12-25 12:54:58.999266,599618007252850619,-202.00
2025-12-25 12:54:58.999266,599618007252850619,-200.00
2025-12-25 12:54:58.999266,599618007252850619,-190.00
2025-12-25 12:54:58.999266,599618007252850619,-183.00
2025-12-25 12:54:58.999266,599618007252850619,-179.00
2025-12-25 12:54:58.999266,599618007252850619,-174.00
2025-12-25 12:54:58.999266,599618007252850619,-167.00
2025-12-25 12:54:58.999266,599618007252850619,-157.00
2025-12-25 12:54:58.999266,599618007252850619,-150.00
2025-12-25 12:54:58.999266,599618007252850619,-143.00
2025-12-25 12:54:58.999266,599618007252850619,-139.00
2025-12-25 12:54:58.999266,599618007252850619,-134.00
2025-12-25 12:54:58.999266,599618007252850619,-127.00
2025-12-25 12:54:58.999266,599618007252850619,-120.00
2025-12-25 12:54:58.999266,599618007252850619,-115.00
2025-12-25 12:54:58.999266,599618007252850619,-113.00
2025-12-25 12:54:58.999266,599618007252850619,-110.00
2025-12-25 12:54:58.999266,599618007252850619,-106.00
2025-12-25 12:54:58.999266,599618007252850619,-106.00
2025-12-25 12:54:58.999266,599618007252850619,-108.00
2025-12-25 12:54:58.999266,599618007252850619,-103.00
2025-12-25 12:54:58.999266,599618007252850619,-103.00
2025-12-25 12:54:58.999266,599618007252850619,-108.00
2025-12-25 12:54:58.999266,599618007252850619,-108.00
2025-12-25 12:54:58.999266,599618007252850619,-108.00
2025-12-25 12:54:58.999266,599618007252850619,-108.00
2025-12-25 12:54:58.999266,599618007252850619,-108.00
2025-12-25 12:54:58.999266,599618007252850619,-103.00
2025-12-25 12:54:58.999266,599618007252850619,-103.00
2025-12-25 12:54:58.999266,599618007252850619,-106.00
2025-12-25 12:54:58.999266,599618007252850619,-103.00
2025-12-25 12:54:58.999266,599618007252850619,-101.00
2025-12-25 12:54:58.999266,599618007252850619,-98.00
2025-12-25 12:54:58.999266,599618007252850619,-94.00
2025-12-25 12:54:58.999266,599618007252850619,-96.00
2025-12-25 12:54:58.999266,599618007252850619,-101.00
2025-12-25 12:54:58.999266,599618007252850619,-101.00
2025-12-25 12:54:58.999266,599618007252850619,-89.00
2025-12-25 12:54:58.999266,599618007252850619,-77.00
2025-12-25 12:54:58.999266,599618007252850619,-58.00
2025-12-25 12:54:58.999266,599618007252850619,-40.00
2025-12-25 12:54:58.999266,599618007252850619,-32.00
2025-12-25 12:54:58.999266,599618007252850619,-49.00
2025-12-25 12:54:58.999266,599618007252850619,-70.00
2025-12-25 12:54:58.999266,599618007252850619,-77.00
2025-12-25 12:54:58.999266,599618007252850619,-73.00
2025-12-25 12:54:58.999266,599618007252850619,-75.00
2025-12-25 12:54:58.999266,599618007252850619,-75.00
2025-12-25 12:54:58.999266,599618007252850619,-70.00
2025-12-25 12:54:58.999266,599618007252850619,-87.00
2025-12-25 12:54:58.999266,599618007252850619,-150.00
2025-12-25 12:54:58.999266,599618007252850619,-87.00
2025-12-25 12:54:58.999266,599618007252850619,478.00
2025-12-25 12:54:58.999266,599618007252850619,1316.00
2025-12-25 12:54:58.999266,599618007252850619,1479.00
2025-12-25 12:54:58.999266,599618007252850619,539.00
2025-12-25 12:54:58.999266,599618007252850619,-471.00
2025-12-25 12:54:58.999266,599618007252850619,-442.00
2025-12-25 12:54:58.999266,599618007252850619,-9.00
2025-12-25 12:54:59.638489,599618007813705336,-58.00
2025-12-25 12:54:59.638489,599618007813705336,-197.00
2025-12-25 12:54:59.638489,599618007813705336,-108.00
2025-12-25 12:54:59.638489,599618007813705336,-77.00
2025-12-25 12:54:59.638489,599618007813705336,-122.00
2025-12-25 12:54:59.638489,599618007813705336,-96.00
2025-12-25 12:54:59.638489,599618007813705336,-65.00
2025-12-25 12:54:59.638489,599618007813705336,-70.00
2025-12-25 12:54:59.638489,599618007813705336,-54.00
2025-12-25 12:54:59.638489,599618007813705336,-23.00
2025-12-25 12:54:59.638489,599618007813705336,-11.00
2025-12-25 12:54:59.638489,599618007813705336,-2.00
2025-12-25 12:54:59.638489,599618007813705336,16.00
2025-12-25 12:54:59.638489,599618007813705336,35.00
2025-12-25 12:54:59.638489,599618007813705336,56.00
2025-12-25 12:54:59.638489,599618007813705336,80.00
2025-12-25 12:54:59.638489,599618007813705336,103.00
2025-12-25 12:54:59.638489,599618007813705336,129.00
2025-12-25 12:54:59.638489,599618007813705336,155.00
2025-12-25 12:54:59.638489,599618007813705336,176.00
2025-12-25 12:54:59.638489,599618007813705336,197.00
2025-12-25 12:54:59.638489,599618007813705336,209.00
2025-12-25 12:54:59.638489,599618007813705336,212.00
2025-12-25 12:54:59.638489,599618007813705336,200.00
2025-12-25 12:54:59.638489,599618007813705336,176.00
2025-12-25 12:54:59.638489,599618007813705336,124.00
2025-12-25 12:54:59.638489,599618007813705336,49.00
2025-12-25 12:54:59.638489,599618007813705336,-25.00
2025-12-25 12:54:59.638489,599618007813705336,-89.00
2025-12-25 12:54:59.638489,599618007813705336,-139.00
2025-12-25 12:54:59.638489,599618007813705336,-174.00
2025-12-25 12:54:59.638489,599618007813705336,-195.00
2025-12-25 12:54:59.638489,599618007813705336,-204.00
2025-12-25 12:54:59.638489,599618007813705336,-209.00
2025-12-25 12:54:59.638489,599618007813705336,-207.00
2025-12-25 12:54:59.638489,599618007813705336,-200.00
2025-12-25 12:54:59.638489,599618007813705336,-195.00
2025-12-25 12:54:59.638489,599618007813705336,-190.00
2025-12-25 12:54:59.638489,599618007813705336,-181.00
2025-12-25 12:54:59.638489,599618007813705336,-176.00
2025-12-25 12:54:59.638489,599618007813705336,-171.00
2025-12-25 12:54:59.638489,599618007813705336,-164.00
2025-12-25 12:54:59.638489,599618007813705336,-157.00
2025-12-25 12:54:59.638489,599618007813705336,-146.00
2025-12-25 12:54:59.638489,599618007813705336,-136.00
2025-12-25 12:54:59.638489,599618007813705336,-131.00
2025-12-25 12:54:59.638489,599618007813705336,-131.00
2025-12-25 12:54:59.638489,599618007813705336,-127.00
2025-12-25 12:54:59.638489,599618007813705336,-124.00
2025-12-25 12:54:59.638489,599618007813705336,-122.00
2025-12-25 12:54:59.638489,599618007813705336,-120.00
2025-12-25 12:54:59.638489,599618007813705336,-117.00
2025-12-25 12:54:59.638489,599618007813705336,-113.00
2025-12-25 12:54:59.638489,599618007813705336,-113.00
2025-12-25 12:54:59.638489,599618007813705336,-113.00
2025-12-25 12:54:59.638489,599618007813705336,-110.00
2025-12-25 12:54:59.638489,599618007813705336,-108.00
2025-12-25 12:54:59.638489,599618007813705336,-108.00
2025-12-25 12:54:59.638489,599618007813705336,-108.00
2025-12-25 12:54:59.638489,599618007813705336,-106.00
2025-12-25 12:54:59.638489,599618007813705336,-103.00
2025-12-25 12:54:59.638489,599618007813705336,-101.00
2025-12-25 12:54:59.638489,599618007813705336,-101.00
2025-12-25 12:54:59.638489,599618007813705336,-101.00
2025-12-25 12:54:59.638489,599618007813705336,-98.00
2025-12-25 12:54:59.638489,599618007813705336,-96.00
2025-12-25 12:54:59.638489,599618007813705336,-96.00
2025-12-25 12:54:59.638489,599618007813705336,-94.00
2025-12-25 12:54:59.638489,599618007813705336,-91.00
2025-12-25 12:54:59.638489,599618007813705336,-89.00
2025-12-25 12:54:59.638489,599618007813705336,-89.00
2025-12-25 12:54:59.638489,599618007813705336,-89.00
2025-12-25 12:54:59.638489,599618007813705336,-87.00
2025-12-25 12:55:00.063555,599618008374554971,-87.00
2025-12-25 12:55:00.063555,599618008374554971,-89.00
2025-12-25 12:55:00.063555,599618008374554971,-94.00
2025-12-25 12:55:00.063555,599618008374554971,-87.00
2025-12-25 12:55:00.063555,599618008374554971,-63.00
2025-12-25 12:55:00.063555,599618008374554971,-40.00
2025-12-25 12:55:00.063555,599618008374554971,-30.00
2025-12-25 12:55:00.063555,599618008374554971,-30.00
2025-12-25 12:55:00.063555,599618008374554971,-44.00
2025-12-25 12:55:00.063555,599618008374554971,-65.00
2025-12-25 12:55:00.063555,599618008374554971,-73.00
2025-12-25 12:55:00.063555,599618008374554971,-68.00
2025-12-25 12:55:00.063555,599618008374554971,-68.00
2025-12-25 12:55:00.063555,599618008374554971,-68.00
2025-12-25 12:55:00.063555,599618008374554971,-63.00
2025-12-25 12:55:00.063555,599618008374554971,-80.00
2025-12-25 12:55:00.063555,599618008374554971,-148.00
2025-12-25 12:55:00.063555,599618008374554971,-73.00
2025-12-25 12:55:00.063555,599618008374554971,511.00
2025-12-25 12:55:00.063555,599618008374554971,1359.00
2025-12-25 12:55:00.063555,599618008374554971,1538.00
2025-12-25 12:55:00.063555,599618008374554971,603.00
2025-12-25 12:55:00.063555,599618008374554971,-438.00
2025-12-25 12:55:00.063555,599618008374554971,-414.00
2025-12-25 12:55:00.063555,599618008374554971,35.00
2025-12-25 12:55:00.063555,599618008374554971,-35.00
2025-12-25 12:55:00.063555,599618008374554971,-193.00
2025-12-25 12:55:00.063555,599618008374554971,-96.00
2025-12-25 12:55:00.063555,599618008374554971,-65.00
2025-12-25 12:55:00.063555,599618008374554971,-117.00
2025-12-25 12:55:00.063555,599618008374554971,-87.00
2025-12-25 12:55:00.063555,599618008374554971,-51.00
2025-12-25 12:55:00.063555,599618008374554971,-58.00
2025-12-25 12:55:00.063555,599618008374554971,-47.00
2025-12-25 12:55:00.063555,599618008374554971,-23.00
2025-12-25 12:55:00.063555,599618008374554971,-16.00
2025-12-25 12:55:00.063555,599618008374554971,0.00
2025-12-25 12:55:00.063555,599618008374554971,21.00
2025-12-25 12:55:00.063555,599618008374554971,32.00
2025-12-25 12:55:00.063555,599618008374554971,49.00
2025-12-25 12:55:00.063555,599618008374554971,75.00
2025-12-25 12:55:00.063555,599618008374554971,98.00
2025-12-25 12:55:00.063555,599618008374554971,120.00
2025-12-25 12:55:00.063555,599618008374554971,146.00
2025-12-25 12:55:00.063555,599618008374554971,167.00
2025-12-25 12:55:00.063555,599618008374554971,186.00
2025-12-25 12:55:00.063555,599618008374554971,200.00
2025-12-25 12:55:00.063555,599618008374554971,204.00
2025-12-25 12:55:00.063555,599618008374554971,197.00
2025-12-25 12:55:00.063555,599618008374554971,171.00
2025-12-25 12:55:00.063555,599618008374554971,127.00
2025-12-25 12:55:00.063555,599618008374554971,58.00
2025-12-25 12:55:00.063555,599618008374554971,-21.00
2025-12-25 12:55:00.063555,599618008374554971,-89.00
2025-12-25 12:55:00.063555,599618008374554971,-139.00
2025-12-25 12:55:00.063555,599618008374554971,-176.00
2025-12-25 12:55:00.063555,599618008374554971,-202.00
2025-12-25 12:55:00.063555,599618008374554971,-214.00
2025-12-25 12:55:00.063555,599618008374554971,-214.00
2025-12-25 12:55:00.063555,599618008374554971,-209.00
2025-12-25 12:55:00.063555,599618008374554971,-207.00
2025-12-25 12:55:00.063555,599618008374554971,-202.00
2025-12-25 12:55:00.063555,599618008374554971,-195.00
2025-12-25 12:55:00.063555,599618008374554971,-188.00
2025-12-25 12:55:00.063555,599618008374554971,-181.00
2025-12-25 12:55:00.063555,599618008374554971,-171.00
2025-12-25 12:55:00.063555,599618008374554971,-164.00
2025-12-25 12:55:00.063555,599618008374554971,-160.00
2025-12-25 12:55:00.063555,599618008374554971,-153.00
2025-12-25 12:55:00.063555,599618008374554971,-150.00
2025-12-25 12:55:00.063555,599618008374554971,-150.00
2025-12-25 12:55:00.063555,599618008374554971,-148.00
2025-12-25 12:55:00.063555,599618008374554971,-136.00
2025-12-25 12:55:00.696886,599618008935404602,-129.00
2025-12-25 12:55:00.696886,599618008935404602,-131.00
2025-12-25 12:55:00.696886,599618008935404602,-131.00
2025-12-25 12:55:00.696886,599618008935404602,-127.00
2025-12-25 12:55:00.696886,599618008935404602,-127.00
2025-12-25 12:55:00.696886,599618008935404602,-127.00
2025-12-25 12:55:00.696886,599618008935404602,-124.00
2025-12-25 12:55:00.696886,599618008935404602,-122.00
2025-12-25 12:55:00.696886,599618008935404602,-117.00
2025-12-25 12:55:00.696886,599618008935404602,-106.00
2025-12-25 12:55:00.696886,599618008935404602,-103.00
2025-12-25 12:55:00.696886,599618008935404602,-106.00
2025-12-25 12:55:00.696886,599618008935404602,-108.00
2025-12-25 12:55:00.696886,599618008935404602,-103.00
2025-12-25 12:55:00.696886,599618008935404602,-96.00
2025-12-25 12:55:00.696886,599618008935404602,-96.00
2025-12-25 12:55:00.696886,599618008935404602,-96.00
2025-12-25 12:55:00.696886,599618008935404602,-96.00
2025-12-25 12:55:00.696886,599618008935404602,-98.00
2025-12-25 12:55:00.696886,599618008935404602,-98.00
2025-12-25 12:55:00.696886,599618008935404602,-91.00
2025-12-25 12:55:00.696886,599618008935404602,-89.00
2025-12-25 12:55:00.696886,599618008935404602,-91.00
2025-12-25 12:55:00.696886,599618008935404602,-84.00
2025-12-25 12:55:00.696886,599618008935404602,-82.00
2025-12-25 12:55:00.696886,599618008935404602,-82.00
2025-12-25 12:55:00.696886,599618008935404602,-80.00
2025-12-25 12:55:00.696886,599618008935404602,-77.00
2025-12-25 12:55:00.696886,599618008935404602,-75.00
2025-12-25 12:55:00.696886,599618008935404602,-73.00
2025-12-25 12:55:00.696886,599618008935404602,-75.00
2025-12-25 12:55:00.696886,599618008935404602,-75.00
2025-12-25 12:55:00.696886,599618008935404602,-65.00
2025-12-25 12:55:00.696886,599618008935404602,-61.00
2025-12-25 12:55:00.696886,599618008935404602,-70.00
2025-12-25 12:55:00.696886,599618008935404602,-80.00
2025-12-25 12:55:00.696886,599618008935404602,-70.00
2025-12-25 12:55:00.696886,599618008935404602,-49.00
2025-12-25 12:55:00.696886,599618008935404602,-35.00
2025-12-25 12:55:00.696886,599618008935404602,-30.00
2025-12-25 12:55:00.696886,599618008935404602,-37.00
2025-12-25 12:55:00.696886,599618008935404602,-56.00
2025-12-25 12:55:00.696886,599618008935404602,-73.00
2025-12-25 12:55:00.696886,599618008935404602,-75.00
2025-12-25 12:55:00.696886,599618008935404602,-70.00
2025-12-25 12:55:00.696886,599618008935404602,-70.00
2025-12-25 12:55:00.696886,599618008935404602,-65.00
2025-12-25 12:55:00.696886,599618008935404602,-58.00
2025-12-25 12:55:00.696886,599618008935404602,-84.00
2025-12-25 12:55:00.696886,599618008935404602,-153.00
2025-12-25 12:55:00.696886,599618008935404602,4.00
2025-12-25 12:55:00.696886,599618008935404602,690.00
2025-12-25 12:55:00.696886,599618008935404602,1465.00
2025-12-25 12:55:00.696886,599618008935404602,1375.00
2025-12-25 12:55:00.696886,599618008935404602,287.00
2025-12-25 12:55:00.696886,599618008935404602,-548.00
2025-12-25 12:55:00.696886,599618008935404602,-313.00
2025-12-25 12:55:00.696886,599618008935404602,44.00
2025-12-25 12:55:00.696886,599618008935404602,-106.00
2025-12-25 12:55:00.696886,599618008935404602,-197.00
2025-12-25 12:55:00.696886,599618008935404602,-84.00
2025-12-25 12:55:00.696886,599618008935404602,-84.00
2025-12-25 12:55:00.696886,599618008935404602,-122.00
2025-12-25 12:55:00.696886,599618008935404602,-80.00
2025-12-25 12:55:00.696886,599618008935404602,-58.00
2025-12-25 12:55:00.696886,599618008935404602,-65.00
2025-12-25 12:55:00.696886,599618008935404602,-51.00
2025-12-25 12:55:00.696886,599618008935404602,-28.00
2025-12-25 12:55:00.696886,599618008935404602,-21.00
2025-12-25 12:55:00.696886,599618008935404602,-9.00
2025-12-25 12:55:00.696886,599618008935404602,7.00
2025-12-25 12:55:00.696886,599618008935404602,23.00
2025-12-25 12:55:00.696886,599618008935404602,42.00
2025-12-25 12:55:01.245190,599618009496238973,63.00
2025-12-25 12:55:01.245190,599618009496238973,84.00
2025-12-25 12:55:01.245190,599618009496238973,103.00
2025-12-25 12:55:01.245190,599618009496238973,124.00
2025-12-25 12:55:01.245190,599618009496238973,146.00
2025-12-25 12:55:01.245190,599618009496238973,164.00
2025-12-25 12:55:01.245190,599618009496238973,176.00
2025-12-25 12:55:01.245190,599618009496238973,179.00
2025-12-25 12:55:01.245190,599618009496238973,171.00
2025-12-25 12:55:01.245190,599618009496238973,153.00
2025-12-25 12:55:01.245190,599618009496238973,106.00
2025-12-25 12:55:01.245190,599618009496238973,44.00
2025-12-25 12:55:01.245190,599618009496238973,-21.00
2025-12-25 12:55:01.245190,599618009496238973,-82.00
2025-12-25 12:55:01.245190,599618009496238973,-134.00
2025-12-25 12:55:01.245190,599618009496238973,-164.00
2025-12-25 12:55:01.245190,599618009496238973,-183.00
2025-12-25 12:55:01.245190,599618009496238973,-195.00
2025-12-25 12:55:01.245190,599618009496238973,-193.00
2025-12-25 12:55:01.245190,599618009496238973,-188.00
2025-12-25 12:55:01.245190,599618009496238973,-186.00
2025-12-25 12:55:01.245190,599618009496238973,-176.00
2025-12-25 12:55:01.245190,599618009496238973,-162.00
2025-12-25 12:55:01.245190,599618009496238973,-157.00
2025-12-25 12:55:01.245190,599618009496238973,-155.00
2025-12-25 12:55:01.245190,599618009496238973,-148.00
2025-12-25 12:55:01.245190,599618009496238973,-143.00
2025-12-25 12:55:01.245190,599618009496238973,-143.00
2025-12-25 12:55:01.245190,599618009496238973,-136.00
2025-12-25 12:55:01.245190,599618009496238973,-131.00
2025-12-25 12:55:01.245190,599618009496238973,-129.00
2025-12-25 12:55:01.245190,599618009496238973,-122.00
2025-12-25 12:55:01.245190,599618009496238973,-122.00
2025-12-25 12:55:01.245190,599618009496238973,-124.00
2025-12-25 12:55:01.245190,599618009496238973,-124.00
2025-12-25 12:55:01.245190,599618009496238973,-122.00
2025-12-25 12:55:01.245190,599618009496238973,-120.00
2025-12-25 12:55:01.245190,599618009496238973,-110.00
2025-12-25 12:55:01.245190,599618009496238973,-108.00
2025-12-25 12:55:01.245190,599618009496238973,-115.00
2025-12-25 12:55:01.245190,599618009496238973,-113.00
2025-12-25 12:55:01.245190,599618009496238973,-108.00
2025-12-25 12:55:01.245190,599618009496238973,-108.00
2025-12-25 12:55:01.245190,599618009496238973,-110.00
2025-12-25 12:55:01.245190,599618009496238973,-108.00
2025-12-25 12:55:01.245190,599618009496238973,-103.00
2025-12-25 12:55:01.245190,599618009496238973,-103.00
2025-12-25 12:55:01.245190,599618009496238973,-103.00
2025-12-25 12:55:01.245190,599618009496238973,-98.00
2025-12-25 12:55:01.245190,599618009496238973,-96.00
2025-12-25 12:55:01.245190,599618009496238973,-96.00
2025-12-25 12:55:01.245190,599618009496238973,-98.00
2025-12-25 12:55:01.245190,599618009496238973,-96.00
2025-12-25 12:55:01.245190,599618009496238973,-89.00
2025-12-25 12:55:01.245190,599618009496238973,-87.00
2025-12-25 12:55:01.245190,599618009496238973,-87.00
2025-12-25 12:55:01.245190,599618009496238973,-87.00
2025-12-25 12:55:01.245190,599618009496238973,-87.00
2025-12-25 12:55:01.245190,599618009496238973,-87.00
2025-12-25 12:55:01.245190,599618009496238973,-87.00
2025-12-25 12:55:01.245190,599618009496238973,-84.00
2025-12-25 12:55:01.245190,599618009496238973,-82.00
2025-12-25 12:55:01.245190,599618009496238973,-82.00
2025-12-25 12:55:01.245190,599618009496238973,-84.00
2025-12-25 12:55:01.245190,599618009496238973,-80.00
2025-12-25 12:55:01.245190,599618009496238973,-77.00
2025-12-25 12:55:01.245190,599618009496238973,-77.00
2025-12-25 12:55:01.245190,599618009496238973,-77.00
2025-12-25 12:55:01.245190,599618009496238973,-75.00
2025-12-25 12:55:01.245190,599618009496238973,-73.00
2025-12-25 12:55:01.245190,599618009496238973,-63.00
2025-12-25 12:55:01.245190,599618009496238973,-63.00
2025-12-25 12:55:01.245190,599618009496238973,-70.00
2025-12-25 12:55:02.062424,599618010057073346,-73.00
2025-12-25 12:55:02.062424,599618010057073346,-75.00
2025-12-25 12:55:02.062424,599618010057073346,-65.00
2025-12-25 12:55:02.062424,599618010057073346,-40.00
2025-12-25 12:55:02.062424,599618010057073346,-23.00
2025-12-25 12:55:02.062424,599618010057073346,-28.00
2025-12-25 12:55:02.062424,599618010057073346,-32.00
2025-12-25 12:55:02.062424,599618010057073346,-42.00
2025-12-25 12:55:02.062424,599618010057073346,-61.00
2025-12-25 12:55:02.062424,599618010057073346,-58.00
2025-12-25 12:55:02.062424,599618010057073346,-47.00
2025-12-25 12:55:02.062424,599618010057073346,-44.00
2025-12-25 12:55:02.062424,599618010057073346,-37.00
2025-12-25 12:55:02.062424,599618010057073346,-28.00
2025-12-25 12:55:02.062424,599618010057073346,-44.00
2025-12-25 12:55:02.062424,599618010057073346,-106.00
2025-12-25 12:55:02.062424,599618010057073346,16.00
2025-12-25 12:55:02.062424,599618010057073346,654.00
2025-12-25 12:55:02.062424,599618010057073346,1455.00
2025-12-25 12:55:02.062424,599618010057073346,1460.00
2025-12-25 12:55:02.062424,599618010057073346,419.00
2025-12-25 12:55:02.062424,599618010057073346,-478.00
2025-12-25 12:55:02.062424,599618010057073346,-318.00
2025-12-25 12:55:02.062424,599618010057073346,65.00
2025-12-25 12:55:02.062424,599618010057073346,-49.00
2025-12-25 12:55:02.062424,599618010057073346,-164.00
2025-12-25 12:55:02.062424,599618010057073346,-68.00
2025-12-25 12:55:02.062424,599618010057073346,-58.00
2025-12-25 12:55:02.062424,599618010057073346,-96.00
2025-12-25 12:55:02.062424,599618010057073346,-65.00
2025-12-25 12:55:02.062424,599618010057073346,-44.00
2025-12-25 12:55:02.062424,599618010057073346,-51.00
2025-12-25 12:55:02.062424,599618010057073346,-37.00
2025-12-25 12:55:02.062424,599618010057073346,-18.00
2025-12-25 12:55:02.062424,599618010057073346,-14.00
2025-12-25 12:55:02.062424,599618010057073346,-4.00
2025-12-25 12:55:02.062424,599618010057073346,14.00
2025-12-25 12:55:02.062424,599618010057073346,28.00
2025-12-25 12:55:02.062424,599618010057073346,42.00
2025-12-25 12:55:02.062424,599618010057073346,63.00
2025-12-25 12:55:02.062424,599618010057073346,82.00
2025-12-25 12:55:02.062424,599618010057073346,101.00
2025-12-25 12:55:02.062424,599618010057073346,122.00
2025-12-25 12:55:02.062424,599618010057073346,143.00
2025-12-25 12:55:02.062424,599618010057073346,160.00
2025-12-25 12:55:02.062424,599618010057073346,169.00
2025-12-25 12:55:02.062424,599618010057073346,171.00
2025-12-25 12:55:02.062424,599618010057073346,167.00
2025-12-25 12:55:02.062424,599618010057073346,150.00
2025-12-25 12:55:02.062424,599618010057073346,110.00
2025-12-25 12:55:02.062424,599618010057073346,49.00
2025-12-25 12:55:02.062424,599618010057073346,-21.00
2025-12-25 12:55:02.062424,599618010057073346,-84.00
2025-12-25 12:55:02.062424,599618010057073346,-136.00
2025-12-25 12:55:02.062424,599618010057073346,-171.00
2025-12-25 12:55:02.062424,599618010057073346,-195.00
2025-12-25 12:55:02.062424,599618010057073346,-209.00
2025-12-25 12:55:02.062424,599618010057073346,-214.00
2025-12-25 12:55:02.062424,599618010057073346,-214.00
2025-12-25 12:55:02.062424,599618010057073346,-209.00
2025-12-25 12:55:02.062424,599618010057073346,-204.00
2025-12-25 12:55:02.062424,599618010057073346,-197.00
2025-12-25 12:55:02.062424,599618010057073346,-190.00
2025-12-25 12:55:02.062424,599618010057073346,-186.00
2025-12-25 12:55:02.062424,599618010057073346,-181.00
2025-12-25 12:55:02.062424,599618010057073346,-176.00
2025-12-25 12:55:02.062424,599618010057073346,-167.00
2025-12-25 12:55:02.062424,599618010057073346,-160.00
2025-12-25 12:55:02.062424,599618010057073346,-155.00
2025-12-25 12:55:02.062424,599618010057073346,-150.00
2025-12-25 12:55:02.062424,599618010057073346,-143.00
2025-12-25 12:55:02.062424,599618010057073346,-139.00
2025-12-25 12:55:02.062424,599618010057073346,-136.00
2025-12-25 12:55:02.373000,599618010617922977,-129.00
2025-12-25 12:55:02.373000,599618010617922977,-122.00
2025-12-25 12:55:02.373000,599618010617922977,-120.00
2025-12-25 12:55:02.373000,599618010617922977,-124.00
2025-12-25 12:55:02.373000,599618010617922977,-122.00
2025-12-25 12:55:02.373000,599618010617922977,-115.00
2025-12-25 12:55:02.373000,599618010617922977,-103.00
2025-12-25 12:55:02.373000,599618010617922977,-91.00
2025-12-25 12:55:02.373000,599618010617922977,-91.00
2025-12-25 12:55:02.373000,599618010617922977,-94.00
2025-12-25 12:55:02.373000,599618010617922977,-91.00
2025-12-25 12:55:02.373000,599618010617922977,-84.00
2025-12-25 12:55:02.373000,599618010617922977,-75.00
2025-12-25 12:55:02.373000,599618010617922977,-68.00
2025-12-25 12:55:02.373000,599618010617922977,-75.00
2025-12-25 12:55:02.373000,599618010617922977,-77.00
2025-12-25 12:55:02.373000,599618010617922977,-73.00
2025-12-25 12:55:02.373000,599618010617922977,-73.00
2025-12-25 12:55:02.373000,599618010617922977,-65.00
2025-12-25 12:55:02.373000,599618010617922977,-56.00
2025-12-25 12:55:02.373000,599618010617922977,-56.00
2025-12-25 12:55:02.373000,599618010617922977,-63.00
2025-12-25 12:55:02.373000,599618010617922977,-68.00
2025-12-25 12:55:02.373000,599618010617922977,-65.00
2025-12-25 12:55:02.373000,599618010617922977,-56.00
2025-12-25 12:55:02.373000,599618010617922977,-47.00
2025-12-25 12:55:02.373000,599618010617922977,-51.00
2025-12-25 12:55:02.373000,599618010617922977,-49.00
2025-12-25 12:55:02.373000,599618010617922977,-23.00
2025-12-25 12:55:02.373000,599618010617922977,-11.00
2025-12-25 12:55:02.373000,599618010617922977,-23.00
2025-12-25 12:55:02.373000,599618010617922977,-35.00
2025-12-25 12:55:02.373000,599618010617922977,-28.00
2025-12-25 12:55:02.373000,599618010617922977,-18.00
2025-12-25 12:55:02.373000,599618010617922977,-44.00
2025-12-25 12:55:02.373000,599618010617922977,-82.00
2025-12-25 12:55:02.373000,599618010617922977,-65.00
2025-12-25 12:55:02.373000,599618010617922977,-18.00
2025-12-25 12:55:02.373000,599618010617922977,-16.00
2025-12-25 12:55:02.373000,599618010617922977,-21.00
2025-12-25 12:55:02.373000,599618010617922977,-11.00
2025-12-25 12:55:02.373000,599618010617922977,-23.00
2025-12-25 12:55:02.373000,599618010617922977,-51.00
2025-12-25 12:55:02.373000,599618010617922977,-51.00
2025-12-25 12:55:02.373000,599618010617922977,-30.00
2025-12-25 12:55:02.373000,599618010617922977,-16.00
2025-12-25 12:55:02.373000,599618010617922977,-11.00
2025-12-25 12:55:02.373000,599618010617922977,-7.00
2025-12-25 12:55:02.373000,599618010617922977,-21.00
2025-12-25 12:55:02.373000,599618010617922977,-42.00
2025-12-25 12:55:02.373000,599618010617922977,-51.00
2025-12-25 12:55:02.373000,599618010617922977,-54.00
2025-12-25 12:55:02.373000,599618010617922977,-56.00
2025-12-25 12:55:02.373000,599618010617922977,-54.00
2025-12-25 12:55:02.373000,599618010617922977,-56.00
2025-12-25 12:55:02.373000,599618010617922977,-75.00
2025-12-25 12:55:02.373000,599618010617922977,-134.00
2025-12-25 12:55:02.373000,599618010617922977,-84.00
2025-12-25 12:55:02.373000,599618010617922977,428.00
2025-12-25 12:55:02.373000,599618010617922977,1258.00
2025-12-25 12:55:02.373000,599618010617922977,1519.00
2025-12-25 12:55:02.373000,599618010617922977,676.00
2025-12-25 12:55:02.373000,599618010617922977,-384.00
2025-12-25 12:55:02.373000,599618010617922977,-452.00
2025-12-25 12:55:02.373000,599618010617922977,-14.00
2025-12-25 12:55:02.373000,599618010617922977,-35.00
2025-12-25 12:55:02.373000,599618010617922977,-200.00
2025-12-25 12:55:02.373000,599618010617922977,-124.00
2025-12-25 12:55:02.373000,599618010617922977,-84.00
2025-12-25 12:55:02.373000,599618010617922977,-131.00
2025-12-25 12:55:02.373000,599618010617922977,-113.00
2025-12-25 12:55:02.373000,599618010617922977,-75.00
2025-12-25 12:55:02.373000,599618010617922977,-73.00
2025-12-25 12:55:02.823280,599618011178772606,-65.00
2025-12-25 12:55:02.823280,599618011178772606,-49.00
2025-12-25 12:55:02.823280,599618011178772606,-42.00
2025-12-25 12:55:02.823280,599618011178772606,-30.00
2025-12-25 12:55:02.823280,599618011178772606,-14.00
2025-12-25 12:55:02.823280,599618011178772606,0.00
2025-12-25 12:55:02.823280,599618011178772606,14.00
2025-12-25 12:55:02.823280,599618011178772606,30.00
2025-12-25 12:55:02.823280,599618011178772606,51.00
2025-12-25 12:55:02.823280,599618011178772606,77.00
2025-12-25 12:55:02.823280,599618011178772606,106.00
2025-12-25 12:55:02.823280,599618011178772606,124.00
2025-12-25 12:55:02.823280,599618011178772606,136.00
2025-12-25 12:55:02.823280,599618011178772606,148.00
2025-12-25 12:55:02.823280,599618011178772606,150.00
2025-12-25 12:55:02.823280,599618011178772606,148.00
2025-12-25 12:55:02.823280,599618011178772606,136.00
2025-12-25 12:55:02.823280,599618011178772606,103.00
2025-12-25 12:55:02.823280,599618011178772606,44.00
2025-12-25 12:55:02.823280,599618011178772606,-23.00
2025-12-25 12:55:02.823280,599618011178772606,-89.00
2025-12-25 12:55:02.823280,599618011178772606,-139.00
2025-12-25 12:55:02.823280,599618011178772606,-174.00
2025-12-25 12:55:02.823280,599618011178772606,-200.00
2025-12-25 12:55:02.823280,599618011178772606,-219.00
2025-12-25 12:55:02.823280,599618011178772606,-226.00
2025-12-25 12:55:02.823280,599618011178772606,-226.00
2025-12-25 12:55:02.823280,599618011178772606,-221.00
2025-12-25 12:55:02.823280,599618011178772606,-214.00
2025-12-25 12:55:02.823280,599618011178772606,-209.00
2025-12-25 12:55:02.823280,599618011178772606,-204.00
2025-12-25 12:55:02.823280,599618011178772606,-197.00
2025-12-25 12:55:02.823280,599618011178772606,-188.00
2025-12-25 12:55:02.823280,599618011178772606,-181.00
2025-12-25 12:55:02.823280,599618011178772606,-174.00
2025-12-25 12:55:02.823280,599618011178772606,-169.00
2025-12-25 12:55:02.823280,599618011178772606,-164.00
2025-12-25 12:55:02.823280,599618011178772606,-162.00
2025-12-25 12:55:02.823280,599618011178772606,-157.00
2025-12-25 12:55:02.823280,599618011178772606,-153.00
2025-12-25 12:55:02.823280,599618011178772606,-146.00
2025-12-25 12:55:02.823280,599618011178772606,-143.00
2025-12-25 12:55:02.823280,599618011178772606,-141.00
2025-12-25 12:55:02.823280,599618011178772606,-136.00
2025-12-25 12:55:02.823280,599618011178772606,-134.00
2025-12-25 12:55:02.823280,599618011178772606,-129.00
2025-12-25 12:55:02.823280,599618011178772606,-124.00
2025-12-25 12:55:02.823280,599618011178772606,-122.00
2025-12-25 12:55:02.823280,599618011178772606,-117.00
2025-12-25 12:55:02.823280,599618011178772606,-113.00
2025-12-25 12:55:02.823280,599618011178772606,-110.00
2025-12-25 12:55:02.823280,599618011178772606,-103.00
2025-12-25 12:55:02.823280,599618011178772606,-96.00
2025-12-25 12:55:02.823280,599618011178772606,-89.00
2025-12-25 12:55:02.823280,599618011178772606,-87.00
2025-12-25 12:55:02.823280,599618011178772606,-84.00
2025-12-25 12:55:02.823280,599618011178772606,-82.00
2025-12-25 12:55:02.823280,599618011178772606,-75.00
2025-12-25 12:55:02.823280,599618011178772606,-73.00
2025-12-25 12:55:02.823280,599618011178772606,-75.00
2025-12-25 12:55:02.823280,599618011178772606,-70.00
2025-12-25 12:55:02.823280,599618011178772606,-68.00
2025-12-25 12:55:02.823280,599618011178772606,-68.00
2025-12-25 12:55:02.823280,599618011178772606,-65.00
2025-12-25 12:55:02.823280,599618011178772606,-61.00
2025-12-25 12:55:02.823280,599618011178772606,-54.00
2025-12-25 12:55:02.823280,599618011178772606,-49.00
2025-12-25 12:55:02.823280,599618011178772606,-54.00
2025-12-25 12:55:02.823280,599618011178772606,-54.00
2025-12-25 12:55:02.823280,599618011178772606,-49.00
2025-12-25 12:55:02.823280,599618011178772606,-51.00
2025-12-25 12:55:02.823280,599618011178772606,-51.00
2025-12-25 12:55:02.823280,599618011178772606,-49.00
2025-12-25 12:55:03.477846,599618011739596809,-49.00
2025-12-25 12:55:03.477846,599618011739596809,-47.00
2025-12-25 12:55:03.477846,599618011739596809,-49.00
2025-12-25 12:55:03.477846,599618011739596809,-56.00
2025-12-25 12:55:03.477846,599618011739596809,-54.00
2025-12-25 12:55:03.477846,599618011739596809,-49.00
2025-12-25 12:55:03.477846,599618011739596809,-54.00
2025-12-25 12:55:03.477846,599618011739596809,-47.00
2025-12-25 12:55:03.477846,599618011739596809,-18.00
2025-12-25 12:55:03.477846,599618011739596809,-2.00
2025-12-25 12:55:03.477846,599618011739596809,-2.00
2025-12-25 12:55:03.477846,599618011739596809,-2.00
2025-12-25 12:55:03.477846,599618011739596809,-14.00
2025-12-25 12:55:03.477846,599618011739596809,-35.00
2025-12-25 12:55:03.477846,599618011739596809,-44.00
2025-12-25 12:55:03.477846,599618011739596809,-42.00
2025-12-25 12:55:03.477846,599618011739596809,-40.00
2025-12-25 12:55:03.477846,599618011739596809,-37.00
2025-12-25 12:55:03.477846,599618011739596809,-37.00
2025-12-25 12:55:03.477846,599618011739596809,-51.00
2025-12-25 12:55:03.477846,599618011739596809,-113.00
2025-12-25 12:55:03.477846,599618011739596809,-56.00
2025-12-25 12:55:03.477846,599618011739596809,478.00
2025-12-25 12:55:03.477846,599618011739596809,1291.00
2025-12-25 12:55:03.477846,599618011739596809,1444.00
2025-12-25 12:55:03.477846,599618011739596809,511.00
2025-12-25 12:55:03.477846,599618011739596809,-466.00
2025-12-25 12:55:03.477846,599618011739596809,-414.00
2025-12-25 12:55:03.477846,599618011739596809,4.00
2025-12-25 12:55:03.477846,599618011739596809,-30.00
2025-12-25 12:55:03.477846,599618011739596809,-148.00
2025-12-25 12:55:03.477846,599618011739596809,-82.00
2025-12-25 12:55:03.477846,599618011739596809,-61.00
2025-12-25 12:55:03.477846,599618011739596809,-84.00
2025-12-25 12:55:03.477846,599618011739596809,-54.00
2025-12-25 12:55:03.477846,599618011739596809,-32.00
2025-12-25 12:55:03.477846,599618011739596809,-37.00
2025-12-25 12:55:03.477846,599618011739596809,-25.00
2025-12-25 12:55:03.477846,599618011739596809,-4.00
2025-12-25 12:55:03.477846,599618011739596809,2.00
2025-12-25 12:55:03.477846,599618011739596809,14.00
2025-12-25 12:55:03.477846,599618011739596809,30.00
2025-12-25 12:55:03.477846,599618011739596809,51.00
2025-12-25 12:55:03.477846,599618011739596809,68.00
2025-12-25 12:55:03.477846,599618011739596809,87.00
2025-12-25 12:55:03.477846,599618011739596809,110.00
2025-12-25 12:55:03.477846,599618011739596809,131.00
2025-12-25 12:55:03.477846,599618011739596809,157.00
2025-12-25 12:55:03.477846,599618011739596809,186.00
2025-12-25 12:55:03.477846,599618011739596809,197.00
2025-12-25 12:55:03.477846,599618011739596809,202.00
2025-12-25 12:55:03.477846,599618011739596809,207.00
2025-12-25 12:55:03.477846,599618011739596809,200.00
2025-12-25 12:55:03.477846,599618011739596809,176.00
2025-12-25 12:55:03.477846,599618011739596809,136.00
2025-12-25 12:55:03.477846,599618011739596809,68.00
2025-12-25 12:55:03.477846,599618011739596809,-14.00
2025-12-25 12:55:03.477846,599618011739596809,-73.00
2025-12-25 12:55:03.477846,599618011739596809,-113.00
2025-12-25 12:55:03.477846,599618011739596809,-153.00
2025-12-25 12:55:03.477846,599618011739596809,-183.00
2025-12-25 12:55:03.477846,599618011739596809,-195.00
2025-12-25 12:55:03.477846,599618011739596809,-197.00
2025-12-25 12:55:03.477846,599618011739596809,-200.00
2025-12-25 12:55:03.477846,599618011739596809,-197.00
2025-12-25 12:55:03.477846,599618011739596809,-193.00
2025-12-25 12:55:03.477846,599618011739596809,-188.00
2025-12-25 12:55:03.477846,599618011739596809,-181.00
2025-12-25 12:55:03.477846,599618011739596809,-179.00
2025-12-25 12:55:03.477846,599618011739596809,-174.00
2025-12-25 12:55:03.477846,599618011739596809,-160.00
2025-12-25 12:55:03.477846,599618011739596809,-153.00
2025-12-25 12:55:03.477846,599618011739596809,-153.00
2025-12-25 12:55:03.984163,599618012300441354,-146.00
2025-12-25 12:55:03.984163,599618012300441354,-134.00
2025-12-25 12:55:03.984163,599618012300441354,-124.00
2025-12-25 12:55:03.984163,599618012300441354,-117.00
2025-12-25 12:55:03.984163,599618012300441354,-108.00
2025-12-25 12:55:03.984163,599618012300441354,-103.00
2025-12-25 12:55:03.984163,599618012300441354,-101.00
2025-12-25 12:55:03.984163,599618012300441354,-98.00
2025-12-25 12:55:03.984163,599618012300441354,-94.00
2025-12-25 12:55:03.984163,599618012300441354,-89.00
2025-12-25 12:55:03.984163,599618012300441354,-80.00
2025-12-25 12:55:03.984163,599618012300441354,-75.00
2025-12-25 12:55:03.984163,599618012300441354,-80.00
2025-12-25 12:55:03.984163,599618012300441354,-82.00
2025-12-25 12:55:03.984163,599618012300441354,-80.00
2025-12-25 12:55:03.984163,599618012300441354,-77.00
2025-12-25 12:55:03.984163,599618012300441354,-68.00
2025-12-25 12:55:03.984163,599618012300441354,-65.00
2025-12-25 12:55:03.984163,599618012300441354,-68.00
2025-12-25 12:55:03.984163,599618012300441354,-70.00
2025-12-25 12:55:03.984163,599618012300441354,-68.00
