Timestamp,Device Timestamp (ns),ECG Value (uV)
2025-12-25 12:44:14.635776,599617362862233908,-141.00
2025-12-25 12:44:14.635776,599617362862233908,-141.00
2025-12-25 12:44:14.635776,599617362862233908,-134.00
2025-12-25 12:44:14.635776,599617362862233908,-129.00
2025-12-25 12:44:14.635776,599617362862233908,-106.00
2025-12-25 12:44:14.635776,599617362862233908,-77.00
2025-12-25 12:44:14.635776,599617362862233908,-75.00
2025-12-25 12:44:14.635776,599617362862233908,-91.00
2025-12-25 12:44:14.635776,599617362862233908,-101.00
2025-12-25 12:44:14.635776,599617362862233908,-106.00
2025-12-25 12:44:14.635776,599617362862233908,-108.00
2025-12-25 12:44:14.635776,599617362862233908,-103.00
2025-12-25 12:44:14.635776,599617362862233908,-98.00
2025-12-25 12:44:14.635776,599617362862233908,-94.00
2025-12-25 12:44:14.635776,599617362862233908,-108.00
2025-12-25 12:44:14.635776,599617362862233908,-174.00
2025-12-25 12:44:14.635776,599617362862233908,-40.00
2025-12-25 12:44:14.635776,599617362862233908,588.00
2025-12-25 12:44:14.635776,599617362862233908,1288.00
2025-12-25 12:44:14.635776,599617362862233908,1210.00
2025-12-25 12:44:14.635776,599617362862233908,266.00
2025-12-25 12:44:14.635776,599617362862233908,-506.00
2025-12-25 12:44:14.635776,599617362862233908,-374.00
2025-12-25 12:44:14.635776,599617362862233908,-32.00
2025-12-25 12:44:14.635776,599617362862233908,-94.00
2025-12-25 12:44:14.635776,599617362862233908,-181.00
2025-12-25 12:44:14.635776,599617362862233908,-108.00
2025-12-25 12:44:14.635776,599617362862233908,-94.00
2025-12-25 12:44:14.635776,599617362862233908,-124.00
2025-12-25 12:44:14.635776,599617362862233908,-103.00
2025-12-25 12:44:14.635776,599617362862233908,-77.00
2025-12-25 12:44:14.635776,599617362862233908,-68.00
2025-12-25 12:44:14.635776,599617362862233908,-61.00
2025-12-25 12:44:14.635776,599617362862233908,-51.00
2025-12-25 12:44:14.635776,599617362862233908,-40.00
2025-12-25 12:44:14.635776,599617362862233908,-21.00
2025-12-25 12:44:14.635776,599617362862233908,-4.00
2025-12-25 12:44:14.635776,599617362862233908,4.00
2025-12-25 12:44:14.635776,599617362862233908,21.00
2025-12-25 12:44:14.635776,599617362862233908,35.00
2025-12-25 12:44:14.635776,599617362862233908,49.00
2025-12-25 12:44:14.635776,599617362862233908,68.00
2025-12-25 12:44:14.635776,599617362862233908,87.00
2025-12-25 12:44:14.635776,599617362862233908,96.00
2025-12-25 12:44:14.635776,599617362862233908,101.00
2025-12-25 12:44:14.635776,599617362862233908,101.00
2025-12-25 12:44:14.635776,599617362862233908,94.00
2025-12-25 12:44:14.635776,599617362862233908,84.00
2025-12-25 12:44:14.635776,599617362862233908,54.00
2025-12-25 12:44:14.635776,599617362862233908,0.00
2025-12-25 12:44:14.635776,599617362862233908,-54.00
2025-12-25 12:44:14.635776,599617362862233908,-108.00
2025-12-25 12:44:14.635776,599617362862233908,-153.00
2025-12-25 12:44:14.635776,599617362862233908,-174.00
2025-12-25 12:44:14.635776,599617362862233908,-188.00
2025-12-25 12:44:14.635776,599617362862233908,-197.00
2025-12-25 12:44:14.635776,599617362862233908,-202.00
2025-12-25 12:44:14.635776,599617362862233908,-204.00
2025-12-25 12:44:14.635776,599617362862233908,-204.00
2025-12-25 12:44:14.635776,599617362862233908,-195.00
2025-12-25 12:44:14.635776,599617362862233908,-188.00
2025-12-25 12:44:14.635776,599617362862233908,-186.00
2025-12-25 12:44:14.635776,599617362862233908,-183.00
2025-12-25 12:44:14.635776,599617362862233908,-179.00
2025-12-25 12:44:14.635776,599617362862233908,-169.00
2025-12-25 12:44:14.635776,599617362862233908,-160.00
2025-12-25 12:44:14.635776,599617362862233908,-157.00
2025-12-25 12:44:14.635776,599617362862233908,-155.00
2025-12-25 12:44:14.635776,599617362862233908,-146.00
2025-12-25 12:44:14.635776,599617362862233908,-141.00
2025-12-25 12:44:14.635776,599617362862233908,-139.00
2025-12-25 12:44:14.635776,599617362862233908,-134.00
2025-12-25 12:44:14.635776,599617362862233908,-129.00
2025-12-25 12:44:15.087761,599617363423053021,-127.00
2025-12-25 12:44:15.087761,599617363423053021,-124.00
2025-12-25 12:44:15.087761,599617363423053021,-129.00
2025-12-25 12:44:15.087761,599617363423053021,-131.00
2025-12-25 12:44:15.087761,599617363423053021,-127.00
2025-12-25 12:44:15.087761,599617363423053021,-124.00
2025-12-25 12:44:15.087761,599617363423053021,-124.00
2025-12-25 12:44:15.087761,599617363423053021,-120.00
2025-12-25 12:44:15.087761,599617363423053021,-117.00
2025-12-25 12:44:15.087761,599617363423053021,-117.00
2025-12-25 12:44:15.087761,599617363423053021,-115.00
2025-12-25 12:44:15.087761,599617363423053021,-110.00
2025-12-25 12:44:15.087761,599617363423053021,-106.00
2025-12-25 12:44:15.087761,599617363423053021,-108.00
2025-12-25 12:44:15.087761,599617363423053021,-113.00
2025-12-25 12:44:15.087761,599617363423053021,-113.00
2025-12-25 12:44:15.087761,599617363423053021,-110.00
2025-12-25 12:44:15.087761,599617363423053021,-117.00
2025-12-25 12:44:15.087761,599617363423053021,-115.00
2025-12-25 12:44:15.087761,599617363423053021,-98.00
2025-12-25 12:44:15.087761,599617363423053021,-80.00
2025-12-25 12:44:15.087761,599617363423053021,-68.00
2025-12-25 12:44:15.087761,599617363423053021,-63.00
2025-12-25 12:44:15.087761,599617363423053021,-73.00
2025-12-25 12:44:15.087761,599617363423053021,-96.00
2025-12-25 12:44:15.087761,599617363423053021,-110.00
2025-12-25 12:44:15.087761,599617363423053021,-91.00
2025-12-25 12:44:15.087761,599617363423053021,-63.00
2025-12-25 12:44:15.087761,599617363423053021,-65.00
2025-12-25 12:44:15.087761,599617363423053021,-89.00
2025-12-25 12:44:15.087761,599617363423053021,-155.00
2025-12-25 12:44:15.087761,599617363423053021,-155.00
2025-12-25 12:44:15.087761,599617363423053021,259.00
2025-12-25 12:44:15.087761,599617363423053021,1010.00
2025-12-25 12:44:15.087761,599617363423053021,1342.00
2025-12-25 12:44:15.087761,599617363423053021,699.00
2025-12-25 12:44:15.087761,599617363423053021,-303.00
2025-12-25 12:44:15.087761,599617363423053021,-492.00
2025-12-25 12:44:15.087761,599617363423053021,-61.00
2025-12-25 12:44:15.087761,599617363423053021,-4.00
2025-12-25 12:44:15.087761,599617363423053021,-179.00
2025-12-25 12:44:15.087761,599617363423053021,-127.00
2025-12-25 12:44:15.087761,599617363423053021,-68.00
2025-12-25 12:44:15.087761,599617363423053021,-113.00
2025-12-25 12:44:15.087761,599617363423053021,-103.00
2025-12-25 12:44:15.087761,599617363423053021,-63.00
2025-12-25 12:44:15.087761,599617363423053021,-70.00
2025-12-25 12:44:15.087761,599617363423053021,-68.00
2025-12-25 12:44:15.087761,599617363423053021,-44.00
2025-12-25 12:44:15.087761,599617363423053021,-35.00
2025-12-25 12:44:15.087761,599617363423053021,-30.00
2025-12-25 12:44:15.087761,599617363423053021,-14.00
2025-12-25 12:44:15.087761,599617363423053021,-4.00
2025-12-25 12:44:15.087761,599617363423053021,4.00
2025-12-25 12:44:15.087761,599617363423053021,21.00
2025-12-25 12:44:15.087761,599617363423053021,37.00
2025-12-25 12:44:15.087761,599617363423053021,47.00
2025-12-25 12:44:15.087761,599617363423053021,63.00
2025-12-25 12:44:15.087761,599617363423053021,87.00
2025-12-25 12:44:15.087761,599617363423053021,101.00
2025-12-25 12:44:15.087761,599617363423053021,103.00
2025-12-25 12:44:15.087761,599617363423053021,110.00
2025-12-25 12:44:15.087761,599617363423053021,115.00
2025-12-25 12:44:15.087761,599617363423053021,96.00
2025-12-25 12:44:15.087761,599617363423053021,56.00
2025-12-25 12:44:15.087761,599617363423053021,7.00
2025-12-25 12:44:15.087761,599617363423053021,-44.00
2025-12-25 12:44:15.087761,599617363423053021,-98.00
2025-12-25 12:44:15.087761,599617363423053021,-136.00
2025-12-25 12:44:15.087761,599617363423053021,-160.00
2025-12-25 12:44:15.087761,599617363423053021,-181.00
2025-12-25 12:44:15.087761,599617363423053021,-193.00
2025-12-25 12:44:15.087761,599617363423053021,-193.00
2025-12-25 12:44:15.769970,599617363983872134,-193.00
2025-12-25 12:44:15.769970,599617363983872134,-190.00
2025-12-25 12:44:15.769970,599617363983872134,-183.00
2025-12-25 12:44:15.769970,599617363983872134,-179.00
2025-12-25 12:44:15.769970,599617363983872134,-174.00
2025-12-25 12:44:15.769970,599617363983872134,-167.00
2025-12-25 12:44:15.769970,599617363983872134,-164.00
2025-12-25 12:44:15.769970,599617363983872134,-160.00
2025-12-25 12:44:15.769970,599617363983872134,-146.00
2025-12-25 12:44:15.769970,599617363983872134,-141.00
2025-12-25 12:44:15.769970,599617363983872134,-141.00
2025-12-25 12:44:15.769970,599617363983872134,-134.00
2025-12-25 12:44:15.769970,599617363983872134,-134.00
2025-12-25 12:44:15.769970,599617363983872134,-141.00
2025-12-25 12:44:15.769970,599617363983872134,-139.00
2025-12-25 12:44:15.769970,599617363983872134,-131.00
2025-12-25 12:44:15.769970,599617363983872134,-129.00
2025-12-25 12:44:15.769970,599617363983872134,-134.00
2025-12-25 12:44:15.769970,599617363983872134,-129.00
2025-12-25 12:44:15.769970,599617363983872134,-127.00
2025-12-25 12:44:15.769970,599617363983872134,-127.00
2025-12-25 12:44:15.769970,599617363983872134,-127.00
2025-12-25 12:44:15.769970,599617363983872134,-124.00
2025-12-25 12:44:15.769970,599617363983872134,-122.00
2025-12-25 12:44:15.769970,599617363983872134,-122.00
2025-12-25 12:44:15.769970,599617363983872134,-122.00
2025-12-25 12:44:15.769970,599617363983872134,-117.00
2025-12-25 12:44:15.769970,599617363983872134,-108.00
2025-12-25 12:44:15.769970,599617363983872134,-110.00
2025-12-25 12:44:15.769970,599617363983872134,-115.00
2025-12-25 12:44:15.769970,599617363983872134,-115.00
2025-12-25 12:44:15.769970,599617363983872134,-110.00
2025-12-25 12:44:15.769970,599617363983872134,-106.00
2025-12-25 12:44:15.769970,599617363983872134,-101.00
2025-12-25 12:44:15.769970,599617363983872134,-101.00
2025-12-25 12:44:15.769970,599617363983872134,-106.00
2025-12-25 12:44:15.769970,599617363983872134,-106.00
2025-12-25 12:44:15.769970,599617363983872134,-108.00
2025-12-25 12:44:15.769970,599617363983872134,-113.00
2025-12-25 12:44:15.769970,599617363983872134,-103.00
2025-12-25 12:44:15.769970,599617363983872134,-77.00
2025-12-25 12:44:15.769970,599617363983872134,-65.00
2025-12-25 12:44:15.769970,599617363983872134,-68.00
2025-12-25 12:44:15.769970,599617363983872134,-68.00
2025-12-25 12:44:15.769970,599617363983872134,-75.00
2025-12-25 12:44:15.769970,599617363983872134,-94.00
2025-12-25 12:44:15.769970,599617363983872134,-98.00
2025-12-25 12:44:15.769970,599617363983872134,-89.00
2025-12-25 12:44:15.769970,599617363983872134,-87.00
2025-12-25 12:44:15.769970,599617363983872134,-87.00
2025-12-25 12:44:15.769970,599617363983872134,-87.00
2025-12-25 12:44:15.769970,599617363983872134,-127.00
2025-12-25 12:44:15.769970,599617363983872134,-186.00
2025-12-25 12:44:15.769970,599617363983872134,58.00
2025-12-25 12:44:15.769970,599617363983872134,791.00
2025-12-25 12:44:15.769970,599617363983872134,1413.00
2025-12-25 12:44:15.769970,599617363983872134,1076.00
2025-12-25 12:44:15.769970,599617363983872134,-21.00
2025-12-25 12:44:15.769970,599617363983872134,-581.00
2025-12-25 12:44:15.769970,599617363983872134,-230.00
2025-12-25 12:44:15.769970,599617363983872134,7.00
2025-12-25 12:44:15.769970,599617363983872134,-160.00
2025-12-25 12:44:15.769970,599617363983872134,-181.00
2025-12-25 12:44:15.769970,599617363983872134,-89.00
2025-12-25 12:44:15.769970,599617363983872134,-120.00
2025-12-25 12:44:15.769970,599617363983872134,-136.00
2025-12-25 12:44:15.769970,599617363983872134,-94.00
2025-12-25 12:44:15.769970,599617363983872134,-87.00
2025-12-25 12:44:15.769970,599617363983872134,-94.00
2025-12-25 12:44:15.769970,599617363983872134,-77.00
2025-12-25 12:44:15.769970,599617363983872134,-65.00
2025-12-25 12:44:15.769970,599617363983872134,-63.00
2025-12-25 12:44:15.769970,599617363983872134,-49.00
2025-12-25 12:44:16.299704,599617364544691247,-32.00
2025-12-25 12:44:16.299704,599617364544691247,-23.00
2025-12-25 12:44:16.299704,599617364544691247,-11.00
2025-12-25 12:44:16.299704,599617364544691247,4.00
2025-12-25 12:44:16.299704,599617364544691247,23.00
2025-12-25 12:44:16.299704,599617364544691247,42.00
2025-12-25 12:44:16.299704,599617364544691247,58.00
2025-12-25 12:44:16.299704,599617364544691247,70.00
2025-12-25 12:44:16.299704,599617364544691247,77.00
2025-12-25 12:44:16.299704,599617364544691247,82.00
2025-12-25 12:44:16.299704,599617364544691247,82.00
2025-12-25 12:44:16.299704,599617364544691247,80.00
2025-12-25 12:44:16.299704,599617364544691247,61.00
2025-12-25 12:44:16.299704,599617364544691247,16.00
2025-12-25 12:44:16.299704,599617364544691247,-37.00
2025-12-25 12:44:16.299704,599617364544691247,-94.00
2025-12-25 12:44:16.299704,599617364544691247,-136.00
2025-12-25 12:44:16.299704,599617364544691247,-160.00
2025-12-25 12:44:16.299704,599617364544691247,-183.00
2025-12-25 12:44:16.299704,599617364544691247,-207.00
2025-12-25 12:44:16.299704,599617364544691247,-216.00
2025-12-25 12:44:16.299704,599617364544691247,-214.00
2025-12-25 12:44:16.299704,599617364544691247,-209.00
2025-12-25 12:44:16.299704,599617364544691247,-204.00
2025-12-25 12:44:16.299704,599617364544691247,-200.00
2025-12-25 12:44:16.299704,599617364544691247,-197.00
2025-12-25 12:44:16.299704,599617364544691247,-193.00
2025-12-25 12:44:16.299704,599617364544691247,-186.00
2025-12-25 12:44:16.299704,599617364544691247,-181.00
2025-12-25 12:44:16.299704,599617364544691247,-179.00
2025-12-25 12:44:16.299704,599617364544691247,-174.00
2025-12-25 12:44:16.299704,599617364544691247,-169.00
2025-12-25 12:44:16.299704,599617364544691247,-169.00
2025-12-25 12:44:16.299704,599617364544691247,-169.00
2025-12-25 12:44:16.299704,599617364544691247,-164.00
2025-12-25 12:44:16.299704,599617364544691247,-157.00
2025-12-25 12:44:16.299704,599617364544691247,-155.00
2025-12-25 12:44:16.299704,599617364544691247,-155.00
2025-12-25 12:44:16.299704,599617364544691247,-157.00
2025-12-25 12:44:16.299704,599617364544691247,-155.00
2025-12-25 12:44:16.299704,599617364544691247,-148.00
2025-12-25 12:44:16.299704,599617364544691247,-143.00
2025-12-25 12:44:16.299704,599617364544691247,-143.00
2025-12-25 12:44:16.299704,599617364544691247,-143.00
2025-12-25 12:44:16.299704,599617364544691247,-143.00
2025-12-25 12:44:16.299704,599617364544691247,-141.00
2025-12-25 12:44:16.299704,599617364544691247,-139.00
2025-12-25 12:44:16.299704,599617364544691247,-129.00
2025-12-25 12:44:16.299704,599617364544691247,-122.00
2025-12-25 12:44:16.299704,599617364544691247,-122.00
2025-12-25 12:44:16.299704,599617364544691247,-122.00
2025-12-25 12:44:16.299704,599617364544691247,-120.00
2025-12-25 12:44:16.299704,599617364544691247,-115.00
2025-12-25 12:44:16.299704,599617364544691247,-108.00
2025-12-25 12:44:16.299704,599617364544691247,-106.00
2025-12-25 12:44:16.299704,599617364544691247,-108.00
2025-12-25 12:44:16.299704,599617364544691247,-108.00
2025-12-25 12:44:16.299704,599617364544691247,-106.00
2025-12-25 12:44:16.299704,599617364544691247,-103.00
2025-12-25 12:44:16.299704,599617364544691247,-108.00
2025-12-25 12:44:16.299704,599617364544691247,-115.00
2025-12-25 12:44:16.299704,599617364544691247,-108.00
2025-12-25 12:44:16.299704,599617364544691247,-84.00
2025-12-25 12:44:16.299704,599617364544691247,-65.00
2025-12-25 12:44:16.299704,599617364544691247,-63.00
2025-12-25 12:44:16.299704,599617364544691247,-56.00
2025-12-25 12:44:16.299704,599617364544691247,-65.00
2025-12-25 12:44:16.299704,599617364544691247,-96.00
2025-12-25 12:44:16.299704,599617364544691247,-98.00
2025-12-25 12:44:16.299704,599617364544691247,-89.00
2025-12-25 12:44:16.299704,599617364544691247,-96.00
2025-12-25 12:44:16.299704,599617364544691247,-96.00
2025-12-25 12:44:16.299704,599617364544691247,-89.00
2025-12-25 12:44:16.900426,599617365105510360,-124.00
2025-12-25 12:44:16.900426,599617365105510360,-195.00
2025-12-25 12:44:16.900426,599617365105510360,7.00
2025-12-25 12:44:16.900426,599617365105510360,732.00
2025-12-25 12:44:16.900426,599617365105510360,1441.00
2025-12-25 12:44:16.900426,599617365105510360,1222.00
2025-12-25 12:44:16.900426,599617365105510360,110.00
2025-12-25 12:44:16.900426,599617365105510360,-588.00
2025-12-25 12:44:16.900426,599617365105510360,-278.00
2025-12-25 12:44:16.900426,599617365105510360,18.00
2025-12-25 12:44:16.900426,599617365105510360,-157.00
2025-12-25 12:44:16.900426,599617365105510360,-212.00
2025-12-25 12:44:16.900426,599617365105510360,-106.00
2025-12-25 12:44:16.900426,599617365105510360,-120.00
2025-12-25 12:44:16.900426,599617365105510360,-141.00
2025-12-25 12:44:16.900426,599617365105510360,-96.00
2025-12-25 12:44:16.900426,599617365105510360,-84.00
2025-12-25 12:44:16.900426,599617365105510360,-91.00
2025-12-25 12:44:16.900426,599617365105510360,-75.00
2025-12-25 12:44:16.900426,599617365105510360,-63.00
2025-12-25 12:44:16.900426,599617365105510360,-56.00
2025-12-25 12:44:16.900426,599617365105510360,-47.00
2025-12-25 12:44:16.900426,599617365105510360,-30.00
2025-12-25 12:44:16.900426,599617365105510360,-14.00
2025-12-25 12:44:16.900426,599617365105510360,-4.00
2025-12-25 12:44:16.900426,599617365105510360,9.00
2025-12-25 12:44:16.900426,599617365105510360,35.00
2025-12-25 12:44:16.900426,599617365105510360,54.00
2025-12-25 12:44:16.900426,599617365105510360,68.00
2025-12-25 12:44:16.900426,599617365105510360,84.00
2025-12-25 12:44:16.900426,599617365105510360,96.00
2025-12-25 12:44:16.900426,599617365105510360,98.00
2025-12-25 12:44:16.900426,599617365105510360,98.00
2025-12-25 12:44:16.900426,599617365105510360,91.00
2025-12-25 12:44:16.900426,599617365105510360,73.00
2025-12-25 12:44:16.900426,599617365105510360,32.00
2025-12-25 12:44:16.900426,599617365105510360,-21.00
2025-12-25 12:44:16.900426,599617365105510360,-77.00
2025-12-25 12:44:16.900426,599617365105510360,-127.00
2025-12-25 12:44:16.900426,599617365105510360,-164.00
2025-12-25 12:44:16.900426,599617365105510360,-188.00
2025-12-25 12:44:16.900426,599617365105510360,-202.00
2025-12-25 12:44:16.900426,599617365105510360,-209.00
2025-12-25 12:44:16.900426,599617365105510360,-212.00
2025-12-25 12:44:16.900426,599617365105510360,-209.00
2025-12-25 12:44:16.900426,599617365105510360,-204.00
2025-12-25 12:44:16.900426,599617365105510360,-197.00
2025-12-25 12:44:16.900426,599617365105510360,-190.00
2025-12-25 12:44:16.900426,599617365105510360,-183.00
2025-12-25 12:44:16.900426,599617365105510360,-176.00
2025-12-25 12:44:16.900426,599617365105510360,-171.00
2025-12-25 12:44:16.900426,599617365105510360,-167.00
2025-12-25 12:44:16.900426,599617365105510360,-164.00
2025-12-25 12:44:16.900426,599617365105510360,-162.00
2025-12-25 12:44:16.900426,599617365105510360,-162.00
2025-12-25 12:44:16.900426,599617365105510360,-162.00
2025-12-25 12:44:16.900426,599617365105510360,-162.00
2025-12-25 12:44:16.900426,599617365105510360,-160.00
2025-12-25 12:44:16.900426,599617365105510360,-153.00
2025-12-25 12:44:16.900426,599617365105510360,-150.00
2025-12-25 12:44:16.900426,599617365105510360,-146.00
2025-12-25 12:44:16.900426,599617365105510360,-139.00
2025-12-25 12:44:16.900426,599617365105510360,-139.00
2025-12-25 12:44:16.900426,599617365105510360,-136.00
2025-12-25 12:44:16.900426,599617365105510360,-124.00
2025-12-25 12:44:16.900426,599617365105510360,-124.00
2025-12-25 12:44:16.900426,599617365105510360,-127.00
2025-12-25 12:44:16.900426,599617365105510360,-120.00
2025-12-25 12:44:16.900426,599617365105510360,-117.00
2025-12-25 12:44:16.900426,599617365105510360,-120.00
2025-12-25 12:44:16.900426,599617365105510360,-117.00
2025-12-25 12:44:16.900426,599617365105510360,-115.00
2025-12-25 12:44:16.900426,599617365105510360,-113.00
2025-12-25 12:44:17.345729,599617365666359993,-110.00
2025-12-25 12:44:17.345729,599617365666359993,-113.00
2025-12-25 12:44:17.345729,599617365666359993,-110.00
2025-12-25 12:44:17.345729,599617365666359993,-103.00
2025-12-25 12:44:17.345729,599617365666359993,-103.00
2025-12-25 12:44:17.345729,599617365666359993,-101.00
2025-12-25 12:44:17.345729,599617365666359993,-94.00
2025-12-25 12:44:17.345729,599617365666359993,-101.00
2025-12-25 12:44:17.345729,599617365666359993,-110.00
2025-12-25 12:44:17.345729,599617365666359993,-98.00
2025-12-25 12:44:17.345729,599617365666359993,-80.00
2025-12-25 12:44:17.345729,599617365666359993,-61.00
2025-12-25 12:44:17.345729,599617365666359993,-42.00
2025-12-25 12:44:17.345729,599617365666359993,-44.00
2025-12-25 12:44:17.345729,599617365666359993,-68.00
2025-12-25 12:44:17.345729,599617365666359993,-87.00
2025-12-25 12:44:17.345729,599617365666359993,-84.00
2025-12-25 12:44:17.345729,599617365666359993,-80.00
2025-12-25 12:44:17.345729,599617365666359993,-82.00
2025-12-25 12:44:17.345729,599617365666359993,-82.00
2025-12-25 12:44:17.345729,599617365666359993,-84.00
2025-12-25 12:44:17.345729,599617365666359993,-141.00
2025-12-25 12:44:17.345729,599617365666359993,-148.00
2025-12-25 12:44:17.345729,599617365666359993,261.00
2025-12-25 12:44:17.345729,599617365666359993,1074.00
2025-12-25 12:44:17.345729,599617365666359993,1465.00
2025-12-25 12:44:17.345729,599617365666359993,775.00
2025-12-25 12:44:17.345729,599617365666359993,-320.00
2025-12-25 12:44:17.345729,599617365666359993,-539.00
2025-12-25 12:44:17.345729,599617365666359993,-103.00
2025-12-25 12:44:17.345729,599617365666359993,-37.00
2025-12-25 12:44:17.345729,599617365666359993,-202.00
2025-12-25 12:44:17.345729,599617365666359993,-150.00
2025-12-25 12:44:17.345729,599617365666359993,-87.00
2025-12-25 12:44:17.345729,599617365666359993,-127.00
2025-12-25 12:44:17.345729,599617365666359993,-120.00
2025-12-25 12:44:17.345729,599617365666359993,-84.00
2025-12-25 12:44:17.345729,599617365666359993,-87.00
2025-12-25 12:44:17.345729,599617365666359993,-84.00
2025-12-25 12:44:17.345729,599617365666359993,-68.00
2025-12-25 12:44:17.345729,599617365666359993,-58.00
2025-12-25 12:44:17.345729,599617365666359993,-49.00
2025-12-25 12:44:17.345729,599617365666359993,-35.00
2025-12-25 12:44:17.345729,599617365666359993,-25.00
2025-12-25 12:44:17.345729,599617365666359993,-11.00
2025-12-25 12:44:17.345729,599617365666359993,7.00
2025-12-25 12:44:17.345729,599617365666359993,25.00
2025-12-25 12:44:17.345729,599617365666359993,44.00
2025-12-25 12:44:17.345729,599617365666359993,65.00
2025-12-25 12:44:17.345729,599617365666359993,80.00
2025-12-25 12:44:17.345729,599617365666359993,89.00
2025-12-25 12:44:17.345729,599617365666359993,94.00
2025-12-25 12:44:17.345729,599617365666359993,94.00
2025-12-25 12:44:17.345729,599617365666359993,89.00
2025-12-25 12:44:17.345729,599617365666359993,75.00
2025-12-25 12:44:17.345729,599617365666359993,51.00
2025-12-25 12:44:17.345729,599617365666359993,11.00
2025-12-25 12:44:17.345729,599617365666359993,-42.00
2025-12-25 12:44:17.345729,599617365666359993,-98.00
2025-12-25 12:44:17.345729,599617365666359993,-141.00
2025-12-25 12:44:17.345729,599617365666359993,-167.00
2025-12-25 12:44:17.345729,599617365666359993,-188.00
2025-12-25 12:44:17.345729,599617365666359993,-200.00
2025-12-25 12:44:17.345729,599617365666359993,-202.00
2025-12-25 12:44:17.345729,599617365666359993,-200.00
2025-12-25 12:44:17.345729,599617365666359993,-197.00
2025-12-25 12:44:17.345729,599617365666359993,-188.00
2025-12-25 12:44:17.345729,599617365666359993,-176.00
2025-12-25 12:44:17.345729,599617365666359993,-169.00
2025-12-25 12:44:17.345729,599617365666359993,-167.00
2025-12-25 12:44:17.345729,599617365666359993,-162.00
2025-12-25 12:44:17.345729,599617365666359993,-157.00
2025-12-25 12:44:17.345729,599617365666359993,-153.00
2025-12-25 12:44:18.110881,599617366227189278,-148.00
2025-12-25 12:44:18.110881,599617366227189278,-143.00
2025-12-25 12:44:18.110881,599617366227189278,-141.00
2025-12-25 12:44:18.110881,599617366227189278,-136.00
2025-12-25 12:44:18.110881,599617366227189278,-136.00
2025-12-25 12:44:18.110881,599617366227189278,-136.00
2025-12-25 12:44:18.110881,599617366227189278,-131.00
2025-12-25 12:44:18.110881,599617366227189278,-124.00
2025-12-25 12:44:18.110881,599617366227189278,-117.00
2025-12-25 12:44:18.110881,599617366227189278,-113.00
2025-12-25 12:44:18.110881,599617366227189278,-113.00
2025-12-25 12:44:18.110881,599617366227189278,-113.00
2025-12-25 12:44:18.110881,599617366227189278,-115.00
2025-12-25 12:44:18.110881,599617366227189278,-110.00
2025-12-25 12:44:18.110881,599617366227189278,-98.00
2025-12-25 12:44:18.110881,599617366227189278,-91.00
2025-12-25 12:44:18.110881,599617366227189278,-98.00
2025-12-25 12:44:18.110881,599617366227189278,-84.00
2025-12-25 12:44:18.110881,599617366227189278,-75.00
2025-12-25 12:44:18.110881,599617366227189278,-106.00
2025-12-25 12:44:18.110881,599617366227189278,-117.00
2025-12-25 12:44:18.110881,599617366227189278,-96.00
2025-12-25 12:44:18.110881,599617366227189278,-103.00
2025-12-25 12:44:18.110881,599617366227189278,-127.00
2025-12-25 12:44:18.110881,599617366227189278,-106.00
2025-12-25 12:44:18.110881,599617366227189278,-70.00
2025-12-25 12:44:18.110881,599617366227189278,-42.00
2025-12-25 12:44:18.110881,599617366227189278,-42.00
2025-12-25 12:44:18.110881,599617366227189278,-87.00
2025-12-25 12:44:18.110881,599617366227189278,-110.00
2025-12-25 12:44:18.110881,599617366227189278,-87.00
2025-12-25 12:44:18.110881,599617366227189278,-82.00
2025-12-25 12:44:18.110881,599617366227189278,-80.00
2025-12-25 12:44:18.110881,599617366227189278,-61.00
2025-12-25 12:44:18.110881,599617366227189278,-70.00
2025-12-25 12:44:18.110881,599617366227189278,-143.00
2025-12-25 12:44:18.110881,599617366227189278,-84.00
2025-12-25 12:44:18.110881,599617366227189278,468.00
2025-12-25 12:44:18.110881,599617366227189278,1251.00
2025-12-25 12:44:18.110881,599617366227189278,1342.00
2025-12-25 12:44:18.110881,599617366227189278,412.00
2025-12-25 12:44:18.110881,599617366227189278,-515.00
2025-12-25 12:44:18.110881,599617366227189278,-435.00
2025-12-25 12:44:18.110881,599617366227189278,-9.00
2025-12-25 12:44:18.110881,599617366227189278,-49.00
2025-12-25 12:44:18.110881,599617366227189278,-174.00
2025-12-25 12:44:18.110881,599617366227189278,-120.00
2025-12-25 12:44:18.110881,599617366227189278,-101.00
2025-12-25 12:44:18.110881,599617366227189278,-98.00
2025-12-25 12:44:18.110881,599617366227189278,-70.00
2025-12-25 12:44:18.110881,599617366227189278,-96.00
2025-12-25 12:44:18.110881,599617366227189278,-106.00
2025-12-25 12:44:18.110881,599617366227189278,-58.00
2025-12-25 12:44:18.110881,599617366227189278,-47.00
2025-12-25 12:44:18.110881,599617366227189278,-51.00
2025-12-25 12:44:18.110881,599617366227189278,-25.00
2025-12-25 12:44:18.110881,599617366227189278,-21.00
2025-12-25 12:44:18.110881,599617366227189278,-23.00
2025-12-25 12:44:18.110881,599617366227189278,9.00
2025-12-25 12:44:18.110881,599617366227189278,35.00
2025-12-25 12:44:18.110881,599617366227189278,37.00
2025-12-25 12:44:18.110881,599617366227189278,37.00
2025-12-25 12:44:18.110881,599617366227189278,44.00
2025-12-25 12:44:18.110881,599617366227189278,65.00
2025-12-25 12:44:18.110881,599617366227189278,82.00
2025-12-25 12:44:18.110881,599617366227189278,77.00
2025-12-25 12:44:18.110881,599617366227189278,70.00
2025-12-25 12:44:18.110881,599617366227189278,63.00
2025-12-25 12:44:18.110881,599617366227189278,44.00
2025-12-25 12:44:18.110881,599617366227189278,16.00
2025-12-25 12:44:18.110881,599617366227189278,-28.00
2025-12-25 12:44:18.110881,599617366227189278,-82.00
2025-12-25 12:44:18.110881,599617366227189278,-131.00
2025-12-25 12:44:18.550673,599617366788013477,-160.00
2025-12-25 12:44:18.550673,599617366788013477,-169.00
2025-12-25 12:44:18.550673,599617366788013477,-181.00
2025-12-25 12:44:18.550673,599617366788013477,-195.00
2025-12-25 12:44:18.550673,599617366788013477,-200.00
2025-12-25 12:44:18.550673,599617366788013477,-188.00
2025-12-25 12:44:18.550673,599617366788013477,-176.00
2025-12-25 12:44:18.550673,599617366788013477,-174.00
2025-12-25 12:44:18.550673,599617366788013477,-176.00
2025-12-25 12:44:18.550673,599617366788013477,-167.00
2025-12-25 12:44:18.550673,599617366788013477,-164.00
2025-12-25 12:44:18.550673,599617366788013477,-148.00
2025-12-25 12:44:18.550673,599617366788013477,-122.00
2025-12-25 12:44:18.550673,599617366788013477,-150.00
2025-12-25 12:44:18.550673,599617366788013477,-183.00
2025-12-25 12:44:18.550673,599617366788013477,-150.00
2025-12-25 12:44:18.550673,599617366788013477,-131.00
2025-12-25 12:44:18.550673,599617366788013477,-146.00
2025-12-25 12:44:18.550673,599617366788013477,-134.00
2025-12-25 12:44:18.550673,599617366788013477,-120.00
2025-12-25 12:44:18.550673,599617366788013477,-124.00
2025-12-25 12:44:18.550673,599617366788013477,-127.00
2025-12-25 12:44:18.550673,599617366788013477,-127.00
2025-12-25 12:44:18.550673,599617366788013477,-120.00
2025-12-25 12:44:18.550673,599617366788013477,-106.00
2025-12-25 12:44:18.550673,599617366788013477,-108.00
2025-12-25 12:44:18.550673,599617366788013477,-117.00
2025-12-25 12:44:18.550673,599617366788013477,-115.00
2025-12-25 12:44:18.550673,599617366788013477,-101.00
2025-12-25 12:44:18.550673,599617366788013477,-91.00
2025-12-25 12:44:18.550673,599617366788013477,-89.00
2025-12-25 12:44:18.550673,599617366788013477,-91.00
2025-12-25 12:44:18.550673,599617366788013477,-98.00
2025-12-25 12:44:18.550673,599617366788013477,-101.00
2025-12-25 12:44:18.550673,599617366788013477,-98.00
2025-12-25 12:44:18.550673,599617366788013477,-91.00
2025-12-25 12:44:18.550673,599617366788013477,-70.00
2025-12-25 12:44:18.550673,599617366788013477,-47.00
2025-12-25 12:44:18.550673,599617366788013477,-40.00
2025-12-25 12:44:18.550673,599617366788013477,-58.00
2025-12-25 12:44:18.550673,599617366788013477,-82.00
2025-12-25 12:44:18.550673,599617366788013477,-89.00
2025-12-25 12:44:18.550673,599617366788013477,-89.00
2025-12-25 12:44:18.550673,599617366788013477,-80.00
2025-12-25 12:44:18.550673,599617366788013477,-73.00
2025-12-25 12:44:18.550673,599617366788013477,-77.00
2025-12-25 12:44:18.550673,599617366788013477,-108.00
2025-12-25 12:44:18.550673,599617366788013477,-143.00
2025-12-25 12:44:18.550673,599617366788013477,91.00
2025-12-25 12:44:18.550673,599617366788013477,793.00
2025-12-25 12:44:18.550673,599617366788013477,1404.00
2025-12-25 12:44:18.550673,599617366788013477,1046.00
2025-12-25 12:44:18.550673,599617366788013477,-37.00
2025-12-25 12:44:18.550673,599617366788013477,-565.00
2025-12-25 12:44:18.550673,599617366788013477,-259.00
2025-12-25 12:44:18.550673,599617366788013477,-32.00
2025-12-25 12:44:18.550673,599617366788013477,-134.00
2025-12-25 12:44:18.550673,599617366788013477,-153.00
2025-12-25 12:44:18.550673,599617366788013477,-84.00
2025-12-25 12:44:18.550673,599617366788013477,-89.00
2025-12-25 12:44:18.550673,599617366788013477,-106.00
2025-12-25 12:44:18.550673,599617366788013477,-80.00
2025-12-25 12:44:18.550673,599617366788013477,-63.00
2025-12-25 12:44:18.550673,599617366788013477,-61.00
2025-12-25 12:44:18.550673,599617366788013477,-49.00
2025-12-25 12:44:18.550673,599617366788013477,-32.00
2025-12-25 12:44:18.550673,599617366788013477,-21.00
2025-12-25 12:44:18.550673,599617366788013477,-7.00
2025-12-25 12:44:18.550673,599617366788013477,14.00
2025-12-25 12:44:18.550673,599617366788013477,30.00
2025-12-25 12:44:18.550673,599617366788013477,40.00
2025-12-25 12:44:18.550673,599617366788013477,61.00
2025-12-25 12:44:18.550673,599617366788013477,87.00
2025-12-25 12:44:19.055496,599617367348837676,103.00
2025-12-25 12:44:19.055496,599617367348837676,113.00
2025-12-25 12:44:19.055496,599617367348837676,115.00
2025-12-25 12:44:19.055496,599617367348837676,120.00
2025-12-25 12:44:19.055496,599617367348837676,117.00
2025-12-25 12:44:19.055496,599617367348837676,96.00
2025-12-25 12:44:19.055496,599617367348837676,87.00
2025-12-25 12:44:19.055496,599617367348837676,80.00
2025-12-25 12:44:19.055496,599617367348837676,42.00
2025-12-25 12:44:19.055496,599617367348837676,-4.00
2025-12-25 12:44:19.055496,599617367348837676,-44.00
2025-12-25 12:44:19.055496,599617367348837676,-84.00
2025-12-25 12:44:19.055496,599617367348837676,-115.00
2025-12-25 12:44:19.055496,599617367348837676,-131.00
2025-12-25 12:44:19.055496,599617367348837676,-136.00
2025-12-25 12:44:19.055496,599617367348837676,-134.00
2025-12-25 12:44:19.055496,599617367348837676,-134.00
2025-12-25 12:44:19.055496,599617367348837676,-131.00
2025-12-25 12:44:19.055496,599617367348837676,-122.00
2025-12-25 12:44:19.055496,599617367348837676,-113.00
2025-12-25 12:44:19.055496,599617367348837676,-103.00
2025-12-25 12:44:19.055496,599617367348837676,-91.00
2025-12-25 12:44:19.055496,599617367348837676,-91.00
2025-12-25 12:44:19.055496,599617367348837676,-94.00
2025-12-25 12:44:19.055496,599617367348837676,-94.00
2025-12-25 12:44:19.055496,599617367348837676,-94.00
2025-12-25 12:44:19.055496,599617367348837676,-84.00
2025-12-25 12:44:19.055496,599617367348837676,-77.00
2025-12-25 12:44:19.055496,599617367348837676,-82.00
2025-12-25 12:44:19.055496,599617367348837676,-82.00
2025-12-25 12:44:19.055496,599617367348837676,-73.00
2025-12-25 12:44:19.055496,599617367348837676,-75.00
2025-12-25 12:44:19.055496,599617367348837676,-80.00
2025-12-25 12:44:19.055496,599617367348837676,-70.00
2025-12-25 12:44:19.055496,599617367348837676,-63.00
2025-12-25 12:44:19.055496,599617367348837676,-73.00
2025-12-25 12:44:19.055496,599617367348837676,-75.00
2025-12-25 12:44:19.055496,599617367348837676,-75.00
2025-12-25 12:44:19.055496,599617367348837676,-73.00
2025-12-25 12:44:19.055496,599617367348837676,-63.00
2025-12-25 12:44:19.055496,599617367348837676,-70.00
2025-12-25 12:44:19.055496,599617367348837676,-80.00
2025-12-25 12:44:19.055496,599617367348837676,-80.00
2025-12-25 12:44:19.055496,599617367348837676,-77.00
2025-12-25 12:44:19.055496,599617367348837676,-80.00
2025-12-25 12:44:19.055496,599617367348837676,-75.00
2025-12-25 12:44:19.055496,599617367348837676,-65.00
2025-12-25 12:44:19.055496,599617367348837676,-49.00
2025-12-25 12:44:19.055496,599617367348837676,-25.00
2025-12-25 12:44:19.055496,599617367348837676,-23.00
2025-12-25 12:44:19.055496,599617367348837676,-49.00
2025-12-25 12:44:19.055496,599617367348837676,-68.00
2025-12-25 12:44:19.055496,599617367348837676,-68.00
2025-12-25 12:44:19.055496,599617367348837676,-65.00
2025-12-25 12:44:19.055496,599617367348837676,-61.00
2025-12-25 12:44:19.055496,599617367348837676,-54.00
2025-12-25 12:44:19.055496,599617367348837676,-54.00
2025-12-25 12:44:19.055496,599617367348837676,-101.00
2025-12-25 12:44:19.055496,599617367348837676,-113.00
2025-12-25 12:44:19.055496,599617367348837676,278.00
2025-12-25 12:44:19.055496,599617367348837676,1095.00
2025-12-25 12:44:19.055496,599617367348837676,1479.00
2025-12-25 12:44:19.055496,599617367348837676,723.00
2025-12-25 12:44:19.055496,599617367348837676,-379.00
2025-12-25 12:44:19.055496,599617367348837676,-548.00
2025-12-25 12:44:19.055496,599617367348837676,-103.00
2025-12-25 12:44:19.055496,599617367348837676,-16.00
2025-12-25 12:44:19.055496,599617367348837676,-136.00
2025-12-25 12:44:19.055496,599617367348837676,-94.00
2025-12-25 12:44:19.055496,599617367348837676,-51.00
2025-12-25 12:44:19.055496,599617367348837676,-82.00
2025-12-25 12:44:19.055496,599617367348837676,-70.00
2025-12-25 12:44:19.055496,599617367348837676,-49.00
2025-12-25 12:44:19.702998,599617367909666963,-49.00
2025-12-25 12:44:19.702998,599617367909666963,-32.00
2025-12-25 12:44:19.702998,599617367909666963,-11.00
2025-12-25 12:44:19.702998,599617367909666963,-4.00
2025-12-25 12:44:19.702998,599617367909666963,4.00
2025-12-25 12:44:19.702998,599617367909666963,23.00
2025-12-25 12:44:19.702998,599617367909666963,47.00
2025-12-25 12:44:19.702998,599617367909666963,68.00
2025-12-25 12:44:19.702998,599617367909666963,75.00
2025-12-25 12:44:19.702998,599617367909666963,87.00
2025-12-25 12:44:19.702998,599617367909666963,103.00
2025-12-25 12:44:19.702998,599617367909666963,113.00
2025-12-25 12:44:19.702998,599617367909666963,129.00
2025-12-25 12:44:19.702998,599617367909666963,131.00
2025-12-25 12:44:19.702998,599617367909666963,120.00
2025-12-25 12:44:19.702998,599617367909666963,113.00
2025-12-25 12:44:19.702998,599617367909666963,108.00
2025-12-25 12:44:19.702998,599617367909666963,80.00
2025-12-25 12:44:19.702998,599617367909666963,42.00
2025-12-25 12:44:19.702998,599617367909666963,7.00
2025-12-25 12:44:19.702998,599617367909666963,-30.00
2025-12-25 12:44:19.702998,599617367909666963,-84.00
2025-12-25 12:44:19.702998,599617367909666963,-122.00
2025-12-25 12:44:19.702998,599617367909666963,-148.00
2025-12-25 12:44:19.702998,599617367909666963,-167.00
2025-12-25 12:44:19.702998,599617367909666963,-174.00
2025-12-25 12:44:19.702998,599617367909666963,-176.00
2025-12-25 12:44:19.702998,599617367909666963,-183.00
2025-12-25 12:44:19.702998,599617367909666963,-176.00
2025-12-25 12:44:19.702998,599617367909666963,-169.00
2025-12-25 12:44:19.702998,599617367909666963,-164.00
2025-12-25 12:44:19.702998,599617367909666963,-160.00
2025-12-25 12:44:19.702998,599617367909666963,-155.00
2025-12-25 12:44:19.702998,599617367909666963,-150.00
2025-12-25 12:44:19.702998,599617367909666963,-136.00
2025-12-25 12:44:19.702998,599617367909666963,-124.00
2025-12-25 12:44:19.702998,599617367909666963,-129.00
2025-12-25 12:44:19.702998,599617367909666963,-141.00
2025-12-25 12:44:19.702998,599617367909666963,-134.00
2025-12-25 12:44:19.702998,599617367909666963,-117.00
2025-12-25 12:44:19.702998,599617367909666963,-120.00
2025-12-25 12:44:19.702998,599617367909666963,-127.00
2025-12-25 12:44:19.702998,599617367909666963,-110.00
2025-12-25 12:44:19.702998,599617367909666963,-96.00
2025-12-25 12:44:19.702998,599617367909666963,-106.00
2025-12-25 12:44:19.702998,599617367909666963,-117.00
2025-12-25 12:44:19.702998,599617367909666963,-117.00
2025-12-25 12:44:19.702998,599617367909666963,-110.00
2025-12-25 12:44:19.702998,599617367909666963,-113.00
2025-12-25 12:44:19.702998,599617367909666963,-113.00
2025-12-25 12:44:19.702998,599617367909666963,-101.00
2025-12-25 12:44:19.702998,599617367909666963,-96.00
2025-12-25 12:44:19.702998,599617367909666963,-106.00
2025-12-25 12:44:19.702998,599617367909666963,-115.00
2025-12-25 12:44:19.702998,599617367909666963,-115.00
2025-12-25 12:44:19.702998,599617367909666963,-113.00
2025-12-25 12:44:19.702998,599617367909666963,-110.00
2025-12-25 12:44:19.702998,599617367909666963,-113.00
2025-12-25 12:44:19.702998,599617367909666963,-96.00
2025-12-25 12:44:19.702998,599617367909666963,-58.00
2025-12-25 12:44:19.702998,599617367909666963,-58.00
2025-12-25 12:44:19.702998,599617367909666963,-89.00
2025-12-25 12:44:19.702998,599617367909666963,-96.00
2025-12-25 12:44:19.702998,599617367909666963,-96.00
2025-12-25 12:44:19.702998,599617367909666963,-106.00
2025-12-25 12:44:19.702998,599617367909666963,-94.00
2025-12-25 12:44:19.702998,599617367909666963,-80.00
2025-12-25 12:44:19.702998,599617367909666963,-91.00
2025-12-25 12:44:19.702998,599617367909666963,-131.00
2025-12-25 12:44:19.702998,599617367909666963,-153.00
2025-12-25 12:44:19.702998,599617367909666963,186.00
2025-12-25 12:44:19.702998,599617367909666963,965.00
2025-12-25 12:44:19.702998,599617367909666963,1420.00
2025-12-25 12:44:20.138338,599617368470486076,815.00
2025-12-25 12:44:20.138338,599617368470486076,-273.00
2025-12-25 12:44:20.138338,599617368470486076,-560.00
2025-12-25 12:44:20.138338,599617368470486076,-127.00
2025-12-25 12:44:20.138338,599617368470486076,-7.00
2025-12-25 12:44:20.138338,599617368470486076,-171.00
2025-12-25 12:44:20.138338,599617368470486076,-136.00
2025-12-25 12:44:20.138338,599617368470486076,-70.00
2025-12-25 12:44:20.138338,599617368470486076,-115.00
2025-12-25 12:44:20.138338,599617368470486076,-106.00
2025-12-25 12:44:20.138338,599617368470486076,-63.00
2025-12-25 12:44:20.138338,599617368470486076,-75.00
2025-12-25 12:44:20.138338,599617368470486076,-77.00
2025-12-25 12:44:20.138338,599617368470486076,-49.00
2025-12-25 12:44:20.138338,599617368470486076,-40.00
2025-12-25 12:44:20.138338,599617368470486076,-28.00
2025-12-25 12:44:20.138338,599617368470486076,-2.00
2025-12-25 12:44:20.138338,599617368470486076,16.00
2025-12-25 12:44:20.138338,599617368470486076,28.00
2025-12-25 12:44:20.138338,599617368470486076,25.00
2025-12-25 12:44:20.138338,599617368470486076,23.00
2025-12-25 12:44:20.138338,599617368470486076,58.00
2025-12-25 12:44:20.138338,599617368470486076,87.00
2025-12-25 12:44:20.138338,599617368470486076,87.00
2025-12-25 12:44:20.138338,599617368470486076,91.00
2025-12-25 12:44:20.138338,599617368470486076,98.00
2025-12-25 12:44:20.138338,599617368470486076,94.00
2025-12-25 12:44:20.138338,599617368470486076,84.00
2025-12-25 12:44:20.138338,599617368470486076,70.00
2025-12-25 12:44:20.138338,599617368470486076,40.00
2025-12-25 12:44:20.138338,599617368470486076,-2.00
2025-12-25 12:44:20.138338,599617368470486076,-49.00
2025-12-25 12:44:20.138338,599617368470486076,-91.00
2025-12-25 12:44:20.138338,599617368470486076,-127.00
2025-12-25 12:44:20.138338,599617368470486076,-155.00
2025-12-25 12:44:20.138338,599617368470486076,-174.00
2025-12-25 12:44:20.138338,599617368470486076,-183.00
2025-12-25 12:44:20.138338,599617368470486076,-186.00
2025-12-25 12:44:20.138338,599617368470486076,-188.00
2025-12-25 12:44:20.138338,599617368470486076,-183.00
2025-12-25 12:44:20.138338,599617368470486076,-169.00
2025-12-25 12:44:20.138338,599617368470486076,-157.00
2025-12-25 12:44:20.138338,599617368470486076,-153.00
2025-12-25 12:44:20.138338,599617368470486076,-153.00
2025-12-25 12:44:20.138338,599617368470486076,-146.00
2025-12-25 12:44:20.138338,599617368470486076,-136.00
2025-12-25 12:44:20.138338,599617368470486076,-131.00
2025-12-25 12:44:20.138338,599617368470486076,-129.00
2025-12-25 12:44:20.138338,599617368470486076,-127.00
2025-12-25 12:44:20.138338,599617368470486076,-124.00
2025-12-25 12:44:20.138338,599617368470486076,-127.00
2025-12-25 12:44:20.138338,599617368470486076,-124.00
2025-12-25 12:44:20.138338,599617368470486076,-120.00
2025-12-25 12:44:20.138338,599617368470486076,-120.00
2025-12-25 12:44:20.138338,599617368470486076,-117.00
2025-12-25 12:44:20.138338,599617368470486076,-115.00
2025-12-25 12:44:20.138338,599617368470486076,-120.00
2025-12-25 12:44:20.138338,599617368470486076,-120.00
2025-12-25 12:44:20.138338,599617368470486076,-110.00
2025-12-25 12:44:20.138338,599617368470486076,-108.00
2025-12-25 12:44:20.138338,599617368470486076,-113.00
2025-12-25 12:44:20.138338,599617368470486076,-110.00
2025-12-25 12:44:20.138338,599617368470486076,-98.00
2025-12-25 12:44:20.138338,599617368470486076,-87.00
2025-12-25 12:44:20.138338,599617368470486076,-84.00
2025-12-25 12:44:20.138338,599617368470486076,-94.00
2025-12-25 12:44:20.138338,599617368470486076,-103.00
2025-12-25 12:44:20.138338,599617368470486076,-101.00
2025-12-25 12:44:20.138338,599617368470486076,-98.00
2025-12-25 12:44:20.138338,599617368470486076,-94.00
2025-12-25 12:44:20.138338,599617368470486076,-75.00
2025-12-25 12:44:20.138338,599617368470486076,-51.00
2025-12-25 12:44:20.138338,599617368470486076,-47.00
2025-12-25 12:44:20.801570,599617369031310277,-63.00
2025-12-25 12:44:20.801570,599617369031310277,-84.00
2025-12-25 12:44:20.801570,599617369031310277,-87.00
2025-12-25 12:44:20.801570,599617369031310277,-77.00
2025-12-25 12:44:20.801570,599617369031310277,-75.00
2025-12-25 12:44:20.801570,599617369031310277,-70.00
2025-12-25 12:44:20.801570,599617369031310277,-61.00
2025-12-25 12:44:20.801570,599617369031310277,-98.00
2025-12-25 12:44:20.801570,599617369031310277,-148.00
2025-12-25 12:44:20.801570,599617369031310277,136.00
2025-12-25 12:44:20.801570,599617369031310277,892.00
2025-12-25 12:44:20.801570,599617369031310277,1465.00
2025-12-25 12:44:20.801570,599617369031310277,1050.00
2025-12-25 12:44:20.801570,599617369031310277,-56.00
2025-12-25 12:44:20.801570,599617369031310277,-558.00
2025-12-25 12:44:20.801570,599617369031310277,-167.00
2025-12-25 12:44:20.801570,599617369031310277,35.00
2025-12-25 12:44:20.801570,599617369031310277,-162.00
2025-12-25 12:44:20.801570,599617369031310277,-167.00
2025-12-25 12:44:20.801570,599617369031310277,-75.00
2025-12-25 12:44:20.801570,599617369031310277,-113.00
2025-12-25 12:44:20.801570,599617369031310277,-122.00
2025-12-25 12:44:20.801570,599617369031310277,-77.00
2025-12-25 12:44:20.801570,599617369031310277,-73.00
2025-12-25 12:44:20.801570,599617369031310277,-77.00
2025-12-25 12:44:20.801570,599617369031310277,-61.00
2025-12-25 12:44:20.801570,599617369031310277,-49.00
2025-12-25 12:44:20.801570,599617369031310277,-40.00
2025-12-25 12:44:20.801570,599617369031310277,-32.00
2025-12-25 12:44:20.801570,599617369031310277,-35.00
2025-12-25 12:44:20.801570,599617369031310277,-18.00
2025-12-25 12:44:20.801570,599617369031310277,16.00
2025-12-25 12:44:20.801570,599617369031310277,40.00
2025-12-25 12:44:20.801570,599617369031310277,61.00
2025-12-25 12:44:20.801570,599617369031310277,94.00
2025-12-25 12:44:20.801570,599617369031310277,98.00
2025-12-25 12:44:20.801570,599617369031310277,63.00
2025-12-25 12:44:20.801570,599617369031310277,61.00
2025-12-25 12:44:20.801570,599617369031310277,80.00
2025-12-25 12:44:20.801570,599617369031310277,56.00
2025-12-25 12:44:20.801570,599617369031310277,25.00
2025-12-25 12:44:20.801570,599617369031310277,37.00
2025-12-25 12:44:20.801570,599617369031310277,14.00
2025-12-25 12:44:20.801570,599617369031310277,-61.00
2025-12-25 12:44:20.801570,599617369031310277,-110.00
2025-12-25 12:44:20.801570,599617369031310277,-131.00
2025-12-25 12:44:20.801570,599617369031310277,-157.00
2025-12-25 12:44:20.801570,599617369031310277,-186.00
2025-12-25 12:44:20.801570,599617369031310277,-202.00
2025-12-25 12:44:20.801570,599617369031310277,-195.00
2025-12-25 12:44:20.801570,599617369031310277,-186.00
2025-12-25 12:44:20.801570,599617369031310277,-188.00
2025-12-25 12:44:20.801570,599617369031310277,-174.00
2025-12-25 12:44:20.801570,599617369031310277,-162.00
2025-12-25 12:44:20.801570,599617369031310277,-171.00
2025-12-25 12:44:20.801570,599617369031310277,-171.00
2025-12-25 12:44:20.801570,599617369031310277,-160.00
2025-12-25 12:44:20.801570,599617369031310277,-179.00
2025-12-25 12:44:20.801570,599617369031310277,-190.00
2025-12-25 12:44:20.801570,599617369031310277,-155.00
2025-12-25 12:44:20.801570,599617369031310277,-141.00
2025-12-25 12:44:20.801570,599617369031310277,-162.00
2025-12-25 12:44:20.801570,599617369031310277,-162.00
2025-12-25 12:44:20.801570,599617369031310277,-134.00
2025-12-25 12:44:20.801570,599617369031310277,-113.00
2025-12-25 12:44:20.801570,599617369031310277,-129.00
2025-12-25 12:44:20.801570,599617369031310277,-139.00
2025-12-25 12:44:20.801570,599617369031310277,-131.00
2025-12-25 12:44:20.801570,599617369031310277,-153.00
2025-12-25 12:44:20.801570,599617369031310277,-150.00
2025-12-25 12:44:20.801570,599617369031310277,-129.00
2025-12-25 12:44:20.801570,599617369031310277,-141.00
2025-12-25 12:44:20.801570,599617369031310277,-122.00
2025-12-25 12:44:21.312200,599617369592154822,-84.00
2025-12-25 12:44:21.312200,599617369592154822,-103.00
2025-12-25 12:44:21.312200,599617369592154822,-124.00
2025-12-25 12:44:21.312200,599617369592154822,-103.00
2025-12-25 12:44:21.312200,599617369592154822,-98.00
2025-12-25 12:44:21.312200,599617369592154822,-106.00
2025-12-25 12:44:21.312200,599617369592154822,-103.00
2025-12-25 12:44:21.312200,599617369592154822,-110.00
2025-12-25 12:44:21.312200,599617369592154822,-120.00
2025-12-25 12:44:21.312200,599617369592154822,-101.00
2025-12-25 12:44:21.312200,599617369592154822,-96.00
2025-12-25 12:44:21.312200,599617369592154822,-82.00
2025-12-25 12:44:21.312200,599617369592154822,-44.00
2025-12-25 12:44:21.312200,599617369592154822,-30.00
2025-12-25 12:44:21.312200,599617369592154822,-49.00
2025-12-25 12:44:21.312200,599617369592154822,-68.00
2025-12-25 12:44:21.312200,599617369592154822,-77.00
2025-12-25 12:44:21.312200,599617369592154822,-87.00
2025-12-25 12:44:21.312200,599617369592154822,-75.00
2025-12-25 12:44:21.312200,599617369592154822,-56.00
2025-12-25 12:44:21.312200,599617369592154822,-56.00
2025-12-25 12:44:21.312200,599617369592154822,-77.00
2025-12-25 12:44:21.312200,599617369592154822,-122.00
2025-12-25 12:44:21.312200,599617369592154822,58.00
2025-12-25 12:44:21.312200,599617369592154822,768.00
2025-12-25 12:44:21.312200,599617369592154822,1498.00
2025-12-25 12:44:21.312200,599617369592154822,1260.00
2025-12-25 12:44:21.312200,599617369592154822,106.00
2025-12-25 12:44:21.312200,599617369592154822,-610.00
2025-12-25 12:44:21.312200,599617369592154822,-301.00
2025-12-25 12:44:21.312200,599617369592154822,25.00
2025-12-25 12:44:21.312200,599617369592154822,-117.00
2025-12-25 12:44:21.312200,599617369592154822,-174.00
2025-12-25 12:44:21.312200,599617369592154822,-37.00
2025-12-25 12:44:21.312200,599617369592154822,-32.00
2025-12-25 12:44:21.312200,599617369592154822,-124.00
2025-12-25 12:44:21.312200,599617369592154822,-120.00
2025-12-25 12:44:21.312200,599617369592154822,-68.00
2025-12-25 12:44:21.312200,599617369592154822,-44.00
2025-12-25 12:44:21.312200,599617369592154822,-51.00
2025-12-25 12:44:21.312200,599617369592154822,-47.00
2025-12-25 12:44:21.312200,599617369592154822,11.00
2025-12-25 12:44:21.312200,599617369592154822,63.00
2025-12-25 12:44:21.312200,599617369592154822,47.00
2025-12-25 12:44:21.312200,599617369592154822,4.00
2025-12-25 12:44:21.312200,599617369592154822,-7.00
2025-12-25 12:44:21.312200,599617369592154822,32.00
2025-12-25 12:44:21.312200,599617369592154822,65.00
2025-12-25 12:44:21.312200,599617369592154822,54.00
2025-12-25 12:44:21.312200,599617369592154822,61.00
2025-12-25 12:44:21.312200,599617369592154822,124.00
2025-12-25 12:44:21.312200,599617369592154822,157.00
2025-12-25 12:44:21.312200,599617369592154822,115.00
2025-12-25 12:44:21.312200,599617369592154822,91.00
2025-12-25 12:44:21.312200,599617369592154822,108.00
2025-12-25 12:44:21.312200,599617369592154822,77.00
2025-12-25 12:44:21.312200,599617369592154822,-11.00
2025-12-25 12:44:21.312200,599617369592154822,-73.00
2025-12-25 12:44:21.312200,599617369592154822,-82.00
2025-12-25 12:44:21.312200,599617369592154822,-103.00
2025-12-25 12:44:21.312200,599617369592154822,-160.00
2025-12-25 12:44:21.312200,599617369592154822,-183.00
2025-12-25 12:44:21.312200,599617369592154822,-179.00
2025-12-25 12:44:21.312200,599617369592154822,-190.00
2025-12-25 12:44:21.312200,599617369592154822,-193.00
2025-12-25 12:44:21.312200,599617369592154822,-174.00
2025-12-25 12:44:21.312200,599617369592154822,-162.00
2025-12-25 12:44:21.312200,599617369592154822,-171.00
2025-12-25 12:44:21.312200,599617369592154822,-174.00
2025-12-25 12:44:21.312200,599617369592154822,-174.00
2025-12-25 12:44:21.312200,599617369592154822,-193.00
2025-12-25 12:44:21.312200,599617369592154822,-169.00
2025-12-25 12:44:21.312200,599617369592154822,-131.00
2025-12-25 12:44:21.920050,599617370152973935,-141.00
2025-12-25 12:44:21.920050,599617370152973935,-127.00
2025-12-25 12:44:21.920050,599617370152973935,-103.00
2025-12-25 12:44:21.920050,599617370152973935,-101.00
2025-12-25 12:44:21.920050,599617370152973935,-124.00
2025-12-25 12:44:21.920050,599617370152973935,-157.00
2025-12-25 12:44:21.920050,599617370152973935,-150.00
2025-12-25 12:44:21.920050,599617370152973935,-113.00
2025-12-25 12:44:21.920050,599617370152973935,-108.00
2025-12-25 12:44:21.920050,599617370152973935,-139.00
2025-12-25 12:44:21.920050,599617370152973935,-129.00
2025-12-25 12:44:21.920050,599617370152973935,-103.00
2025-12-25 12:44:21.920050,599617370152973935,-127.00
2025-12-25 12:44:21.920050,599617370152973935,-113.00
2025-12-25 12:44:21.920050,599617370152973935,-65.00
2025-12-25 12:44:21.920050,599617370152973935,-87.00
2025-12-25 12:44:21.920050,599617370152973935,-82.00
2025-12-25 12:44:21.920050,599617370152973935,-35.00
2025-12-25 12:44:21.920050,599617370152973935,-51.00
2025-12-25 12:44:21.920050,599617370152973935,-89.00
2025-12-25 12:44:21.920050,599617370152973935,-82.00
2025-12-25 12:44:21.920050,599617370152973935,-61.00
2025-12-25 12:44:21.920050,599617370152973935,-96.00
2025-12-25 12:44:21.920050,599617370152973935,-153.00
2025-12-25 12:44:21.920050,599617370152973935,-115.00
2025-12-25 12:44:21.920050,599617370152973935,-25.00
2025-12-25 12:44:21.920050,599617370152973935,-9.00
2025-12-25 12:44:21.920050,599617370152973935,-18.00
2025-12-25 12:44:21.920050,599617370152973935,-28.00
2025-12-25 12:44:21.920050,599617370152973935,-63.00
2025-12-25 12:44:21.920050,599617370152973935,-89.00
2025-12-25 12:44:21.920050,599617370152973935,-82.00
2025-12-25 12:44:21.920050,599617370152973935,-91.00
2025-12-25 12:44:21.920050,599617370152973935,-91.00
2025-12-25 12:44:21.920050,599617370152973935,-49.00
2025-12-25 12:44:21.920050,599617370152973935,-51.00
2025-12-25 12:44:21.920050,599617370152973935,-134.00
2025-12-25 12:44:21.920050,599617370152973935,21.00
2025-12-25 12:44:21.920050,599617370152973935,725.00
2025-12-25 12:44:21.920050,599617370152973935,1477.00
2025-12-25 12:44:21.920050,599617370152973935,1253.00
2025-12-25 12:44:21.920050,599617370152973935,70.00
2025-12-25 12:44:21.920050,599617370152973935,-640.00
2025-12-25 12:44:21.920050,599617370152973935,-285.00
2025-12-25 12:44:21.920050,599617370152973935,56.00
2025-12-25 12:44:21.920050,599617370152973935,-84.00
2025-12-25 12:44:21.920050,599617370152973935,-162.00
2025-12-25 12:44:21.920050,599617370152973935,-91.00
2025-12-25 12:44:21.920050,599617370152973935,-96.00
2025-12-25 12:44:21.920050,599617370152973935,-113.00
2025-12-25 12:44:21.920050,599617370152973935,-89.00
2025-12-25 12:44:21.920050,599617370152973935,-63.00
2025-12-25 12:44:21.920050,599617370152973935,-21.00
2025-12-25 12:44:21.920050,599617370152973935,14.00
2025-12-25 12:44:21.920050,599617370152973935,11.00
2025-12-25 12:44:21.920050,599617370152973935,-4.00
2025-12-25 12:44:21.920050,599617370152973935,-28.00
2025-12-25 12:44:21.920050,599617370152973935,-21.00
2025-12-25 12:44:21.920050,599617370152973935,11.00
2025-12-25 12:44:21.920050,599617370152973935,16.00
2025-12-25 12:44:21.920050,599617370152973935,35.00
2025-12-25 12:44:21.920050,599617370152973935,87.00
2025-12-25 12:44:21.920050,599617370152973935,113.00
2025-12-25 12:44:21.920050,599617370152973935,101.00
2025-12-25 12:44:21.920050,599617370152973935,98.00
2025-12-25 12:44:21.920050,599617370152973935,108.00
2025-12-25 12:44:21.920050,599617370152973935,87.00
2025-12-25 12:44:21.920050,599617370152973935,70.00
2025-12-25 12:44:21.920050,599617370152973935,84.00
2025-12-25 12:44:21.920050,599617370152973935,47.00
2025-12-25 12:44:21.920050,599617370152973935,-14.00
2025-12-25 12:44:21.920050,599617370152973935,-40.00
2025-12-25 12:44:21.920050,599617370152973935,-75.00
2025-12-25 12:44:22.392651,599617370713793048,-136.00
2025-12-25 12:44:22.392651,599617370713793048,-167.00
2025-12-25 12:44:22.392651,599617370713793048,-179.00
2025-12-25 12:44:22.392651,599617370713793048,-216.00
2025-12-25 12:44:22.392651,599617370713793048,-219.00
2025-12-25 12:44:22.392651,599617370713793048,-174.00
2025-12-25 12:44:22.392651,599617370713793048,-171.00
2025-12-25 12:44:22.392651,599617370713793048,-188.00
2025-12-25 12:44:22.392651,599617370713793048,-176.00
2025-12-25 12:44:22.392651,599617370713793048,-174.00
2025-12-25 12:44:22.392651,599617370713793048,-179.00
2025-12-25 12:44:22.392651,599617370713793048,-162.00
2025-12-25 12:44:22.392651,599617370713793048,-143.00
2025-12-25 12:44:22.392651,599617370713793048,-136.00
2025-12-25 12:44:22.392651,599617370713793048,-136.00
2025-12-25 12:44:22.392651,599617370713793048,-136.00
2025-12-25 12:44:22.392651,599617370713793048,-122.00
2025-12-25 12:44:22.392651,599617370713793048,-103.00
2025-12-25 12:44:22.392651,599617370713793048,-124.00
2025-12-25 12:44:22.392651,599617370713793048,-164.00
2025-12-25 12:44:22.392651,599617370713793048,-127.00
2025-12-25 12:44:22.392651,599617370713793048,-68.00
2025-12-25 12:44:22.392651,599617370713793048,-84.00
2025-12-25 12:44:22.392651,599617370713793048,-103.00
2025-12-25 12:44:22.392651,599617370713793048,-80.00
2025-12-25 12:44:22.392651,599617370713793048,-80.00
2025-12-25 12:44:22.392651,599617370713793048,-113.00
2025-12-25 12:44:22.392651,599617370713793048,-124.00
2025-12-25 12:44:22.392651,599617370713793048,-110.00
2025-12-25 12:44:22.392651,599617370713793048,-101.00
2025-12-25 12:44:22.392651,599617370713793048,-98.00
2025-12-25 12:44:22.392651,599617370713793048,-96.00
2025-12-25 12:44:22.392651,599617370713793048,-91.00
2025-12-25 12:44:22.392651,599617370713793048,-82.00
2025-12-25 12:44:22.392651,599617370713793048,-77.00
2025-12-25 12:44:22.392651,599617370713793048,-82.00
2025-12-25 12:44:22.392651,599617370713793048,-91.00
2025-12-25 12:44:22.392651,599617370713793048,-98.00
2025-12-25 12:44:22.392651,599617370713793048,-87.00
2025-12-25 12:44:22.392651,599617370713793048,-58.00
2025-12-25 12:44:22.392651,599617370713793048,-30.00
2025-12-25 12:44:22.392651,599617370713793048,-35.00
2025-12-25 12:44:22.392651,599617370713793048,-61.00
2025-12-25 12:44:22.392651,599617370713793048,-65.00
2025-12-25 12:44:22.392651,599617370713793048,-58.00
2025-12-25 12:44:22.392651,599617370713793048,-68.00
2025-12-25 12:44:22.392651,599617370713793048,-77.00
2025-12-25 12:44:22.392651,599617370713793048,-73.00
2025-12-25 12:44:22.392651,599617370713793048,-70.00
2025-12-25 12:44:22.392651,599617370713793048,-120.00
2025-12-25 12:44:22.392651,599617370713793048,-167.00
2025-12-25 12:44:22.392651,599617370713793048,174.00
2025-12-25 12:44:22.392651,599617370713793048,1034.00
2025-12-25 12:44:22.392651,599617370713793048,1594.00
2025-12-25 12:44:22.392651,599617370713793048,1003.00
2025-12-25 12:44:22.392651,599617370713793048,-214.00
2025-12-25 12:44:22.392651,599617370713793048,-640.00
2025-12-25 12:44:22.392651,599617370713793048,-193.00
2025-12-25 12:44:22.392651,599617370713793048,16.00
2025-12-25 12:44:22.392651,599617370713793048,-143.00
2025-12-25 12:44:22.392651,599617370713793048,-150.00
2025-12-25 12:44:22.392651,599617370713793048,-75.00
2025-12-25 12:44:22.392651,599617370713793048,-101.00
2025-12-25 12:44:22.392651,599617370713793048,-115.00
2025-12-25 12:44:22.392651,599617370713793048,-94.00
2025-12-25 12:44:22.392651,599617370713793048,-110.00
2025-12-25 12:44:22.392651,599617370713793048,-98.00
2025-12-25 12:44:22.392651,599617370713793048,-28.00
2025-12-25 12:44:22.392651,599617370713793048,11.00
2025-12-25 12:44:22.392651,599617370713793048,4.00
2025-12-25 12:44:22.392651,599617370713793048,14.00
2025-12-25 12:44:22.392651,599617370713793048,21.00
2025-12-25 12:44:22.392651,599617370713793048,14.00
2025-12-25 12:44:22.956840,599617371274612161,37.00
2025-12-25 12:44:22.956840,599617371274612161,77.00
2025-12-25 12:44:22.956840,599617371274612161,91.00
2025-12-25 12:44:22.956840,599617371274612161,82.00
2025-12-25 12:44:22.956840,599617371274612161,89.00
2025-12-25 12:44:22.956840,599617371274612161,115.00
2025-12-25 12:44:22.956840,599617371274612161,115.00
2025-12-25 12:44:22.956840,599617371274612161,96.00
2025-12-25 12:44:22.956840,599617371274612161,98.00
2025-12-25 12:44:22.956840,599617371274612161,89.00
2025-12-25 12:44:22.956840,599617371274612161,40.00
2025-12-25 12:44:22.956840,599617371274612161,-4.00
2025-12-25 12:44:22.956840,599617371274612161,-40.00
2025-12-25 12:44:22.956840,599617371274612161,-91.00
2025-12-25 12:44:22.956840,599617371274612161,-122.00
2025-12-25 12:44:22.956840,599617371274612161,-139.00
2025-12-25 12:44:22.956840,599617371274612161,-193.00
2025-12-25 12:44:22.956840,599617371274612161,-219.00
2025-12-25 12:44:22.956840,599617371274612161,-197.00
2025-12-25 12:44:22.956840,599617371274612161,-207.00
2025-12-25 12:44:22.956840,599617371274612161,-207.00
2025-12-25 12:44:22.956840,599617371274612161,-162.00
2025-12-25 12:44:22.956840,599617371274612161,-153.00
2025-12-25 12:44:22.956840,599617371274612161,-174.00
2025-12-25 12:44:22.956840,599617371274612161,-153.00
2025-12-25 12:44:22.956840,599617371274612161,-143.00
2025-12-25 12:44:22.956840,599617371274612161,-169.00
2025-12-25 12:44:22.956840,599617371274612161,-157.00
2025-12-25 12:44:22.956840,599617371274612161,-127.00
2025-12-25 12:44:22.956840,599617371274612161,-141.00
2025-12-25 12:44:22.956840,599617371274612161,-162.00
2025-12-25 12:44:22.956840,599617371274612161,-139.00
2025-12-25 12:44:22.956840,599617371274612161,-103.00
2025-12-25 12:44:22.956840,599617371274612161,-120.00
2025-12-25 12:44:22.956840,599617371274612161,-136.00
2025-12-25 12:44:22.956840,599617371274612161,-122.00
2025-12-25 12:44:22.956840,599617371274612161,-131.00
2025-12-25 12:44:22.956840,599617371274612161,-141.00
2025-12-25 12:44:22.956840,599617371274612161,-131.00
2025-12-25 12:44:22.956840,599617371274612161,-134.00
2025-12-25 12:44:22.956840,599617371274612161,-131.00
2025-12-25 12:44:22.956840,599617371274612161,-117.00
2025-12-25 12:44:22.956840,599617371274612161,-115.00
2025-12-25 12:44:22.956840,599617371274612161,-117.00
2025-12-25 12:44:22.956840,599617371274612161,-110.00
2025-12-25 12:44:22.956840,599617371274612161,-101.00
2025-12-25 12:44:22.956840,599617371274612161,-106.00
2025-12-25 12:44:22.956840,599617371274612161,-106.00
2025-12-25 12:44:22.956840,599617371274612161,-96.00
2025-12-25 12:44:22.956840,599617371274612161,-96.00
2025-12-25 12:44:22.956840,599617371274612161,-103.00
2025-12-25 12:44:22.956840,599617371274612161,-110.00
2025-12-25 12:44:22.956840,599617371274612161,-117.00
2025-12-25 12:44:22.956840,599617371274612161,-94.00
2025-12-25 12:44:22.956840,599617371274612161,-47.00
2025-12-25 12:44:22.956840,599617371274612161,-25.00
2025-12-25 12:44:22.956840,599617371274612161,-37.00
2025-12-25 12:44:22.956840,599617371274612161,-61.00
2025-12-25 12:44:22.956840,599617371274612161,-82.00
2025-12-25 12:44:22.956840,599617371274612161,-84.00
2025-12-25 12:44:22.956840,599617371274612161,-84.00
2025-12-25 12:44:22.956840,599617371274612161,-84.00
2025-12-25 12:44:22.956840,599617371274612161,-75.00
2025-12-25 12:44:22.956840,599617371274612161,-73.00
2025-12-25 12:44:22.956840,599617371274612161,-103.00
2025-12-25 12:44:22.956840,599617371274612161,-146.00
2025-12-25 12:44:22.956840,599617371274612161,94.00
2025-12-25 12:44:22.956840,599617371274612161,852.00
2025-12-25 12:44:22.956840,599617371274612161,1498.00
2025-12-25 12:44:22.956840,599617371274612161,1088.00
2025-12-25 12:44:22.956840,599617371274612161,-96.00
2025-12-25 12:44:22.956840,599617371274612161,-659.00
2025-12-25 12:44:22.956840,599617371274612161,-268.00
2025-12-25 12:44:23.598304,599617371835431274,7.00
2025-12-25 12:44:23.598304,599617371835431274,-136.00
2025-12-25 12:44:23.598304,599617371835431274,-164.00
2025-12-25 12:44:23.598304,599617371835431274,-73.00
2025-12-25 12:44:23.598304,599617371835431274,-77.00
2025-12-25 12:44:23.598304,599617371835431274,-101.00
2025-12-25 12:44:23.598304,599617371835431274,-84.00
2025-12-25 12:44:23.598304,599617371835431274,-68.00
2025-12-25 12:44:23.598304,599617371835431274,-49.00
2025-12-25 12:44:23.598304,599617371835431274,-25.00
2025-12-25 12:44:23.598304,599617371835431274,-18.00
2025-12-25 12:44:23.598304,599617371835431274,-14.00
2025-12-25 12:44:23.598304,599617371835431274,-14.00
2025-12-25 12:44:23.598304,599617371835431274,-9.00
2025-12-25 12:44:23.598304,599617371835431274,21.00
2025-12-25 12:44:23.598304,599617371835431274,51.00
2025-12-25 12:44:23.598304,599617371835431274,56.00
2025-12-25 12:44:23.598304,599617371835431274,58.00
2025-12-25 12:44:23.598304,599617371835431274,77.00
2025-12-25 12:44:23.598304,599617371835431274,98.00
2025-12-25 12:44:23.598304,599617371835431274,113.00
2025-12-25 12:44:23.598304,599617371835431274,120.00
2025-12-25 12:44:23.598304,599617371835431274,113.00
2025-12-25 12:44:23.598304,599617371835431274,91.00
2025-12-25 12:44:23.598304,599617371835431274,70.00
2025-12-25 12:44:23.598304,599617371835431274,54.00
2025-12-25 12:44:23.598304,599617371835431274,16.00
2025-12-25 12:44:23.598304,599617371835431274,-42.00
2025-12-25 12:44:23.598304,599617371835431274,-89.00
2025-12-25 12:44:23.598304,599617371835431274,-124.00
2025-12-25 12:44:23.598304,599617371835431274,-157.00
2025-12-25 12:44:23.598304,599617371835431274,-174.00
2025-12-25 12:44:23.598304,599617371835431274,-181.00
2025-12-25 12:44:23.598304,599617371835431274,-200.00
2025-12-25 12:44:23.598304,599617371835431274,-221.00
2025-12-25 12:44:23.598304,599617371835431274,-195.00
2025-12-25 12:44:23.598304,599617371835431274,-146.00
2025-12-25 12:44:23.598304,599617371835431274,-150.00
2025-12-25 12:44:23.598304,599617371835431274,-171.00
2025-12-25 12:44:23.598304,599617371835431274,-162.00
2025-12-25 12:44:23.598304,599617371835431274,-164.00
2025-12-25 12:44:23.598304,599617371835431274,-179.00
2025-12-25 12:44:23.598304,599617371835431274,-157.00
2025-12-25 12:44:23.598304,599617371835431274,-117.00
2025-12-25 12:44:23.598304,599617371835431274,-115.00
2025-12-25 12:44:23.598304,599617371835431274,-136.00
2025-12-25 12:44:23.598304,599617371835431274,-141.00
2025-12-25 12:44:23.598304,599617371835431274,-131.00
2025-12-25 12:44:23.598304,599617371835431274,-122.00
2025-12-25 12:44:23.598304,599617371835431274,-129.00
2025-12-25 12:44:23.598304,599617371835431274,-146.00
2025-12-25 12:44:23.598304,599617371835431274,-129.00
2025-12-25 12:44:23.598304,599617371835431274,-91.00
2025-12-25 12:44:23.598304,599617371835431274,-94.00
2025-12-25 12:44:23.598304,599617371835431274,-129.00
2025-12-25 12:44:23.598304,599617371835431274,-134.00
2025-12-25 12:44:23.598304,599617371835431274,-91.00
2025-12-25 12:44:23.598304,599617371835431274,-75.00
2025-12-25 12:44:23.598304,599617371835431274,-106.00
2025-12-25 12:44:23.598304,599617371835431274,-106.00
2025-12-25 12:44:23.598304,599617371835431274,-80.00
2025-12-25 12:44:23.598304,599617371835431274,-87.00
2025-12-25 12:44:23.598304,599617371835431274,-103.00
2025-12-25 12:44:23.598304,599617371835431274,-110.00
2025-12-25 12:44:23.598304,599617371835431274,-120.00
2025-12-25 12:44:23.598304,599617371835431274,-113.00
2025-12-25 12:44:23.598304,599617371835431274,-84.00
2025-12-25 12:44:23.598304,599617371835431274,-61.00
2025-12-25 12:44:23.598304,599617371835431274,-49.00
2025-12-25 12:44:23.598304,599617371835431274,-56.00
2025-12-25 12:44:23.598304,599617371835431274,-61.00
2025-12-25 12:44:23.598304,599617371835431274,-28.00
2025-12-25 12:44:23.598304,599617371835431274,-7.00
2025-12-25 12:44:24.089031,599617372396255475,-44.00
2025-12-25 12:44:24.089031,599617372396255475,-87.00
2025-12-25 12:44:24.089031,599617372396255475,-87.00
2025-12-25 12:44:24.089031,599617372396255475,-70.00
2025-12-25 12:44:24.089031,599617372396255475,-63.00
2025-12-25 12:44:24.089031,599617372396255475,-61.00
2025-12-25 12:44:24.089031,599617372396255475,-56.00
2025-12-25 12:44:24.089031,599617372396255475,-91.00
2025-12-25 12:44:24.089031,599617372396255475,-141.00
2025-12-25 12:44:24.089031,599617372396255475,117.00
2025-12-25 12:44:24.089031,599617372396255475,885.00
2025-12-25 12:44:24.089031,599617372396255475,1514.00
2025-12-25 12:44:24.089031,599617372396255475,1088.00
2025-12-25 12:44:24.089031,599617372396255475,-80.00
2025-12-25 12:44:24.089031,599617372396255475,-600.00
2025-12-25 12:44:24.089031,599617372396255475,-214.00
2025-12-25 12:44:24.089031,599617372396255475,23.00
2025-12-25 12:44:24.089031,599617372396255475,-113.00
2025-12-25 12:44:24.089031,599617372396255475,-127.00
2025-12-25 12:44:24.089031,599617372396255475,-58.00
2025-12-25 12:44:24.089031,599617372396255475,-73.00
2025-12-25 12:44:24.089031,599617372396255475,-49.00
2025-12-25 12:44:24.089031,599617372396255475,-11.00
2025-12-25 12:44:24.089031,599617372396255475,-30.00
2025-12-25 12:44:24.089031,599617372396255475,-30.00
2025-12-25 12:44:24.089031,599617372396255475,-7.00
2025-12-25 12:44:24.089031,599617372396255475,-30.00
2025-12-25 12:44:24.089031,599617372396255475,-37.00
2025-12-25 12:44:24.089031,599617372396255475,35.00
2025-12-25 12:44:24.089031,599617372396255475,94.00
2025-12-25 12:44:24.089031,599617372396255475,75.00
2025-12-25 12:44:24.089031,599617372396255475,75.00
2025-12-25 12:44:24.089031,599617372396255475,101.00
2025-12-25 12:44:24.089031,599617372396255475,101.00
2025-12-25 12:44:24.089031,599617372396255475,110.00
2025-12-25 12:44:24.089031,599617372396255475,134.00
2025-12-25 12:44:24.089031,599617372396255475,141.00
2025-12-25 12:44:24.089031,599617372396255475,150.00
2025-12-25 12:44:24.089031,599617372396255475,143.00
2025-12-25 12:44:24.089031,599617372396255475,113.00
2025-12-25 12:44:24.089031,599617372396255475,89.00
2025-12-25 12:44:24.089031,599617372396255475,61.00
2025-12-25 12:44:24.089031,599617372396255475,18.00
2025-12-25 12:44:24.089031,599617372396255475,-37.00
2025-12-25 12:44:24.089031,599617372396255475,-96.00
2025-12-25 12:44:24.089031,599617372396255475,-120.00
2025-12-25 12:44:24.089031,599617372396255475,-124.00
2025-12-25 12:44:24.089031,599617372396255475,-169.00
2025-12-25 12:44:24.089031,599617372396255475,-204.00
2025-12-25 12:44:24.089031,599617372396255475,-186.00
2025-12-25 12:44:24.089031,599617372396255475,-179.00
2025-12-25 12:44:24.089031,599617372396255475,-197.00
2025-12-25 12:44:24.089031,599617372396255475,-193.00
2025-12-25 12:44:24.089031,599617372396255475,-176.00
2025-12-25 12:44:24.089031,599617372396255475,-179.00
2025-12-25 12:44:24.089031,599617372396255475,-179.00
2025-12-25 12:44:24.089031,599617372396255475,-155.00
2025-12-25 12:44:24.089031,599617372396255475,-136.00
2025-12-25 12:44:24.089031,599617372396255475,-143.00
2025-12-25 12:44:24.089031,599617372396255475,-143.00
2025-12-25 12:44:24.089031,599617372396255475,-124.00
2025-12-25 12:44:24.089031,599617372396255475,-127.00
2025-12-25 12:44:24.089031,599617372396255475,-136.00
2025-12-25 12:44:24.089031,599617372396255475,-124.00
2025-12-25 12:44:24.089031,599617372396255475,-113.00
2025-12-25 12:44:24.089031,599617372396255475,-120.00
2025-12-25 12:44:24.089031,599617372396255475,-122.00
2025-12-25 12:44:24.089031,599617372396255475,-117.00
2025-12-25 12:44:24.089031,599617372396255475,-122.00
2025-12-25 12:44:24.089031,599617372396255475,-122.00
2025-12-25 12:44:24.089031,599617372396255475,-117.00
2025-12-25 12:44:24.089031,599617372396255475,-117.00
2025-12-25 12:44:24.089031,599617372396255475,-122.00
2025-12-25 12:44:24.663619,599617372957079674,-115.00
2025-12-25 12:44:24.663619,599617372957079674,-110.00
2025-12-25 12:44:24.663619,599617372957079674,-115.00
2025-12-25 12:44:24.663619,599617372957079674,-115.00
2025-12-25 12:44:24.663619,599617372957079674,-108.00
2025-12-25 12:44:24.663619,599617372957079674,-98.00
2025-12-25 12:44:24.663619,599617372957079674,-94.00
2025-12-25 12:44:24.663619,599617372957079674,-98.00
2025-12-25 12:44:24.663619,599617372957079674,-101.00
2025-12-25 12:44:24.663619,599617372957079674,-96.00
2025-12-25 12:44:24.663619,599617372957079674,-103.00
2025-12-25 12:44:24.663619,599617372957079674,-103.00
2025-12-25 12:44:24.663619,599617372957079674,-84.00
2025-12-25 12:44:24.663619,599617372957079674,-61.00
2025-12-25 12:44:24.663619,599617372957079674,-40.00
2025-12-25 12:44:24.663619,599617372957079674,-37.00
2025-12-25 12:44:24.663619,599617372957079674,-58.00
2025-12-25 12:44:24.663619,599617372957079674,-82.00
2025-12-25 12:44:24.663619,599617372957079674,-89.00
2025-12-25 12:44:24.663619,599617372957079674,-89.00
2025-12-25 12:44:24.663619,599617372957079674,-89.00
2025-12-25 12:44:24.663619,599617372957079674,-82.00
2025-12-25 12:44:24.663619,599617372957079674,-94.00
2025-12-25 12:44:24.663619,599617372957079674,-143.00
2025-12-25 12:44:24.663619,599617372957079674,-155.00
2025-12-25 12:44:24.663619,599617372957079674,127.00
2025-12-25 12:44:24.663619,599617372957079674,876.00
2025-12-25 12:44:24.663619,599617372957079674,1514.00
2025-12-25 12:44:24.663619,599617372957079674,1100.00
2025-12-25 12:44:24.663619,599617372957079674,-98.00
2025-12-25 12:44:24.663619,599617372957079674,-631.00
2025-12-25 12:44:24.663619,599617372957079674,-240.00
2025-12-25 12:44:24.663619,599617372957079674,-16.00
2025-12-25 12:44:24.663619,599617372957079674,-160.00
2025-12-25 12:44:24.663619,599617372957079674,-157.00
2025-12-25 12:44:24.663619,599617372957079674,-94.00
2025-12-25 12:44:24.663619,599617372957079674,-124.00
2025-12-25 12:44:24.663619,599617372957079674,-94.00
2025-12-25 12:44:24.663619,599617372957079674,-30.00
2025-12-25 12:44:24.663619,599617372957079674,-44.00
2025-12-25 12:44:24.663619,599617372957079674,-49.00
2025-12-25 12:44:24.663619,599617372957079674,-4.00
2025-12-25 12:44:24.663619,599617372957079674,2.00
2025-12-25 12:44:24.663619,599617372957079674,-14.00
2025-12-25 12:44:24.663619,599617372957079674,11.00
2025-12-25 12:44:24.663619,599617372957079674,42.00
2025-12-25 12:44:24.663619,599617372957079674,30.00
2025-12-25 12:44:24.663619,599617372957079674,32.00
2025-12-25 12:44:24.663619,599617372957079674,98.00
2025-12-25 12:44:24.663619,599617372957079674,164.00
2025-12-25 12:44:24.663619,599617372957079674,167.00
2025-12-25 12:44:24.663619,599617372957079674,162.00
2025-12-25 12:44:24.663619,599617372957079674,179.00
2025-12-25 12:44:24.663619,599617372957079674,171.00
2025-12-25 12:44:24.663619,599617372957079674,143.00
2025-12-25 12:44:24.663619,599617372957079674,139.00
2025-12-25 12:44:24.663619,599617372957079674,136.00
2025-12-25 12:44:24.663619,599617372957079674,89.00
2025-12-25 12:44:24.663619,599617372957079674,18.00
2025-12-25 12:44:24.663619,599617372957079674,-32.00
2025-12-25 12:44:24.663619,599617372957079674,-84.00
2025-12-25 12:44:24.663619,599617372957079674,-129.00
2025-12-25 12:44:24.663619,599617372957079674,-139.00
2025-12-25 12:44:24.663619,599617372957079674,-162.00
2025-12-25 12:44:24.663619,599617372957079674,-209.00
2025-12-25 12:44:24.663619,599617372957079674,-226.00
2025-12-25 12:44:24.663619,599617372957079674,-200.00
2025-12-25 12:44:24.663619,599617372957079674,-167.00
2025-12-25 12:44:24.663619,599617372957079674,-169.00
2025-12-25 12:44:24.663619,599617372957079674,-181.00
2025-12-25 12:44:24.663619,599617372957079674,-167.00
2025-12-25 12:44:24.663619,599617372957079674,-150.00
2025-12-25 12:44:24.663619,599617372957079674,-139.00
2025-12-25 12:44:25.380472,599617373517903873,-122.00
2025-12-25 12:44:25.380472,599617373517903873,-122.00
2025-12-25 12:44:25.380472,599617373517903873,-136.00
2025-12-25 12:44:25.380472,599617373517903873,-134.00
2025-12-25 12:44:25.380472,599617373517903873,-127.00
2025-12-25 12:44:25.380472,599617373517903873,-134.00
2025-12-25 12:44:25.380472,599617373517903873,-122.00
2025-12-25 12:44:25.380472,599617373517903873,-96.00
2025-12-25 12:44:25.380472,599617373517903873,-87.00
2025-12-25 12:44:25.380472,599617373517903873,-84.00
2025-12-25 12:44:25.380472,599617373517903873,-61.00
2025-12-25 12:44:25.380472,599617373517903873,-68.00
2025-12-25 12:44:25.380472,599617373517903873,-127.00
2025-12-25 12:44:25.380472,599617373517903873,-131.00
2025-12-25 12:44:25.380472,599617373517903873,-84.00
2025-12-25 12:44:25.380472,599617373517903873,-80.00
2025-12-25 12:44:25.380472,599617373517903873,-96.00
2025-12-25 12:44:25.380472,599617373517903873,-87.00
2025-12-25 12:44:25.380472,599617373517903873,-87.00
2025-12-25 12:44:25.380472,599617373517903873,-96.00
2025-12-25 12:44:25.380472,599617373517903873,-87.00
2025-12-25 12:44:25.380472,599617373517903873,-84.00
2025-12-25 12:44:25.380472,599617373517903873,-98.00
2025-12-25 12:44:25.380472,599617373517903873,-103.00
2025-12-25 12:44:25.380472,599617373517903873,-89.00
2025-12-25 12:44:25.380472,599617373517903873,-73.00
2025-12-25 12:44:25.380472,599617373517903873,-54.00
2025-12-25 12:44:25.380472,599617373517903873,-42.00
2025-12-25 12:44:25.380472,599617373517903873,-51.00
2025-12-25 12:44:25.380472,599617373517903873,-68.00
2025-12-25 12:44:25.380472,599617373517903873,-75.00
2025-12-25 12:44:25.380472,599617373517903873,-91.00
2025-12-25 12:44:25.380472,599617373517903873,-115.00
2025-12-25 12:44:25.380472,599617373517903873,-103.00
2025-12-25 12:44:25.380472,599617373517903873,-80.00
2025-12-25 12:44:25.380472,599617373517903873,-91.00
2025-12-25 12:44:25.380472,599617373517903873,-155.00
2025-12-25 12:44:25.380472,599617373517903873,-124.00
2025-12-25 12:44:25.380472,599617373517903873,374.00
2025-12-25 12:44:25.380472,599617373517903873,1213.00
2025-12-25 12:44:25.380472,599617373517903873,1425.00
2025-12-25 12:44:25.380472,599617373517903873,506.00
2025-12-25 12:44:25.380472,599617373517903873,-513.00
2025-12-25 12:44:25.380472,599617373517903873,-525.00
2025-12-25 12:44:25.380472,599617373517903873,-94.00
2025-12-25 12:44:25.380472,599617373517903873,-70.00
2025-12-25 12:44:25.380472,599617373517903873,-179.00
2025-12-25 12:44:25.380472,599617373517903873,-122.00
2025-12-25 12:44:25.380472,599617373517903873,-91.00
2025-12-25 12:44:25.380472,599617373517903873,-117.00
2025-12-25 12:44:25.380472,599617373517903873,-94.00
2025-12-25 12:44:25.380472,599617373517903873,-70.00
2025-12-25 12:44:25.380472,599617373517903873,-77.00
2025-12-25 12:44:25.380472,599617373517903873,-63.00
2025-12-25 12:44:25.380472,599617373517903873,-40.00
2025-12-25 12:44:25.380472,599617373517903873,-28.00
2025-12-25 12:44:25.380472,599617373517903873,-11.00
2025-12-25 12:44:25.380472,599617373517903873,7.00
2025-12-25 12:44:25.380472,599617373517903873,16.00
2025-12-25 12:44:25.380472,599617373517903873,32.00
2025-12-25 12:44:25.380472,599617373517903873,54.00
2025-12-25 12:44:25.380472,599617373517903873,73.00
2025-12-25 12:44:25.380472,599617373517903873,91.00
2025-12-25 12:44:25.380472,599617373517903873,103.00
2025-12-25 12:44:25.380472,599617373517903873,113.00
2025-12-25 12:44:25.380472,599617373517903873,122.00
2025-12-25 12:44:25.380472,599617373517903873,122.00
2025-12-25 12:44:25.380472,599617373517903873,108.00
2025-12-25 12:44:25.380472,599617373517903873,89.00
2025-12-25 12:44:25.380472,599617373517903873,58.00
2025-12-25 12:44:25.380472,599617373517903873,9.00
2025-12-25 12:44:25.380472,599617373517903873,-54.00
2025-12-25 12:44:25.380472,599617373517903873,-113.00
2025-12-25 12:44:25.878621,599617374078728072,-157.00
2025-12-25 12:44:25.878621,599617374078728072,-190.00
2025-12-25 12:44:25.878621,599617374078728072,-219.00
2025-12-25 12:44:25.878621,599617374078728072,-235.00
2025-12-25 12:44:25.878621,599617374078728072,-240.00
2025-12-25 12:44:25.878621,599617374078728072,-242.00
2025-12-25 12:44:25.878621,599617374078728072,-242.00
2025-12-25 12:44:25.878621,599617374078728072,-235.00
2025-12-25 12:44:25.878621,599617374078728072,-233.00
2025-12-25 12:44:25.878621,599617374078728072,-226.00
2025-12-25 12:44:25.878621,599617374078728072,-216.00
2025-12-25 12:44:25.878621,599617374078728072,-209.00
2025-12-25 12:44:25.878621,599617374078728072,-197.00
2025-12-25 12:44:25.878621,599617374078728072,-188.00
2025-12-25 12:44:25.878621,599617374078728072,-188.00
2025-12-25 12:44:25.878621,599617374078728072,-186.00
2025-12-25 12:44:25.878621,599617374078728072,-179.00
2025-12-25 12:44:25.878621,599617374078728072,-171.00
2025-12-25 12:44:25.878621,599617374078728072,-162.00
2025-12-25 12:44:25.878621,599617374078728072,-155.00
2025-12-25 12:44:25.878621,599617374078728072,-148.00
2025-12-25 12:44:25.878621,599617374078728072,-143.00
2025-12-25 12:44:25.878621,599617374078728072,-139.00
2025-12-25 12:44:25.878621,599617374078728072,-131.00
2025-12-25 12:44:25.878621,599617374078728072,-120.00
2025-12-25 12:44:25.878621,599617374078728072,-117.00
2025-12-25 12:44:25.878621,599617374078728072,-122.00
2025-12-25 12:44:25.878621,599617374078728072,-117.00
2025-12-25 12:44:25.878621,599617374078728072,-113.00
2025-12-25 12:44:25.878621,599617374078728072,-106.00
2025-12-25 12:44:25.878621,599617374078728072,-98.00
2025-12-25 12:44:25.878621,599617374078728072,-96.00
2025-12-25 12:44:25.878621,599617374078728072,-101.00
2025-12-25 12:44:25.878621,599617374078728072,-106.00
2025-12-25 12:44:25.878621,599617374078728072,-108.00
2025-12-25 12:44:25.878621,599617374078728072,-110.00
2025-12-25 12:44:25.878621,599617374078728072,-110.00
2025-12-25 12:44:25.878621,599617374078728072,-106.00
2025-12-25 12:44:25.878621,599617374078728072,-89.00
2025-12-25 12:44:25.878621,599617374078728072,-63.00
2025-12-25 12:44:25.878621,599617374078728072,-54.00
2025-12-25 12:44:25.878621,599617374078728072,-73.00
2025-12-25 12:44:25.878621,599617374078728072,-94.00
2025-12-25 12:44:25.878621,599617374078728072,-101.00
2025-12-25 12:44:25.878621,599617374078728072,-98.00
2025-12-25 12:44:25.878621,599617374078728072,-98.00
2025-12-25 12:44:25.878621,599617374078728072,-94.00
2025-12-25 12:44:25.878621,599617374078728072,-91.00
2025-12-25 12:44:25.878621,599617374078728072,-115.00
2025-12-25 12:44:25.878621,599617374078728072,-181.00
2025-12-25 12:44:25.878621,599617374078728072,-25.00
2025-12-25 12:44:25.878621,599617374078728072,654.00
2025-12-25 12:44:25.878621,599617374078728072,1418.00
2025-12-25 12:44:25.878621,599617374078728072,1312.00
2025-12-25 12:44:25.878621,599617374078728072,219.00
2025-12-25 12:44:25.878621,599617374078728072,-591.00
2025-12-25 12:44:25.878621,599617374078728072,-353.00
2025-12-25 12:44:25.878621,599617374078728072,0.00
2025-12-25 12:44:25.878621,599617374078728072,-127.00
2025-12-25 12:44:25.878621,599617374078728072,-200.00
2025-12-25 12:44:25.878621,599617374078728072,-103.00
2025-12-25 12:44:25.878621,599617374078728072,-106.00
2025-12-25 12:44:25.878621,599617374078728072,-136.00
2025-12-25 12:44:25.878621,599617374078728072,-106.00
2025-12-25 12:44:25.878621,599617374078728072,-84.00
2025-12-25 12:44:25.878621,599617374078728072,-84.00
2025-12-25 12:44:25.878621,599617374078728072,-70.00
2025-12-25 12:44:25.878621,599617374078728072,-58.00
2025-12-25 12:44:25.878621,599617374078728072,-49.00
2025-12-25 12:44:25.878621,599617374078728072,-35.00
2025-12-25 12:44:25.878621,599617374078728072,-18.00
2025-12-25 12:44:25.878621,599617374078728072,-2.00
2025-12-25 12:44:25.878621,599617374078728072,14.00
2025-12-25 12:44:26.374873,599617374639557359,32.00
2025-12-25 12:44:26.374873,599617374639557359,54.00
2025-12-25 12:44:26.374873,599617374639557359,77.00
2025-12-25 12:44:26.374873,599617374639557359,96.00
2025-12-25 12:44:26.374873,599617374639557359,108.00
2025-12-25 12:44:26.374873,599617374639557359,115.00
2025-12-25 12:44:26.374873,599617374639557359,120.00
2025-12-25 12:44:26.374873,599617374639557359,108.00
2025-12-25 12:44:26.374873,599617374639557359,89.00
2025-12-25 12:44:26.374873,599617374639557359,63.00
2025-12-25 12:44:26.374873,599617374639557359,16.00
2025-12-25 12:44:26.374873,599617374639557359,-49.00
2025-12-25 12:44:26.374873,599617374639557359,-110.00
2025-12-25 12:44:26.374873,599617374639557359,-153.00
2025-12-25 12:44:26.374873,599617374639557359,-181.00
2025-12-25 12:44:26.374873,599617374639557359,-200.00
2025-12-25 12:44:26.374873,599617374639557359,-207.00
2025-12-25 12:44:26.374873,599617374639557359,-209.00
2025-12-25 12:44:26.374873,599617374639557359,-212.00
2025-12-25 12:44:26.374873,599617374639557359,-209.00
2025-12-25 12:44:26.374873,599617374639557359,-200.00
2025-12-25 12:44:26.374873,599617374639557359,-188.00
2025-12-25 12:44:26.374873,599617374639557359,-183.00
2025-12-25 12:44:26.374873,599617374639557359,-181.00
2025-12-25 12:44:26.374873,599617374639557359,-171.00
2025-12-25 12:44:26.374873,599617374639557359,-167.00
2025-12-25 12:44:26.374873,599617374639557359,-164.00
2025-12-25 12:44:26.374873,599617374639557359,-155.00
2025-12-25 12:44:26.374873,599617374639557359,-148.00
2025-12-25 12:44:26.374873,599617374639557359,-150.00
2025-12-25 12:44:26.374873,599617374639557359,-153.00
2025-12-25 12:44:26.374873,599617374639557359,-150.00
2025-12-25 12:44:26.374873,599617374639557359,-146.00
2025-12-25 12:44:26.374873,599617374639557359,-136.00
2025-12-25 12:44:26.374873,599617374639557359,-136.00
2025-12-25 12:44:26.374873,599617374639557359,-134.00
2025-12-25 12:44:26.374873,599617374639557359,-129.00
2025-12-25 12:44:26.374873,599617374639557359,-124.00
2025-12-25 12:44:26.374873,599617374639557359,-124.00
2025-12-25 12:44:26.374873,599617374639557359,-120.00
2025-12-25 12:44:26.374873,599617374639557359,-117.00
2025-12-25 12:44:26.374873,599617374639557359,-117.00
2025-12-25 12:44:26.374873,599617374639557359,-113.00
2025-12-25 12:44:26.374873,599617374639557359,-108.00
2025-12-25 12:44:26.374873,599617374639557359,-110.00
2025-12-25 12:44:26.374873,599617374639557359,-108.00
2025-12-25 12:44:26.374873,599617374639557359,-106.00
2025-12-25 12:44:26.374873,599617374639557359,-108.00
2025-12-25 12:44:26.374873,599617374639557359,-108.00
2025-12-25 12:44:26.374873,599617374639557359,-103.00
2025-12-25 12:44:26.374873,599617374639557359,-106.00
2025-12-25 12:44:26.374873,599617374639557359,-108.00
2025-12-25 12:44:26.374873,599617374639557359,-94.00
2025-12-25 12:44:26.374873,599617374639557359,-65.00
2025-12-25 12:44:26.374873,599617374639557359,-47.00
2025-12-25 12:44:26.374873,599617374639557359,-54.00
2025-12-25 12:44:26.374873,599617374639557359,-77.00
2025-12-25 12:44:26.374873,599617374639557359,-91.00
2025-12-25 12:44:26.374873,599617374639557359,-87.00
2025-12-25 12:44:26.374873,599617374639557359,-82.00
2025-12-25 12:44:26.374873,599617374639557359,-82.00
2025-12-25 12:44:26.374873,599617374639557359,-82.00
2025-12-25 12:44:26.374873,599617374639557359,-87.00
2025-12-25 12:44:26.374873,599617374639557359,-143.00
2025-12-25 12:44:26.374873,599617374639557359,-148.00
2025-12-25 12:44:26.374873,599617374639557359,287.00
2025-12-25 12:44:26.374873,599617374639557359,1140.00
2025-12-25 12:44:26.374873,599617374639557359,1561.00
2025-12-25 12:44:26.374873,599617374639557359,848.00
2025-12-25 12:44:26.374873,599617374639557359,-306.00
2025-12-25 12:44:26.374873,599617374639557359,-548.00
2025-12-25 12:44:26.374873,599617374639557359,-91.00
2025-12-25 12:44:26.374873,599617374639557359,-25.00
2025-12-25 12:44:26.938075,599617375200376472,-207.00
2025-12-25 12:44:26.938075,599617375200376472,-150.00
2025-12-25 12:44:26.938075,599617375200376472,-89.00
2025-12-25 12:44:26.938075,599617375200376472,-136.00
2025-12-25 12:44:26.938075,599617375200376472,-124.00
2025-12-25 12:44:26.938075,599617375200376472,-82.00
2025-12-25 12:44:26.938075,599617375200376472,-80.00
2025-12-25 12:44:26.938075,599617375200376472,-68.00
2025-12-25 12:44:26.938075,599617375200376472,-51.00
2025-12-25 12:44:26.938075,599617375200376472,-44.00
2025-12-25 12:44:26.938075,599617375200376472,-30.00
2025-12-25 12:44:26.938075,599617375200376472,-9.00
2025-12-25 12:44:26.938075,599617375200376472,11.00
2025-12-25 12:44:26.938075,599617375200376472,28.00
2025-12-25 12:44:26.938075,599617375200376472,42.00
2025-12-25 12:44:26.938075,599617375200376472,63.00
2025-12-25 12:44:26.938075,599617375200376472,87.00
2025-12-25 12:44:26.938075,599617375200376472,103.00
2025-12-25 12:44:26.938075,599617375200376472,115.00
2025-12-25 12:44:26.938075,599617375200376472,129.00
2025-12-25 12:44:26.938075,599617375200376472,136.00
2025-12-25 12:44:26.938075,599617375200376472,131.00
2025-12-25 12:44:26.938075,599617375200376472,117.00
2025-12-25 12:44:26.938075,599617375200376472,96.00
2025-12-25 12:44:26.938075,599617375200376472,54.00
2025-12-25 12:44:26.938075,599617375200376472,-4.00
2025-12-25 12:44:26.938075,599617375200376472,-68.00
2025-12-25 12:44:26.938075,599617375200376472,-122.00
2025-12-25 12:44:26.938075,599617375200376472,-160.00
2025-12-25 12:44:26.938075,599617375200376472,-186.00
2025-12-25 12:44:26.938075,599617375200376472,-204.00
2025-12-25 12:44:26.938075,599617375200376472,-209.00
2025-12-25 12:44:26.938075,599617375200376472,-209.00
2025-12-25 12:44:26.938075,599617375200376472,-204.00
2025-12-25 12:44:26.938075,599617375200376472,-202.00
2025-12-25 12:44:26.938075,599617375200376472,-195.00
2025-12-25 12:44:26.938075,599617375200376472,-183.00
2025-12-25 12:44:26.938075,599617375200376472,-179.00
2025-12-25 12:44:26.938075,599617375200376472,-176.00
2025-12-25 12:44:26.938075,599617375200376472,-171.00
2025-12-25 12:44:26.938075,599617375200376472,-162.00
2025-12-25 12:44:26.938075,599617375200376472,-155.00
2025-12-25 12:44:26.938075,599617375200376472,-148.00
2025-12-25 12:44:26.938075,599617375200376472,-146.00
2025-12-25 12:44:26.938075,599617375200376472,-146.00
2025-12-25 12:44:26.938075,599617375200376472,-143.00
2025-12-25 12:44:26.938075,599617375200376472,-139.00
2025-12-25 12:44:26.938075,599617375200376472,-134.00
2025-12-25 12:44:26.938075,599617375200376472,-131.00
2025-12-25 12:44:26.938075,599617375200376472,-129.00
2025-12-25 12:44:26.938075,599617375200376472,-124.00
2025-12-25 12:44:26.938075,599617375200376472,-120.00
2025-12-25 12:44:26.938075,599617375200376472,-115.00
2025-12-25 12:44:26.938075,599617375200376472,-115.00
2025-12-25 12:44:26.938075,599617375200376472,-113.00
2025-12-25 12:44:26.938075,599617375200376472,-110.00
2025-12-25 12:44:26.938075,599617375200376472,-110.00
2025-12-25 12:44:26.938075,599617375200376472,-106.00
2025-12-25 12:44:26.938075,599617375200376472,-101.00
2025-12-25 12:44:26.938075,599617375200376472,-98.00
2025-12-25 12:44:26.938075,599617375200376472,-101.00
2025-12-25 12:44:26.938075,599617375200376472,-101.00
2025-12-25 12:44:26.938075,599617375200376472,-98.00
2025-12-25 12:44:26.938075,599617375200376472,-94.00
2025-12-25 12:44:26.938075,599617375200376472,-91.00
2025-12-25 12:44:26.938075,599617375200376472,-91.00
2025-12-25 12:44:26.938075,599617375200376472,-94.00
2025-12-25 12:44:26.938075,599617375200376472,-101.00
2025-12-25 12:44:26.938075,599617375200376472,-106.00
2025-12-25 12:44:26.938075,599617375200376472,-106.00
2025-12-25 12:44:26.938075,599617375200376472,-82.00
2025-12-25 12:44:26.938075,599617375200376472,-56.00
2025-12-25 12:44:26.938075,599617375200376472,-44.00
2025-12-25 12:44:27.501434,599617375761200673,-44.00
2025-12-25 12:44:27.501434,599617375761200673,-56.00
2025-12-25 12:44:27.501434,599617375761200673,-82.00
2025-12-25 12:44:27.501434,599617375761200673,-82.00
2025-12-25 12:44:27.501434,599617375761200673,-68.00
2025-12-25 12:44:27.501434,599617375761200673,-68.00
2025-12-25 12:44:27.501434,599617375761200673,-73.00
2025-12-25 12:44:27.501434,599617375761200673,-68.00
2025-12-25 12:44:27.501434,599617375761200673,-94.00
2025-12-25 12:44:27.501434,599617375761200673,-148.00
2025-12-25 12:44:27.501434,599617375761200673,40.00
2025-12-25 12:44:27.501434,599617375761200673,742.00
2025-12-25 12:44:27.501434,599617375761200673,1479.00
2025-12-25 12:44:27.501434,599617375761200673,1314.00
2025-12-25 12:44:27.501434,599617375761200673,202.00
2025-12-25 12:44:27.501434,599617375761200673,-560.00
2025-12-25 12:44:27.501434,599617375761200673,-294.00
2025-12-25 12:44:27.501434,599617375761200673,25.00
2025-12-25 12:44:27.501434,599617375761200673,-117.00
2025-12-25 12:44:27.501434,599617375761200673,-186.00
2025-12-25 12:44:27.501434,599617375761200673,-91.00
2025-12-25 12:44:27.501434,599617375761200673,-101.00
2025-12-25 12:44:27.501434,599617375761200673,-124.00
2025-12-25 12:44:27.501434,599617375761200673,-84.00
2025-12-25 12:44:27.501434,599617375761200673,-70.00
2025-12-25 12:44:27.501434,599617375761200673,-75.00
2025-12-25 12:44:27.501434,599617375761200673,-54.00
2025-12-25 12:44:27.501434,599617375761200673,-32.00
2025-12-25 12:44:27.501434,599617375761200673,-30.00
2025-12-25 12:44:27.501434,599617375761200673,-21.00
2025-12-25 12:44:27.501434,599617375761200673,-4.00
2025-12-25 12:44:27.501434,599617375761200673,11.00
2025-12-25 12:44:27.501434,599617375761200673,30.00
2025-12-25 12:44:27.501434,599617375761200673,54.00
2025-12-25 12:44:27.501434,599617375761200673,80.00
2025-12-25 12:44:27.501434,599617375761200673,103.00
2025-12-25 12:44:27.501434,599617375761200673,113.00
2025-12-25 12:44:27.501434,599617375761200673,120.00
2025-12-25 12:44:27.501434,599617375761200673,131.00
2025-12-25 12:44:27.501434,599617375761200673,131.00
2025-12-25 12:44:27.501434,599617375761200673,127.00
2025-12-25 12:44:27.501434,599617375761200673,115.00
2025-12-25 12:44:27.501434,599617375761200673,82.00
2025-12-25 12:44:27.501434,599617375761200673,30.00
2025-12-25 12:44:27.501434,599617375761200673,-21.00
2025-12-25 12:44:27.501434,599617375761200673,-73.00
2025-12-25 12:44:27.501434,599617375761200673,-124.00
2025-12-25 12:44:27.501434,599617375761200673,-160.00
2025-12-25 12:44:27.501434,599617375761200673,-181.00
2025-12-25 12:44:27.501434,599617375761200673,-200.00
2025-12-25 12:44:27.501434,599617375761200673,-204.00
2025-12-25 12:44:27.501434,599617375761200673,-195.00
2025-12-25 12:44:27.501434,599617375761200673,-193.00
2025-12-25 12:44:27.501434,599617375761200673,-193.00
2025-12-25 12:44:27.501434,599617375761200673,-188.00
2025-12-25 12:44:27.501434,599617375761200673,-176.00
2025-12-25 12:44:27.501434,599617375761200673,-167.00
2025-12-25 12:44:27.501434,599617375761200673,-155.00
2025-12-25 12:44:27.501434,599617375761200673,-148.00
2025-12-25 12:44:27.501434,599617375761200673,-148.00
2025-12-25 12:44:27.501434,599617375761200673,-148.00
2025-12-25 12:44:27.501434,599617375761200673,-139.00
2025-12-25 12:44:27.501434,599617375761200673,-134.00
2025-12-25 12:44:27.501434,599617375761200673,-131.00
2025-12-25 12:44:27.501434,599617375761200673,-129.00
2025-12-25 12:44:27.501434,599617375761200673,-124.00
2025-12-25 12:44:27.501434,599617375761200673,-122.00
2025-12-25 12:44:27.501434,599617375761200673,-117.00
2025-12-25 12:44:27.501434,599617375761200673,-108.00
2025-12-25 12:44:27.501434,599617375761200673,-108.00
2025-12-25 12:44:27.501434,599617375761200673,-110.00
2025-12-25 12:44:27.501434,599617375761200673,-106.00
2025-12-25 12:44:27.501434,599617375761200673,-101.00
2025-12-25 12:44:28.065064,599617376322014700,-101.00
2025-12-25 12:44:28.065064,599617376322014700,-101.00
2025-12-25 12:44:28.065064,599617376322014700,-98.00
2025-12-25 12:44:28.065064,599617376322014700,-98.00
2025-12-25 12:44:28.065064,599617376322014700,-101.00
2025-12-25 12:44:28.065064,599617376322014700,-96.00
2025-12-25 12:44:28.065064,599617376322014700,-89.00
2025-12-25 12:44:28.065064,599617376322014700,-87.00
2025-12-25 12:44:28.065064,599617376322014700,-89.00
2025-12-25 12:44:28.065064,599617376322014700,-91.00
2025-12-25 12:44:28.065064,599617376322014700,-84.00
2025-12-25 12:44:28.065064,599617376322014700,-84.00
2025-12-25 12:44:28.065064,599617376322014700,-91.00
2025-12-25 12:44:28.065064,599617376322014700,-89.00
2025-12-25 12:44:28.065064,599617376322014700,-84.00
2025-12-25 12:44:28.065064,599617376322014700,-73.00
2025-12-25 12:44:28.065064,599617376322014700,-49.00
2025-12-25 12:44:28.065064,599617376322014700,-32.00
2025-12-25 12:44:28.065064,599617376322014700,-30.00
2025-12-25 12:44:28.065064,599617376322014700,-32.00
2025-12-25 12:44:28.065064,599617376322014700,-51.00
2025-12-25 12:44:28.065064,599617376322014700,-68.00
2025-12-25 12:44:28.065064,599617376322014700,-65.00
2025-12-25 12:44:28.065064,599617376322014700,-68.00
2025-12-25 12:44:28.065064,599617376322014700,-68.00
2025-12-25 12:44:28.065064,599617376322014700,-61.00
2025-12-25 12:44:28.065064,599617376322014700,-58.00
2025-12-25 12:44:28.065064,599617376322014700,-113.00
2025-12-25 12:44:28.065064,599617376322014700,-113.00
2025-12-25 12:44:28.065064,599617376322014700,320.00
2025-12-25 12:44:28.065064,599617376322014700,1166.00
2025-12-25 12:44:28.065064,599617376322014700,1540.00
2025-12-25 12:44:28.065064,599617376322014700,765.00
2025-12-25 12:44:28.065064,599617376322014700,-358.00
2025-12-25 12:44:28.065064,599617376322014700,-539.00
2025-12-25 12:44:28.065064,599617376322014700,-98.00
2025-12-25 12:44:28.065064,599617376322014700,-35.00
2025-12-25 12:44:28.065064,599617376322014700,-176.00
2025-12-25 12:44:28.065064,599617376322014700,-127.00
2025-12-25 12:44:28.065064,599617376322014700,-77.00
2025-12-25 12:44:28.065064,599617376322014700,-113.00
2025-12-25 12:44:28.065064,599617376322014700,-101.00
2025-12-25 12:44:28.065064,599617376322014700,-73.00
2025-12-25 12:44:28.065064,599617376322014700,-75.00
2025-12-25 12:44:28.065064,599617376322014700,-65.00
2025-12-25 12:44:28.065064,599617376322014700,-44.00
2025-12-25 12:44:28.065064,599617376322014700,-37.00
2025-12-25 12:44:28.065064,599617376322014700,-25.00
2025-12-25 12:44:28.065064,599617376322014700,-7.00
2025-12-25 12:44:28.065064,599617376322014700,7.00
2025-12-25 12:44:28.065064,599617376322014700,18.00
2025-12-25 12:44:28.065064,599617376322014700,40.00
2025-12-25 12:44:28.065064,599617376322014700,63.00
2025-12-25 12:44:28.065064,599617376322014700,82.00
2025-12-25 12:44:28.065064,599617376322014700,94.00
2025-12-25 12:44:28.065064,599617376322014700,110.00
2025-12-25 12:44:28.065064,599617376322014700,122.00
2025-12-25 12:44:28.065064,599617376322014700,115.00
2025-12-25 12:44:28.065064,599617376322014700,103.00
2025-12-25 12:44:28.065064,599617376322014700,94.00
2025-12-25 12:44:28.065064,599617376322014700,70.00
2025-12-25 12:44:28.065064,599617376322014700,30.00
2025-12-25 12:44:28.065064,599617376322014700,-23.00
2025-12-25 12:44:28.065064,599617376322014700,-80.00
2025-12-25 12:44:28.065064,599617376322014700,-127.00
2025-12-25 12:44:28.065064,599617376322014700,-162.00
2025-12-25 12:44:28.065064,599617376322014700,-190.00
2025-12-25 12:44:28.065064,599617376322014700,-207.00
2025-12-25 12:44:28.065064,599617376322014700,-209.00
2025-12-25 12:44:28.065064,599617376322014700,-214.00
2025-12-25 12:44:28.065064,599617376322014700,-216.00
2025-12-25 12:44:28.065064,599617376322014700,-212.00
2025-12-25 12:44:28.065064,599617376322014700,-204.00
2025-12-25 12:44:28.626877,599617376882849071,-200.00
2025-12-25 12:44:28.626877,599617376882849071,-188.00
2025-12-25 12:44:28.626877,599617376882849071,-181.00
2025-12-25 12:44:28.626877,599617376882849071,-179.00
2025-12-25 12:44:28.626877,599617376882849071,-171.00
2025-12-25 12:44:28.626877,599617376882849071,-162.00
2025-12-25 12:44:28.626877,599617376882849071,-157.00
2025-12-25 12:44:28.626877,599617376882849071,-153.00
2025-12-25 12:44:28.626877,599617376882849071,-146.00
2025-12-25 12:44:28.626877,599617376882849071,-139.00
2025-12-25 12:44:28.626877,599617376882849071,-127.00
2025-12-25 12:44:28.626877,599617376882849071,-117.00
2025-12-25 12:44:28.626877,599617376882849071,-117.00
2025-12-25 12:44:28.626877,599617376882849071,-117.00
2025-12-25 12:44:28.626877,599617376882849071,-113.00
2025-12-25 12:44:28.626877,599617376882849071,-106.00
2025-12-25 12:44:28.626877,599617376882849071,-98.00
2025-12-25 12:44:28.626877,599617376882849071,-98.00
2025-12-25 12:44:28.626877,599617376882849071,-98.00
2025-12-25 12:44:28.626877,599617376882849071,-94.00
2025-12-25 12:44:28.626877,599617376882849071,-89.00
2025-12-25 12:44:28.626877,599617376882849071,-89.00
2025-12-25 12:44:28.626877,599617376882849071,-87.00
2025-12-25 12:44:28.626877,599617376882849071,-87.00
2025-12-25 12:44:28.626877,599617376882849071,-89.00
2025-12-25 12:44:28.626877,599617376882849071,-87.00
2025-12-25 12:44:28.626877,599617376882849071,-84.00
2025-12-25 12:44:28.626877,599617376882849071,-82.00
2025-12-25 12:44:28.626877,599617376882849071,-80.00
2025-12-25 12:44:28.626877,599617376882849071,-84.00
2025-12-25 12:44:28.626877,599617376882849071,-87.00
2025-12-25 12:44:28.626877,599617376882849071,-82.00
2025-12-25 12:44:28.626877,599617376882849071,-87.00
2025-12-25 12:44:28.626877,599617376882849071,-98.00
2025-12-25 12:44:28.626877,599617376882849071,-98.00
2025-12-25 12:44:28.626877,599617376882849071,-87.00
2025-12-25 12:44:28.626877,599617376882849071,-68.00
2025-12-25 12:44:28.626877,599617376882849071,-47.00
2025-12-25 12:44:28.626877,599617376882849071,-40.00
2025-12-25 12:44:28.626877,599617376882849071,-54.00
2025-12-25 12:44:28.626877,599617376882849071,-73.00
2025-12-25 12:44:28.626877,599617376882849071,-77.00
2025-12-25 12:44:28.626877,599617376882849071,-77.00
2025-12-25 12:44:28.626877,599617376882849071,-80.00
2025-12-25 12:44:28.626877,599617376882849071,-73.00
2025-12-25 12:44:28.626877,599617376882849071,-73.00
2025-12-25 12:44:28.626877,599617376882849071,-101.00
2025-12-25 12:44:28.626877,599617376882849071,-164.00
2025-12-25 12:44:28.626877,599617376882849071,0.00
2025-12-25 12:44:28.626877,599617376882849071,685.00
2025-12-25 12:44:28.626877,599617376882849071,1453.00
2025-12-25 12:44:28.626877,599617376882849071,1335.00
2025-12-25 12:44:28.626877,599617376882849071,228.00
2025-12-25 12:44:28.626877,599617376882849071,-579.00
2025-12-25 12:44:28.626877,599617376882849071,-329.00
2025-12-25 12:44:28.626877,599617376882849071,11.00
2025-12-25 12:44:28.626877,599617376882849071,-131.00
2025-12-25 12:44:28.626877,599617376882849071,-204.00
2025-12-25 12:44:28.626877,599617376882849071,-98.00
2025-12-25 12:44:28.626877,599617376882849071,-103.00
2025-12-25 12:44:28.626877,599617376882849071,-141.00
2025-12-25 12:44:28.626877,599617376882849071,-101.00
2025-12-25 12:44:28.626877,599617376882849071,-80.00
2025-12-25 12:44:28.626877,599617376882849071,-87.00
2025-12-25 12:44:28.626877,599617376882849071,-70.00
2025-12-25 12:44:28.626877,599617376882849071,-54.00
2025-12-25 12:44:28.626877,599617376882849071,-51.00
2025-12-25 12:44:28.626877,599617376882849071,-37.00
2025-12-25 12:44:28.626877,599617376882849071,-16.00
2025-12-25 12:44:28.626877,599617376882849071,4.00
2025-12-25 12:44:28.626877,599617376882849071,16.00
2025-12-25 12:44:28.626877,599617376882849071,35.00
2025-12-25 12:44:28.626877,599617376882849071,58.00
2025-12-25 12:44:29.187597,599617377443673270,80.00
2025-12-25 12:44:29.187597,599617377443673270,96.00
2025-12-25 12:44:29.187597,599617377443673270,113.00
2025-12-25 12:44:29.187597,599617377443673270,122.00
2025-12-25 12:44:29.187597,599617377443673270,127.00
2025-12-25 12:44:29.187597,599617377443673270,117.00
2025-12-25 12:44:29.187597,599617377443673270,108.00
2025-12-25 12:44:29.187597,599617377443673270,89.00
2025-12-25 12:44:29.187597,599617377443673270,42.00
2025-12-25 12:44:29.187597,599617377443673270,-23.00
2025-12-25 12:44:29.187597,599617377443673270,-80.00
2025-12-25 12:44:29.187597,599617377443673270,-120.00
2025-12-25 12:44:29.187597,599617377443673270,-150.00
2025-12-25 12:44:29.187597,599617377443673270,-164.00
2025-12-25 12:44:29.187597,599617377443673270,-176.00
2025-12-25 12:44:29.187597,599617377443673270,-183.00
2025-12-25 12:44:29.187597,599617377443673270,-186.00
2025-12-25 12:44:29.187597,599617377443673270,-186.00
2025-12-25 12:44:29.187597,599617377443673270,-179.00
2025-12-25 12:44:29.187597,599617377443673270,-169.00
2025-12-25 12:44:29.187597,599617377443673270,-164.00
2025-12-25 12:44:29.187597,599617377443673270,-155.00
2025-12-25 12:44:29.187597,599617377443673270,-146.00
2025-12-25 12:44:29.187597,599617377443673270,-141.00
2025-12-25 12:44:29.187597,599617377443673270,-134.00
2025-12-25 12:44:29.187597,599617377443673270,-127.00
2025-12-25 12:44:29.187597,599617377443673270,-124.00
2025-12-25 12:44:29.187597,599617377443673270,-127.00
2025-12-25 12:44:29.187597,599617377443673270,-120.00
2025-12-25 12:44:29.187597,599617377443673270,-113.00
2025-12-25 12:44:29.187597,599617377443673270,-110.00
2025-12-25 12:44:29.187597,599617377443673270,-106.00
2025-12-25 12:44:29.187597,599617377443673270,-106.00
2025-12-25 12:44:29.187597,599617377443673270,-110.00
2025-12-25 12:44:29.187597,599617377443673270,-106.00
2025-12-25 12:44:29.187597,599617377443673270,-98.00
2025-12-25 12:44:29.187597,599617377443673270,-101.00
2025-12-25 12:44:29.187597,599617377443673270,-101.00
2025-12-25 12:44:29.187597,599617377443673270,-96.00
2025-12-25 12:44:29.187597,599617377443673270,-96.00
2025-12-25 12:44:29.187597,599617377443673270,-98.00
2025-12-25 12:44:29.187597,599617377443673270,-96.00
2025-12-25 12:44:29.187597,599617377443673270,-96.00
2025-12-25 12:44:29.187597,599617377443673270,-94.00
2025-12-25 12:44:29.187597,599617377443673270,-89.00
2025-12-25 12:44:29.187597,599617377443673270,-89.00
2025-12-25 12:44:29.187597,599617377443673270,-91.00
2025-12-25 12:44:29.187597,599617377443673270,-84.00
2025-12-25 12:44:29.187597,599617377443673270,-77.00
2025-12-25 12:44:29.187597,599617377443673270,-80.00
2025-12-25 12:44:29.187597,599617377443673270,-82.00
2025-12-25 12:44:29.187597,599617377443673270,-80.00
2025-12-25 12:44:29.187597,599617377443673270,-80.00
2025-12-25 12:44:29.187597,599617377443673270,-80.00
2025-12-25 12:44:29.187597,599617377443673270,-80.00
2025-12-25 12:44:29.187597,599617377443673270,-87.00
2025-12-25 12:44:29.187597,599617377443673270,-91.00
2025-12-25 12:44:29.187597,599617377443673270,-84.00
2025-12-25 12:44:29.187597,599617377443673270,-65.00
2025-12-25 12:44:29.187597,599617377443673270,-47.00
2025-12-25 12:44:29.187597,599617377443673270,-32.00
2025-12-25 12:44:29.187597,599617377443673270,-32.00
2025-12-25 12:44:29.187597,599617377443673270,-54.00
2025-12-25 12:44:29.187597,599617377443673270,-75.00
2025-12-25 12:44:29.187597,599617377443673270,-75.00
2025-12-25 12:44:29.187597,599617377443673270,-70.00
2025-12-25 12:44:29.187597,599617377443673270,-70.00
2025-12-25 12:44:29.187597,599617377443673270,-70.00
2025-12-25 12:44:29.187597,599617377443673270,-68.00
2025-12-25 12:44:29.187597,599617377443673270,-101.00
2025-12-25 12:44:29.187597,599617377443673270,-160.00
2025-12-25 12:44:29.187597,599617377443673270,47.00
2025-12-25 12:44:29.187597,599617377443673270,772.00
2025-12-25 12:44:29.685181,599617378004497469,1484.00
2025-12-25 12:44:29.685181,599617378004497469,1255.00
2025-12-25 12:44:29.685181,599617378004497469,124.00
2025-12-25 12:44:29.685181,599617378004497469,-586.00
2025-12-25 12:44:29.685181,599617378004497469,-275.00
2025-12-25 12:44:29.685181,599617378004497469,28.00
2025-12-25 12:44:29.685181,599617378004497469,-136.00
2025-12-25 12:44:29.685181,599617378004497469,-190.00
2025-12-25 12:44:29.685181,599617378004497469,-89.00
2025-12-25 12:44:29.685181,599617378004497469,-103.00
2025-12-25 12:44:29.685181,599617378004497469,-122.00
2025-12-25 12:44:29.685181,599617378004497469,-77.00
2025-12-25 12:44:29.685181,599617378004497469,-63.00
2025-12-25 12:44:29.685181,599617378004497469,-70.00
2025-12-25 12:44:29.685181,599617378004497469,-51.00
2025-12-25 12:44:29.685181,599617378004497469,-37.00
2025-12-25 12:44:29.685181,599617378004497469,-25.00
2025-12-25 12:44:29.685181,599617378004497469,-11.00
2025-12-25 12:44:29.685181,599617378004497469,2.00
2025-12-25 12:44:29.685181,599617378004497469,18.00
2025-12-25 12:44:29.685181,599617378004497469,37.00
2025-12-25 12:44:29.685181,599617378004497469,56.00
2025-12-25 12:44:29.685181,599617378004497469,75.00
2025-12-25 12:44:29.685181,599617378004497469,98.00
2025-12-25 12:44:29.685181,599617378004497469,115.00
2025-12-25 12:44:29.685181,599617378004497469,124.00
2025-12-25 12:44:29.685181,599617378004497469,129.00
2025-12-25 12:44:29.685181,599617378004497469,127.00
2025-12-25 12:44:29.685181,599617378004497469,124.00
2025-12-25 12:44:29.685181,599617378004497469,110.00
2025-12-25 12:44:29.685181,599617378004497469,82.00
2025-12-25 12:44:29.685181,599617378004497469,32.00
2025-12-25 12:44:29.685181,599617378004497469,-21.00
2025-12-25 12:44:29.685181,599617378004497469,-75.00
2025-12-25 12:44:29.685181,599617378004497469,-115.00
2025-12-25 12:44:29.685181,599617378004497469,-148.00
2025-12-25 12:44:29.685181,599617378004497469,-171.00
2025-12-25 12:44:29.685181,599617378004497469,-186.00
2025-12-25 12:44:29.685181,599617378004497469,-188.00
2025-12-25 12:44:29.685181,599617378004497469,-188.00
2025-12-25 12:44:29.685181,599617378004497469,-186.00
2025-12-25 12:44:29.685181,599617378004497469,-181.00
2025-12-25 12:44:29.685181,599617378004497469,-176.00
2025-12-25 12:44:29.685181,599617378004497469,-169.00
2025-12-25 12:44:29.685181,599617378004497469,-162.00
2025-12-25 12:44:29.685181,599617378004497469,-160.00
2025-12-25 12:44:29.685181,599617378004497469,-155.00
2025-12-25 12:44:29.685181,599617378004497469,-146.00
2025-12-25 12:44:29.685181,599617378004497469,-139.00
2025-12-25 12:44:29.685181,599617378004497469,-141.00
2025-12-25 12:44:29.685181,599617378004497469,-139.00
2025-12-25 12:44:29.685181,599617378004497469,-131.00
2025-12-25 12:44:29.685181,599617378004497469,-127.00
2025-12-25 12:44:29.685181,599617378004497469,-127.00
2025-12-25 12:44:29.685181,599617378004497469,-122.00
2025-12-25 12:44:29.685181,599617378004497469,-120.00
2025-12-25 12:44:29.685181,599617378004497469,-122.00
2025-12-25 12:44:29.685181,599617378004497469,-120.00
2025-12-25 12:44:29.685181,599617378004497469,-115.00
2025-12-25 12:44:29.685181,599617378004497469,-113.00
2025-12-25 12:44:29.685181,599617378004497469,-113.00
2025-12-25 12:44:29.685181,599617378004497469,-113.00
2025-12-25 12:44:29.685181,599617378004497469,-113.00
2025-12-25 12:44:29.685181,599617378004497469,-108.00
2025-12-25 12:44:29.685181,599617378004497469,-106.00
2025-12-25 12:44:29.685181,599617378004497469,-106.00
2025-12-25 12:44:29.685181,599617378004497469,-103.00
2025-12-25 12:44:29.685181,599617378004497469,-103.00
2025-12-25 12:44:29.685181,599617378004497469,-101.00
2025-12-25 12:44:29.685181,599617378004497469,-98.00
2025-12-25 12:44:29.685181,599617378004497469,-94.00
2025-12-25 12:44:29.685181,599617378004497469,-87.00
2025-12-25 12:44:29.685181,599617378004497469,-87.00
2025-12-25 12:44:30.252030,599617378565321668,-91.00
2025-12-25 12:44:30.252030,599617378565321668,-89.00
2025-12-25 12:44:30.252030,599617378565321668,-82.00
2025-12-25 12:44:30.252030,599617378565321668,-87.00
2025-12-25 12:44:30.252030,599617378565321668,-94.00
2025-12-25 12:44:30.252030,599617378565321668,-96.00
2025-12-25 12:44:30.252030,599617378565321668,-89.00
2025-12-25 12:44:30.252030,599617378565321668,-65.00
2025-12-25 12:44:30.252030,599617378565321668,-40.00
2025-12-25 12:44:30.252030,599617378565321668,-28.00
2025-12-25 12:44:30.252030,599617378565321668,-30.00
2025-12-25 12:44:30.252030,599617378565321668,-47.00
2025-12-25 12:44:30.252030,599617378565321668,-65.00
2025-12-25 12:44:30.252030,599617378565321668,-68.00
2025-12-25 12:44:30.252030,599617378565321668,-65.00
2025-12-25 12:44:30.252030,599617378565321668,-63.00
2025-12-25 12:44:30.252030,599617378565321668,-63.00
2025-12-25 12:44:30.252030,599617378565321668,-61.00
2025-12-25 12:44:30.252030,599617378565321668,-84.00
2025-12-25 12:44:30.252030,599617378565321668,-148.00
2025-12-25 12:44:30.252030,599617378565321668,-4.00
2025-12-25 12:44:30.252030,599617378565321668,654.00
2025-12-25 12:44:30.252030,599617378565321668,1411.00
2025-12-25 12:44:30.252030,599617378565321668,1319.00
2025-12-25 12:44:30.252030,599617378565321668,249.00
2025-12-25 12:44:30.252030,599617378565321668,-560.00
2025-12-25 12:44:30.252030,599617378565321668,-334.00
2025-12-25 12:44:30.252030,599617378565321668,18.00
2025-12-25 12:44:30.252030,599617378565321668,-113.00
2025-12-25 12:44:30.252030,599617378565321668,-193.00
2025-12-25 12:44:30.252030,599617378565321668,-89.00
2025-12-25 12:44:30.252030,599617378565321668,-87.00
2025-12-25 12:44:30.252030,599617378565321668,-124.00
2025-12-25 12:44:30.252030,599617378565321668,-87.00
2025-12-25 12:44:30.252030,599617378565321668,-65.00
2025-12-25 12:44:30.252030,599617378565321668,-75.00
2025-12-25 12:44:30.252030,599617378565321668,-58.00
2025-12-25 12:44:30.252030,599617378565321668,-40.00
2025-12-25 12:44:30.252030,599617378565321668,-32.00
2025-12-25 12:44:30.252030,599617378565321668,-21.00
2025-12-25 12:44:30.252030,599617378565321668,-2.00
2025-12-25 12:44:30.252030,599617378565321668,11.00
2025-12-25 12:44:30.252030,599617378565321668,28.00
2025-12-25 12:44:30.252030,599617378565321668,51.00
2025-12-25 12:44:30.252030,599617378565321668,68.00
2025-12-25 12:44:30.252030,599617378565321668,87.00
2025-12-25 12:44:30.252030,599617378565321668,108.00
2025-12-25 12:44:30.252030,599617378565321668,124.00
2025-12-25 12:44:30.252030,599617378565321668,129.00
2025-12-25 12:44:30.252030,599617378565321668,131.00
2025-12-25 12:44:30.252030,599617378565321668,131.00
2025-12-25 12:44:30.252030,599617378565321668,115.00
2025-12-25 12:44:30.252030,599617378565321668,84.00
2025-12-25 12:44:30.252030,599617378565321668,42.00
2025-12-25 12:44:30.252030,599617378565321668,-14.00
2025-12-25 12:44:30.252030,599617378565321668,-70.00
2025-12-25 12:44:30.252030,599617378565321668,-117.00
2025-12-25 12:44:30.252030,599617378565321668,-150.00
2025-12-25 12:44:30.252030,599617378565321668,-176.00
2025-12-25 12:44:30.252030,599617378565321668,-190.00
2025-12-25 12:44:30.252030,599617378565321668,-195.00
2025-12-25 12:44:30.252030,599617378565321668,-193.00
2025-12-25 12:44:30.252030,599617378565321668,-190.00
2025-12-25 12:44:30.252030,599617378565321668,-186.00
2025-12-25 12:44:30.252030,599617378565321668,-174.00
2025-12-25 12:44:30.252030,599617378565321668,-167.00
2025-12-25 12:44:30.252030,599617378565321668,-162.00
2025-12-25 12:44:30.252030,599617378565321668,-155.00
2025-12-25 12:44:30.252030,599617378565321668,-150.00
2025-12-25 12:44:30.252030,599617378565321668,-146.00
2025-12-25 12:44:30.252030,599617378565321668,-141.00
2025-12-25 12:44:30.252030,599617378565321668,-139.00
2025-12-25 12:44:30.252030,599617378565321668,-134.00
2025-12-25 12:44:30.896907,599617379126140785,-131.00
2025-12-25 12:44:30.896907,599617379126140785,-127.00
2025-12-25 12:44:30.896907,599617379126140785,-122.00
2025-12-25 12:44:30.896907,599617379126140785,-120.00
2025-12-25 12:44:30.896907,599617379126140785,-115.00
2025-12-25 12:44:30.896907,599617379126140785,-103.00
2025-12-25 12:44:30.896907,599617379126140785,-98.00
2025-12-25 12:44:30.896907,599617379126140785,-103.00
2025-12-25 12:44:30.896907,599617379126140785,-106.00
2025-12-25 12:44:30.896907,599617379126140785,-101.00
2025-12-25 12:44:30.896907,599617379126140785,-101.00
2025-12-25 12:44:30.896907,599617379126140785,-101.00
2025-12-25 12:44:30.896907,599617379126140785,-98.00
2025-12-25 12:44:30.896907,599617379126140785,-98.00
2025-12-25 12:44:30.896907,599617379126140785,-98.00
2025-12-25 12:44:30.896907,599617379126140785,-96.00
2025-12-25 12:44:30.896907,599617379126140785,-96.00
2025-12-25 12:44:30.896907,599617379126140785,-94.00
2025-12-25 12:44:30.896907,599617379126140785,-94.00
2025-12-25 12:44:30.896907,599617379126140785,-94.00
2025-12-25 12:44:30.896907,599617379126140785,-91.00
2025-12-25 12:44:30.896907,599617379126140785,-89.00
2025-12-25 12:44:30.896907,599617379126140785,-91.00
2025-12-25 12:44:30.896907,599617379126140785,-94.00
2025-12-25 12:44:30.896907,599617379126140785,-98.00
2025-12-25 12:44:30.896907,599617379126140785,-103.00
2025-12-25 12:44:30.896907,599617379126140785,-98.00
2025-12-25 12:44:30.896907,599617379126140785,-80.00
2025-12-25 12:44:30.896907,599617379126140785,-58.00
2025-12-25 12:44:30.896907,599617379126140785,-47.00
2025-12-25 12:44:30.896907,599617379126140785,-47.00
2025-12-25 12:44:30.896907,599617379126140785,-65.00
2025-12-25 12:44:30.896907,599617379126140785,-84.00
2025-12-25 12:44:30.896907,599617379126140785,-84.00
2025-12-25 12:44:30.896907,599617379126140785,-80.00
2025-12-25 12:44:30.896907,599617379126140785,-82.00
2025-12-25 12:44:30.896907,599617379126140785,-80.00
2025-12-25 12:44:30.896907,599617379126140785,-75.00
2025-12-25 12:44:30.896907,599617379126140785,-98.00
2025-12-25 12:44:30.896907,599617379126140785,-160.00
2025-12-25 12:44:30.896907,599617379126140785,-16.00
2025-12-25 12:44:30.896907,599617379126140785,631.00
2025-12-25 12:44:30.896907,599617379126140785,1368.00
2025-12-25 12:44:30.896907,599617379126140785,1269.00
2025-12-25 12:44:30.896907,599617379126140785,209.00
2025-12-25 12:44:30.896907,599617379126140785,-579.00
2025-12-25 12:44:30.896907,599617379126140785,-339.00
2025-12-25 12:44:30.896907,599617379126140785,11.00
2025-12-25 12:44:30.896907,599617379126140785,-113.00
2025-12-25 12:44:30.896907,599617379126140785,-190.00
2025-12-25 12:44:30.896907,599617379126140785,-94.00
2025-12-25 12:44:30.896907,599617379126140785,-91.00
2025-12-25 12:44:30.896907,599617379126140785,-122.00
2025-12-25 12:44:30.896907,599617379126140785,-87.00
2025-12-25 12:44:30.896907,599617379126140785,-68.00
2025-12-25 12:44:30.896907,599617379126140785,-73.00
2025-12-25 12:44:30.896907,599617379126140785,-54.00
2025-12-25 12:44:30.896907,599617379126140785,-32.00
2025-12-25 12:44:30.896907,599617379126140785,-25.00
2025-12-25 12:44:30.896907,599617379126140785,-14.00
2025-12-25 12:44:30.896907,599617379126140785,2.00
2025-12-25 12:44:30.896907,599617379126140785,14.00
2025-12-25 12:44:30.896907,599617379126140785,28.00
2025-12-25 12:44:30.896907,599617379126140785,51.00
2025-12-25 12:44:30.896907,599617379126140785,70.00
2025-12-25 12:44:30.896907,599617379126140785,89.00
2025-12-25 12:44:30.896907,599617379126140785,110.00
2025-12-25 12:44:30.896907,599617379126140785,127.00
2025-12-25 12:44:30.896907,599617379126140785,134.00
2025-12-25 12:44:30.896907,599617379126140785,134.00
2025-12-25 12:44:30.896907,599617379126140785,127.00
2025-12-25 12:44:30.896907,599617379126140785,108.00
2025-12-25 12:44:30.896907,599617379126140785,80.00
2025-12-25 12:44:31.391568,599617379686959898,32.00
2025-12-25 12:44:31.391568,599617379686959898,-25.00
2025-12-25 12:44:31.391568,599617379686959898,-75.00
2025-12-25 12:44:31.391568,599617379686959898,-117.00
2025-12-25 12:44:31.391568,599617379686959898,-150.00
2025-12-25 12:44:31.391568,599617379686959898,-171.00
2025-12-25 12:44:31.391568,599617379686959898,-186.00
2025-12-25 12:44:31.391568,599617379686959898,-190.00
2025-12-25 12:44:31.391568,599617379686959898,-188.00
2025-12-25 12:44:31.391568,599617379686959898,-183.00
2025-12-25 12:44:31.391568,599617379686959898,-179.00
2025-12-25 12:44:31.391568,599617379686959898,-176.00
2025-12-25 12:44:31.391568,599617379686959898,-171.00
2025-12-25 12:44:31.391568,599617379686959898,-162.00
2025-12-25 12:44:31.391568,599617379686959898,-148.00
2025-12-25 12:44:31.391568,599617379686959898,-139.00
2025-12-25 12:44:31.391568,599617379686959898,-139.00
