Timestamp,Device Timestamp (ns),ECG Value (uV)
2025-12-25 12:31:37.063352,599616605233271007,-237.00
2025-12-25 12:31:37.063352,599616605233271007,-249.00
2025-12-25 12:31:37.063352,599616605233271007,-256.00
2025-12-25 12:31:37.063352,599616605233271007,-252.00
2025-12-25 12:31:37.063352,599616605233271007,-237.00
2025-12-25 12:31:37.063352,599616605233271007,-226.00
2025-12-25 12:31:37.063352,599616605233271007,-209.00
2025-12-25 12:31:37.063352,599616605233271007,-200.00
2025-12-25 12:31:37.063352,599616605233271007,-202.00
2025-12-25 12:31:37.063352,599616605233271007,-195.00
2025-12-25 12:31:37.063352,599616605233271007,-186.00
2025-12-25 12:31:37.063352,599616605233271007,-181.00
2025-12-25 12:31:37.063352,599616605233271007,-179.00
2025-12-25 12:31:37.063352,599616605233271007,-169.00
2025-12-25 12:31:37.063352,599616605233271007,-167.00
2025-12-25 12:31:37.063352,599616605233271007,-167.00
2025-12-25 12:31:37.063352,599616605233271007,-162.00
2025-12-25 12:31:37.063352,599616605233271007,-155.00
2025-12-25 12:31:37.063352,599616605233271007,-153.00
2025-12-25 12:31:37.063352,599616605233271007,-155.00
2025-12-25 12:31:37.063352,599616605233271007,-153.00
2025-12-25 12:31:37.063352,599616605233271007,-148.00
2025-12-25 12:31:37.063352,599616605233271007,-143.00
2025-12-25 12:31:37.063352,599616605233271007,-136.00
2025-12-25 12:31:37.063352,599616605233271007,-134.00
2025-12-25 12:31:37.063352,599616605233271007,-139.00
2025-12-25 12:31:37.063352,599616605233271007,-136.00
2025-12-25 12:31:37.063352,599616605233271007,-134.00
2025-12-25 12:31:37.063352,599616605233271007,-131.00
2025-12-25 12:31:37.063352,599616605233271007,-127.00
2025-12-25 12:31:37.063352,599616605233271007,-122.00
2025-12-25 12:31:37.063352,599616605233271007,-122.00
2025-12-25 12:31:37.063352,599616605233271007,-124.00
2025-12-25 12:31:37.063352,599616605233271007,-120.00
2025-12-25 12:31:37.063352,599616605233271007,-115.00
2025-12-25 12:31:37.063352,599616605233271007,-117.00
2025-12-25 12:31:37.063352,599616605233271007,-117.00
2025-12-25 12:31:37.063352,599616605233271007,-113.00
2025-12-25 12:31:37.063352,599616605233271007,-110.00
2025-12-25 12:31:37.063352,599616605233271007,-120.00
2025-12-25 12:31:37.063352,599616605233271007,-127.00
2025-12-25 12:31:37.063352,599616605233271007,-127.00
2025-12-25 12:31:37.063352,599616605233271007,-113.00
2025-12-25 12:31:37.063352,599616605233271007,-94.00
2025-12-25 12:31:37.063352,599616605233271007,-70.00
2025-12-25 12:31:37.063352,599616605233271007,-61.00
2025-12-25 12:31:37.063352,599616605233271007,-77.00
2025-12-25 12:31:37.063352,599616605233271007,-101.00
2025-12-25 12:31:37.063352,599616605233271007,-108.00
2025-12-25 12:31:37.063352,599616605233271007,-103.00
2025-12-25 12:31:37.063352,599616605233271007,-106.00
2025-12-25 12:31:37.063352,599616605233271007,-101.00
2025-12-25 12:31:37.063352,599616605233271007,-94.00
2025-12-25 12:31:37.063352,599616605233271007,-117.00
2025-12-25 12:31:37.063352,599616605233271007,-181.00
2025-12-25 12:31:37.063352,599616605233271007,-7.00
2025-12-25 12:31:37.063352,599616605233271007,709.00
2025-12-25 12:31:37.063352,599616605233271007,1486.00
2025-12-25 12:31:37.063352,599616605233271007,1316.00
2025-12-25 12:31:37.063352,599616605233271007,164.00
2025-12-25 12:31:37.063352,599616605233271007,-614.00
2025-12-25 12:31:37.063352,599616605233271007,-334.00
2025-12-25 12:31:37.063352,599616605233271007,-16.00
2025-12-25 12:31:37.063352,599616605233271007,-169.00
2025-12-25 12:31:37.063352,599616605233271007,-235.00
2025-12-25 12:31:37.063352,599616605233271007,-136.00
2025-12-25 12:31:37.063352,599616605233271007,-146.00
2025-12-25 12:31:37.063352,599616605233271007,-171.00
2025-12-25 12:31:37.063352,599616605233271007,-131.00
2025-12-25 12:31:37.063352,599616605233271007,-115.00
2025-12-25 12:31:37.063352,599616605233271007,-117.00
2025-12-25 12:31:37.063352,599616605233271007,-103.00
2025-12-25 12:31:37.063352,599616605233271007,-87.00
2025-12-25 12:31:37.547427,599616605794029084,-77.00
2025-12-25 12:31:37.547427,599616605794029084,-63.00
2025-12-25 12:31:37.547427,599616605794029084,-44.00
2025-12-25 12:31:37.547427,599616605794029084,-21.00
2025-12-25 12:31:37.547427,599616605794029084,-2.00
2025-12-25 12:31:37.547427,599616605794029084,14.00
2025-12-25 12:31:37.547427,599616605794029084,35.00
2025-12-25 12:31:37.547427,599616605794029084,70.00
2025-12-25 12:31:37.547427,599616605794029084,106.00
2025-12-25 12:31:37.547427,599616605794029084,129.00
2025-12-25 12:31:37.547427,599616605794029084,143.00
2025-12-25 12:31:37.547427,599616605794029084,155.00
2025-12-25 12:31:37.547427,599616605794029084,160.00
2025-12-25 12:31:37.547427,599616605794029084,148.00
2025-12-25 12:31:37.547427,599616605794029084,120.00
2025-12-25 12:31:37.547427,599616605794029084,68.00
2025-12-25 12:31:37.547427,599616605794029084,4.00
2025-12-25 12:31:37.547427,599616605794029084,-65.00
2025-12-25 12:31:37.547427,599616605794029084,-136.00
2025-12-25 12:31:37.547427,599616605794029084,-174.00
2025-12-25 12:31:37.547427,599616605794029084,-193.00
2025-12-25 12:31:37.547427,599616605794029084,-221.00
2025-12-25 12:31:37.547427,599616605794029084,-235.00
2025-12-25 12:31:37.547427,599616605794029084,-228.00
2025-12-25 12:31:37.547427,599616605794029084,-228.00
2025-12-25 12:31:37.547427,599616605794029084,-226.00
2025-12-25 12:31:37.547427,599616605794029084,-216.00
2025-12-25 12:31:37.547427,599616605794029084,-207.00
2025-12-25 12:31:37.547427,599616605794029084,-204.00
2025-12-25 12:31:37.547427,599616605794029084,-197.00
2025-12-25 12:31:37.547427,599616605794029084,-190.00
2025-12-25 12:31:37.547427,599616605794029084,-186.00
2025-12-25 12:31:37.547427,599616605794029084,-181.00
2025-12-25 12:31:37.547427,599616605794029084,-176.00
2025-12-25 12:31:37.547427,599616605794029084,-169.00
2025-12-25 12:31:37.547427,599616605794029084,-162.00
2025-12-25 12:31:37.547427,599616605794029084,-160.00
2025-12-25 12:31:37.547427,599616605794029084,-164.00
2025-12-25 12:31:37.547427,599616605794029084,-160.00
2025-12-25 12:31:37.547427,599616605794029084,-150.00
2025-12-25 12:31:37.547427,599616605794029084,-150.00
2025-12-25 12:31:37.547427,599616605794029084,-150.00
2025-12-25 12:31:37.547427,599616605794029084,-148.00
2025-12-25 12:31:37.547427,599616605794029084,-148.00
2025-12-25 12:31:37.547427,599616605794029084,-146.00
2025-12-25 12:31:37.547427,599616605794029084,-143.00
2025-12-25 12:31:37.547427,599616605794029084,-143.00
2025-12-25 12:31:37.547427,599616605794029084,-146.00
2025-12-25 12:31:37.547427,599616605794029084,-143.00
2025-12-25 12:31:37.547427,599616605794029084,-141.00
2025-12-25 12:31:37.547427,599616605794029084,-139.00
2025-12-25 12:31:37.547427,599616605794029084,-134.00
2025-12-25 12:31:37.547427,599616605794029084,-131.00
2025-12-25 12:31:37.547427,599616605794029084,-134.00
2025-12-25 12:31:37.547427,599616605794029084,-131.00
2025-12-25 12:31:37.547427,599616605794029084,-129.00
2025-12-25 12:31:37.547427,599616605794029084,-129.00
2025-12-25 12:31:37.547427,599616605794029084,-129.00
2025-12-25 12:31:37.547427,599616605794029084,-129.00
2025-12-25 12:31:37.547427,599616605794029084,-127.00
2025-12-25 12:31:37.547427,599616605794029084,-124.00
2025-12-25 12:31:37.547427,599616605794029084,-124.00
2025-12-25 12:31:37.547427,599616605794029084,-127.00
2025-12-25 12:31:37.547427,599616605794029084,-134.00
2025-12-25 12:31:37.547427,599616605794029084,-129.00
2025-12-25 12:31:37.547427,599616605794029084,-110.00
2025-12-25 12:31:37.547427,599616605794029084,-91.00
2025-12-25 12:31:37.547427,599616605794029084,-80.00
2025-12-25 12:31:37.547427,599616605794029084,-73.00
2025-12-25 12:31:37.547427,599616605794029084,-87.00
2025-12-25 12:31:37.547427,599616605794029084,-110.00
2025-12-25 12:31:37.547427,599616605794029084,-117.00
2025-12-25 12:31:37.547427,599616605794029084,-110.00
2025-12-25 12:31:38.116847,599616606354787161,-110.00
2025-12-25 12:31:38.116847,599616606354787161,-108.00
2025-12-25 12:31:38.116847,599616606354787161,-108.00
2025-12-25 12:31:38.116847,599616606354787161,-141.00
2025-12-25 12:31:38.116847,599616606354787161,-181.00
2025-12-25 12:31:38.116847,599616606354787161,94.00
2025-12-25 12:31:38.116847,599616606354787161,890.00
2025-12-25 12:31:38.116847,599616606354787161,1543.00
2025-12-25 12:31:38.116847,599616606354787161,1121.00
2025-12-25 12:31:38.116847,599616606354787161,-82.00
2025-12-25 12:31:38.116847,599616606354787161,-640.00
2025-12-25 12:31:38.116847,599616606354787161,-249.00
2025-12-25 12:31:38.116847,599616606354787161,-23.00
2025-12-25 12:31:38.116847,599616606354787161,-200.00
2025-12-25 12:31:38.116847,599616606354787161,-209.00
2025-12-25 12:31:38.116847,599616606354787161,-117.00
2025-12-25 12:31:38.116847,599616606354787161,-146.00
2025-12-25 12:31:38.116847,599616606354787161,-155.00
2025-12-25 12:31:38.116847,599616606354787161,-103.00
2025-12-25 12:31:38.116847,599616606354787161,-96.00
2025-12-25 12:31:38.116847,599616606354787161,-103.00
2025-12-25 12:31:38.116847,599616606354787161,-82.00
2025-12-25 12:31:38.116847,599616606354787161,-68.00
2025-12-25 12:31:38.116847,599616606354787161,-61.00
2025-12-25 12:31:38.116847,599616606354787161,-44.00
2025-12-25 12:31:38.116847,599616606354787161,-25.00
2025-12-25 12:31:38.116847,599616606354787161,-9.00
2025-12-25 12:31:38.116847,599616606354787161,11.00
2025-12-25 12:31:38.116847,599616606354787161,32.00
2025-12-25 12:31:38.116847,599616606354787161,56.00
2025-12-25 12:31:38.116847,599616606354787161,82.00
2025-12-25 12:31:38.116847,599616606354787161,108.00
2025-12-25 12:31:38.116847,599616606354787161,134.00
2025-12-25 12:31:38.116847,599616606354787161,153.00
2025-12-25 12:31:38.116847,599616606354787161,162.00
2025-12-25 12:31:38.116847,599616606354787161,167.00
2025-12-25 12:31:38.116847,599616606354787161,155.00
2025-12-25 12:31:38.116847,599616606354787161,117.00
2025-12-25 12:31:38.116847,599616606354787161,61.00
2025-12-25 12:31:38.116847,599616606354787161,-4.00
2025-12-25 12:31:38.116847,599616606354787161,-77.00
2025-12-25 12:31:38.116847,599616606354787161,-134.00
2025-12-25 12:31:38.116847,599616606354787161,-174.00
2025-12-25 12:31:38.116847,599616606354787161,-204.00
2025-12-25 12:31:38.116847,599616606354787161,-226.00
2025-12-25 12:31:38.116847,599616606354787161,-237.00
2025-12-25 12:31:38.116847,599616606354787161,-240.00
2025-12-25 12:31:38.116847,599616606354787161,-233.00
2025-12-25 12:31:38.116847,599616606354787161,-226.00
2025-12-25 12:31:38.116847,599616606354787161,-223.00
2025-12-25 12:31:38.116847,599616606354787161,-216.00
2025-12-25 12:31:38.116847,599616606354787161,-209.00
2025-12-25 12:31:38.116847,599616606354787161,-202.00
2025-12-25 12:31:38.116847,599616606354787161,-195.00
2025-12-25 12:31:38.116847,599616606354787161,-190.00
2025-12-25 12:31:38.116847,599616606354787161,-183.00
2025-12-25 12:31:38.116847,599616606354787161,-179.00
2025-12-25 12:31:38.116847,599616606354787161,-176.00
2025-12-25 12:31:38.116847,599616606354787161,-171.00
2025-12-25 12:31:38.116847,599616606354787161,-162.00
2025-12-25 12:31:38.116847,599616606354787161,-162.00
2025-12-25 12:31:38.116847,599616606354787161,-160.00
2025-12-25 12:31:38.116847,599616606354787161,-155.00
2025-12-25 12:31:38.116847,599616606354787161,-153.00
2025-12-25 12:31:38.116847,599616606354787161,-155.00
2025-12-25 12:31:38.116847,599616606354787161,-155.00
2025-12-25 12:31:38.116847,599616606354787161,-153.00
2025-12-25 12:31:38.116847,599616606354787161,-150.00
2025-12-25 12:31:38.116847,599616606354787161,-148.00
2025-12-25 12:31:38.116847,599616606354787161,-148.00
2025-12-25 12:31:38.116847,599616606354787161,-148.00
2025-12-25 12:31:38.116847,599616606354787161,-146.00
2025-12-25 12:31:38.116847,599616606354787161,-141.00
2025-12-25 12:31:38.629312,599616606915545238,-139.00
2025-12-25 12:31:38.629312,599616606915545238,-139.00
2025-12-25 12:31:38.629312,599616606915545238,-139.00
2025-12-25 12:31:38.629312,599616606915545238,-136.00
2025-12-25 12:31:38.629312,599616606915545238,-134.00
2025-12-25 12:31:38.629312,599616606915545238,-131.00
2025-12-25 12:31:38.629312,599616606915545238,-129.00
2025-12-25 12:31:38.629312,599616606915545238,-124.00
2025-12-25 12:31:38.629312,599616606915545238,-120.00
2025-12-25 12:31:38.629312,599616606915545238,-120.00
2025-12-25 12:31:38.629312,599616606915545238,-122.00
2025-12-25 12:31:38.629312,599616606915545238,-124.00
2025-12-25 12:31:38.629312,599616606915545238,-113.00
2025-12-25 12:31:38.629312,599616606915545238,-89.00
2025-12-25 12:31:38.629312,599616606915545238,-68.00
2025-12-25 12:31:38.629312,599616606915545238,-63.00
2025-12-25 12:31:38.629312,599616606915545238,-77.00
2025-12-25 12:31:38.629312,599616606915545238,-94.00
2025-12-25 12:31:38.629312,599616606915545238,-98.00
2025-12-25 12:31:38.629312,599616606915545238,-96.00
2025-12-25 12:31:38.629312,599616606915545238,-98.00
2025-12-25 12:31:38.629312,599616606915545238,-94.00
2025-12-25 12:31:38.629312,599616606915545238,-94.00
2025-12-25 12:31:38.629312,599616606915545238,-122.00
2025-12-25 12:31:38.629312,599616606915545238,-176.00
2025-12-25 12:31:38.629312,599616606915545238,35.00
2025-12-25 12:31:38.629312,599616606915545238,760.00
2025-12-25 12:31:38.629312,599616606915545238,1446.00
2025-12-25 12:31:38.629312,599616606915545238,1154.00
2025-12-25 12:31:38.629312,599616606915545238,11.00
2025-12-25 12:31:38.629312,599616606915545238,-624.00
2025-12-25 12:31:38.629312,599616606915545238,-280.00
2025-12-25 12:31:38.629312,599616606915545238,-9.00
2025-12-25 12:31:38.629312,599616606915545238,-179.00
2025-12-25 12:31:38.629312,599616606915545238,-212.00
2025-12-25 12:31:38.629312,599616606915545238,-113.00
2025-12-25 12:31:38.629312,599616606915545238,-134.00
2025-12-25 12:31:38.629312,599616606915545238,-157.00
2025-12-25 12:31:38.629312,599616606915545238,-122.00
2025-12-25 12:31:38.629312,599616606915545238,-108.00
2025-12-25 12:31:38.629312,599616606915545238,-108.00
2025-12-25 12:31:38.629312,599616606915545238,-91.00
2025-12-25 12:31:38.629312,599616606915545238,-77.00
2025-12-25 12:31:38.629312,599616606915545238,-70.00
2025-12-25 12:31:38.629312,599616606915545238,-56.00
2025-12-25 12:31:38.629312,599616606915545238,-37.00
2025-12-25 12:31:38.629312,599616606915545238,-23.00
2025-12-25 12:31:38.629312,599616606915545238,-11.00
2025-12-25 12:31:38.629312,599616606915545238,14.00
2025-12-25 12:31:38.629312,599616606915545238,47.00
2025-12-25 12:31:38.629312,599616606915545238,73.00
2025-12-25 12:31:38.629312,599616606915545238,98.00
2025-12-25 12:31:38.629312,599616606915545238,127.00
2025-12-25 12:31:38.629312,599616606915545238,143.00
2025-12-25 12:31:38.629312,599616606915545238,148.00
2025-12-25 12:31:38.629312,599616606915545238,150.00
2025-12-25 12:31:38.629312,599616606915545238,143.00
2025-12-25 12:31:38.629312,599616606915545238,113.00
2025-12-25 12:31:38.629312,599616606915545238,58.00
2025-12-25 12:31:38.629312,599616606915545238,-11.00
2025-12-25 12:31:38.629312,599616606915545238,-82.00
2025-12-25 12:31:38.629312,599616606915545238,-136.00
2025-12-25 12:31:38.629312,599616606915545238,-176.00
2025-12-25 12:31:38.629312,599616606915545238,-207.00
2025-12-25 12:31:38.629312,599616606915545238,-228.00
2025-12-25 12:31:38.629312,599616606915545238,-235.00
2025-12-25 12:31:38.629312,599616606915545238,-233.00
2025-12-25 12:31:38.629312,599616606915545238,-230.00
2025-12-25 12:31:38.629312,599616606915545238,-223.00
2025-12-25 12:31:38.629312,599616606915545238,-219.00
2025-12-25 12:31:38.629312,599616606915545238,-216.00
2025-12-25 12:31:38.629312,599616606915545238,-209.00
2025-12-25 12:31:38.629312,599616606915545238,-197.00
2025-12-25 12:31:39.214158,599616607476272797,-186.00
2025-12-25 12:31:39.214158,599616607476272797,-181.00
2025-12-25 12:31:39.214158,599616607476272797,-179.00
2025-12-25 12:31:39.214158,599616607476272797,-174.00
2025-12-25 12:31:39.214158,599616607476272797,-169.00
2025-12-25 12:31:39.214158,599616607476272797,-164.00
2025-12-25 12:31:39.214158,599616607476272797,-155.00
2025-12-25 12:31:39.214158,599616607476272797,-148.00
2025-12-25 12:31:39.214158,599616607476272797,-146.00
2025-12-25 12:31:39.214158,599616607476272797,-146.00
2025-12-25 12:31:39.214158,599616607476272797,-141.00
2025-12-25 12:31:39.214158,599616607476272797,-136.00
2025-12-25 12:31:39.214158,599616607476272797,-136.00
2025-12-25 12:31:39.214158,599616607476272797,-131.00
2025-12-25 12:31:39.214158,599616607476272797,-129.00
2025-12-25 12:31:39.214158,599616607476272797,-131.00
2025-12-25 12:31:39.214158,599616607476272797,-134.00
2025-12-25 12:31:39.214158,599616607476272797,-131.00
2025-12-25 12:31:39.214158,599616607476272797,-124.00
2025-12-25 12:31:39.214158,599616607476272797,-120.00
2025-12-25 12:31:39.214158,599616607476272797,-124.00
2025-12-25 12:31:39.214158,599616607476272797,-124.00
2025-12-25 12:31:39.214158,599616607476272797,-124.00
2025-12-25 12:31:39.214158,599616607476272797,-129.00
2025-12-25 12:31:39.214158,599616607476272797,-134.00
2025-12-25 12:31:39.214158,599616607476272797,-134.00
2025-12-25 12:31:39.214158,599616607476272797,-134.00
2025-12-25 12:31:39.214158,599616607476272797,-127.00
2025-12-25 12:31:39.214158,599616607476272797,-101.00
2025-12-25 12:31:39.214158,599616607476272797,-70.00
2025-12-25 12:31:39.214158,599616607476272797,-73.00
2025-12-25 12:31:39.214158,599616607476272797,-101.00
2025-12-25 12:31:39.214158,599616607476272797,-117.00
2025-12-25 12:31:39.214158,599616607476272797,-115.00
2025-12-25 12:31:39.214158,599616607476272797,-115.00
2025-12-25 12:31:39.214158,599616607476272797,-115.00
2025-12-25 12:31:39.214158,599616607476272797,-106.00
2025-12-25 12:31:39.214158,599616607476272797,-106.00
2025-12-25 12:31:39.214158,599616607476272797,-155.00
2025-12-25 12:31:39.214158,599616607476272797,-176.00
2025-12-25 12:31:39.214158,599616607476272797,190.00
2025-12-25 12:31:39.214158,599616607476272797,1031.00
2025-12-25 12:31:39.214158,599616607476272797,1531.00
2025-12-25 12:31:39.214158,599616607476272797,881.00
2025-12-25 12:31:39.214158,599616607476272797,-303.00
2025-12-25 12:31:39.214158,599616607476272797,-621.00
2025-12-25 12:31:39.214158,599616607476272797,-160.00
2025-12-25 12:31:39.214158,599616607476272797,-42.00
2025-12-25 12:31:39.214158,599616607476272797,-226.00
2025-12-25 12:31:39.214158,599616607476272797,-193.00
2025-12-25 12:31:39.214158,599616607476272797,-120.00
2025-12-25 12:31:39.214158,599616607476272797,-160.00
2025-12-25 12:31:39.214158,599616607476272797,-155.00
2025-12-25 12:31:39.214158,599616607476272797,-113.00
2025-12-25 12:31:39.214158,599616607476272797,-110.00
2025-12-25 12:31:39.214158,599616607476272797,-113.00
2025-12-25 12:31:39.214158,599616607476272797,-91.00
2025-12-25 12:31:39.214158,599616607476272797,-80.00
2025-12-25 12:31:39.214158,599616607476272797,-70.00
2025-12-25 12:31:39.214158,599616607476272797,-47.00
2025-12-25 12:31:39.214158,599616607476272797,-30.00
2025-12-25 12:31:39.214158,599616607476272797,-18.00
2025-12-25 12:31:39.214158,599616607476272797,4.00
2025-12-25 12:31:39.214158,599616607476272797,28.00
2025-12-25 12:31:39.214158,599616607476272797,51.00
2025-12-25 12:31:39.214158,599616607476272797,80.00
2025-12-25 12:31:39.214158,599616607476272797,106.00
2025-12-25 12:31:39.214158,599616607476272797,129.00
2025-12-25 12:31:39.214158,599616607476272797,141.00
2025-12-25 12:31:39.214158,599616607476272797,148.00
2025-12-25 12:31:39.214158,599616607476272797,146.00
2025-12-25 12:31:39.214158,599616607476272797,127.00
2025-12-25 12:31:39.214158,599616607476272797,87.00
2025-12-25 12:31:39.730561,599616608037030874,23.00
2025-12-25 12:31:39.730561,599616608037030874,-51.00
2025-12-25 12:31:39.730561,599616608037030874,-120.00
2025-12-25 12:31:39.730561,599616608037030874,-167.00
2025-12-25 12:31:39.730561,599616608037030874,-200.00
2025-12-25 12:31:39.730561,599616608037030874,-226.00
2025-12-25 12:31:39.730561,599616608037030874,-237.00
2025-12-25 12:31:39.730561,599616608037030874,-242.00
2025-12-25 12:31:39.730561,599616608037030874,-247.00
2025-12-25 12:31:39.730561,599616608037030874,-237.00
2025-12-25 12:31:39.730561,599616608037030874,-221.00
2025-12-25 12:31:39.730561,599616608037030874,-219.00
2025-12-25 12:31:39.730561,599616608037030874,-221.00
2025-12-25 12:31:39.730561,599616608037030874,-209.00
2025-12-25 12:31:39.730561,599616608037030874,-200.00
2025-12-25 12:31:39.730561,599616608037030874,-195.00
2025-12-25 12:31:39.730561,599616608037030874,-188.00
2025-12-25 12:31:39.730561,599616608037030874,-183.00
2025-12-25 12:31:39.730561,599616608037030874,-181.00
2025-12-25 12:31:39.730561,599616608037030874,-174.00
2025-12-25 12:31:39.730561,599616608037030874,-171.00
2025-12-25 12:31:39.730561,599616608037030874,-171.00
2025-12-25 12:31:39.730561,599616608037030874,-167.00
2025-12-25 12:31:39.730561,599616608037030874,-162.00
2025-12-25 12:31:39.730561,599616608037030874,-160.00
2025-12-25 12:31:39.730561,599616608037030874,-162.00
2025-12-25 12:31:39.730561,599616608037030874,-162.00
2025-12-25 12:31:39.730561,599616608037030874,-155.00
2025-12-25 12:31:39.730561,599616608037030874,-153.00
2025-12-25 12:31:39.730561,599616608037030874,-155.00
2025-12-25 12:31:39.730561,599616608037030874,-155.00
2025-12-25 12:31:39.730561,599616608037030874,-153.00
2025-12-25 12:31:39.730561,599616608037030874,-148.00
2025-12-25 12:31:39.730561,599616608037030874,-146.00
2025-12-25 12:31:39.730561,599616608037030874,-143.00
2025-12-25 12:31:39.730561,599616608037030874,-143.00
2025-12-25 12:31:39.730561,599616608037030874,-143.00
2025-12-25 12:31:39.730561,599616608037030874,-150.00
2025-12-25 12:31:39.730561,599616608037030874,-157.00
2025-12-25 12:31:39.730561,599616608037030874,-155.00
2025-12-25 12:31:39.730561,599616608037030874,-141.00
2025-12-25 12:31:39.730561,599616608037030874,-124.00
2025-12-25 12:31:39.730561,599616608037030874,-103.00
2025-12-25 12:31:39.730561,599616608037030874,-87.00
2025-12-25 12:31:39.730561,599616608037030874,-103.00
2025-12-25 12:31:39.730561,599616608037030874,-131.00
2025-12-25 12:31:39.730561,599616608037030874,-136.00
2025-12-25 12:31:39.730561,599616608037030874,-129.00
2025-12-25 12:31:39.730561,599616608037030874,-129.00
2025-12-25 12:31:39.730561,599616608037030874,-127.00
2025-12-25 12:31:39.730561,599616608037030874,-120.00
2025-12-25 12:31:39.730561,599616608037030874,-139.00
2025-12-25 12:31:39.730561,599616608037030874,-200.00
2025-12-25 12:31:39.730561,599616608037030874,-42.00
2025-12-25 12:31:39.730561,599616608037030874,643.00
2025-12-25 12:31:39.730561,599616608037030874,1420.00
2025-12-25 12:31:39.730561,599616608037030874,1276.00
2025-12-25 12:31:39.730561,599616608037030874,136.00
2025-12-25 12:31:39.730561,599616608037030874,-650.00
2025-12-25 12:31:39.730561,599616608037030874,-376.00
2025-12-25 12:31:39.730561,599616608037030874,-35.00
2025-12-25 12:31:39.730561,599616608037030874,-169.00
2025-12-25 12:31:39.730561,599616608037030874,-237.00
2025-12-25 12:31:39.730561,599616608037030874,-139.00
2025-12-25 12:31:39.730561,599616608037030874,-143.00
2025-12-25 12:31:39.730561,599616608037030874,-171.00
2025-12-25 12:31:39.730561,599616608037030874,-134.00
2025-12-25 12:31:39.730561,599616608037030874,-120.00
2025-12-25 12:31:39.730561,599616608037030874,-127.00
2025-12-25 12:31:39.730561,599616608037030874,-108.00
2025-12-25 12:31:39.730561,599616608037030874,-87.00
2025-12-25 12:31:39.730561,599616608037030874,-77.00
2025-12-25 12:31:39.730561,599616608037030874,-63.00
2025-12-25 12:31:40.392162,599616608597763521,-44.00
2025-12-25 12:31:40.392162,599616608597763521,-25.00
2025-12-25 12:31:40.392162,599616608597763521,-7.00
2025-12-25 12:31:40.392162,599616608597763521,9.00
2025-12-25 12:31:40.392162,599616608597763521,30.00
2025-12-25 12:31:40.392162,599616608597763521,61.00
2025-12-25 12:31:40.392162,599616608597763521,91.00
2025-12-25 12:31:40.392162,599616608597763521,113.00
2025-12-25 12:31:40.392162,599616608597763521,127.00
2025-12-25 12:31:40.392162,599616608597763521,136.00
2025-12-25 12:31:40.392162,599616608597763521,131.00
2025-12-25 12:31:40.392162,599616608597763521,113.00
2025-12-25 12:31:40.392162,599616608597763521,84.00
2025-12-25 12:31:40.392162,599616608597763521,37.00
2025-12-25 12:31:40.392162,599616608597763521,-32.00
2025-12-25 12:31:40.392162,599616608597763521,-98.00
2025-12-25 12:31:40.392162,599616608597763521,-153.00
2025-12-25 12:31:40.392162,599616608597763521,-195.00
2025-12-25 12:31:40.392162,599616608597763521,-223.00
2025-12-25 12:31:40.392162,599616608597763521,-235.00
2025-12-25 12:31:40.392162,599616608597763521,-242.00
2025-12-25 12:31:40.392162,599616608597763521,-245.00
2025-12-25 12:31:40.392162,599616608597763521,-240.00
2025-12-25 12:31:40.392162,599616608597763521,-230.00
2025-12-25 12:31:40.392162,599616608597763521,-221.00
2025-12-25 12:31:40.392162,599616608597763521,-216.00
2025-12-25 12:31:40.392162,599616608597763521,-212.00
2025-12-25 12:31:40.392162,599616608597763521,-204.00
2025-12-25 12:31:40.392162,599616608597763521,-195.00
2025-12-25 12:31:40.392162,599616608597763521,-188.00
2025-12-25 12:31:40.392162,599616608597763521,-183.00
2025-12-25 12:31:40.392162,599616608597763521,-179.00
2025-12-25 12:31:40.392162,599616608597763521,-174.00
2025-12-25 12:31:40.392162,599616608597763521,-171.00
2025-12-25 12:31:40.392162,599616608597763521,-167.00
2025-12-25 12:31:40.392162,599616608597763521,-167.00
2025-12-25 12:31:40.392162,599616608597763521,-167.00
2025-12-25 12:31:40.392162,599616608597763521,-162.00
2025-12-25 12:31:40.392162,599616608597763521,-157.00
2025-12-25 12:31:40.392162,599616608597763521,-157.00
2025-12-25 12:31:40.392162,599616608597763521,-157.00
2025-12-25 12:31:40.392162,599616608597763521,-160.00
2025-12-25 12:31:40.392162,599616608597763521,-160.00
2025-12-25 12:31:40.392162,599616608597763521,-157.00
2025-12-25 12:31:40.392162,599616608597763521,-155.00
2025-12-25 12:31:40.392162,599616608597763521,-150.00
2025-12-25 12:31:40.392162,599616608597763521,-148.00
2025-12-25 12:31:40.392162,599616608597763521,-146.00
2025-12-25 12:31:40.392162,599616608597763521,-146.00
2025-12-25 12:31:40.392162,599616608597763521,-143.00
2025-12-25 12:31:40.392162,599616608597763521,-143.00
2025-12-25 12:31:40.392162,599616608597763521,-146.00
2025-12-25 12:31:40.392162,599616608597763521,-150.00
2025-12-25 12:31:40.392162,599616608597763521,-148.00
2025-12-25 12:31:40.392162,599616608597763521,-139.00
2025-12-25 12:31:40.392162,599616608597763521,-120.00
2025-12-25 12:31:40.392162,599616608597763521,-94.00
2025-12-25 12:31:40.392162,599616608597763521,-80.00
2025-12-25 12:31:40.392162,599616608597763521,-96.00
2025-12-25 12:31:40.392162,599616608597763521,-122.00
2025-12-25 12:31:40.392162,599616608597763521,-129.00
2025-12-25 12:31:40.392162,599616608597763521,-122.00
2025-12-25 12:31:40.392162,599616608597763521,-122.00
2025-12-25 12:31:40.392162,599616608597763521,-122.00
2025-12-25 12:31:40.392162,599616608597763521,-115.00
2025-12-25 12:31:40.392162,599616608597763521,-131.00
2025-12-25 12:31:40.392162,599616608597763521,-193.00
2025-12-25 12:31:40.392162,599616608597763521,-87.00
2025-12-25 12:31:40.392162,599616608597763521,537.00
2025-12-25 12:31:40.392162,599616608597763521,1354.00
2025-12-25 12:31:40.392162,599616608597763521,1364.00
2025-12-25 12:31:40.392162,599616608597763521,296.00
2025-12-25 12:31:40.392162,599616608597763521,-612.00
2025-12-25 12:31:40.926198,599616609158516512,-442.00
2025-12-25 12:31:40.926198,599616609158516512,-49.00
2025-12-25 12:31:40.926198,599616609158516512,-150.00
2025-12-25 12:31:40.926198,599616609158516512,-254.00
2025-12-25 12:31:40.926198,599616609158516512,-157.00
2025-12-25 12:31:40.926198,599616609158516512,-146.00
2025-12-25 12:31:40.926198,599616609158516512,-183.00
2025-12-25 12:31:40.926198,599616609158516512,-150.00
2025-12-25 12:31:40.926198,599616609158516512,-127.00
2025-12-25 12:31:40.926198,599616609158516512,-129.00
2025-12-25 12:31:40.926198,599616609158516512,-113.00
2025-12-25 12:31:40.926198,599616609158516512,-89.00
2025-12-25 12:31:40.926198,599616609158516512,-82.00
2025-12-25 12:31:40.926198,599616609158516512,-70.00
2025-12-25 12:31:40.926198,599616609158516512,-47.00
2025-12-25 12:31:40.926198,599616609158516512,-25.00
2025-12-25 12:31:40.926198,599616609158516512,-7.00
2025-12-25 12:31:40.926198,599616609158516512,11.00
2025-12-25 12:31:40.926198,599616609158516512,32.00
2025-12-25 12:31:40.926198,599616609158516512,54.00
2025-12-25 12:31:40.926198,599616609158516512,80.00
2025-12-25 12:31:40.926198,599616609158516512,106.00
2025-12-25 12:31:40.926198,599616609158516512,120.00
2025-12-25 12:31:40.926198,599616609158516512,124.00
2025-12-25 12:31:40.926198,599616609158516512,124.00
2025-12-25 12:31:40.926198,599616609158516512,113.00
2025-12-25 12:31:40.926198,599616609158516512,84.00
2025-12-25 12:31:40.926198,599616609158516512,35.00
2025-12-25 12:31:40.926198,599616609158516512,-30.00
2025-12-25 12:31:40.926198,599616609158516512,-96.00
2025-12-25 12:31:40.926198,599616609158516512,-148.00
2025-12-25 12:31:40.926198,599616609158516512,-190.00
2025-12-25 12:31:40.926198,599616609158516512,-221.00
2025-12-25 12:31:40.926198,599616609158516512,-240.00
2025-12-25 12:31:40.926198,599616609158516512,-247.00
2025-12-25 12:31:40.926198,599616609158516512,-247.00
2025-12-25 12:31:40.926198,599616609158516512,-245.00
2025-12-25 12:31:40.926198,599616609158516512,-242.00
2025-12-25 12:31:40.926198,599616609158516512,-235.00
2025-12-25 12:31:40.926198,599616609158516512,-223.00
2025-12-25 12:31:40.926198,599616609158516512,-214.00
2025-12-25 12:31:40.926198,599616609158516512,-207.00
2025-12-25 12:31:40.926198,599616609158516512,-200.00
2025-12-25 12:31:40.926198,599616609158516512,-190.00
2025-12-25 12:31:40.926198,599616609158516512,-179.00
2025-12-25 12:31:40.926198,599616609158516512,-176.00
2025-12-25 12:31:40.926198,599616609158516512,-174.00
2025-12-25 12:31:40.926198,599616609158516512,-169.00
2025-12-25 12:31:40.926198,599616609158516512,-164.00
2025-12-25 12:31:40.926198,599616609158516512,-162.00
2025-12-25 12:31:40.926198,599616609158516512,-160.00
2025-12-25 12:31:40.926198,599616609158516512,-155.00
2025-12-25 12:31:40.926198,599616609158516512,-153.00
2025-12-25 12:31:40.926198,599616609158516512,-155.00
2025-12-25 12:31:40.926198,599616609158516512,-155.00
2025-12-25 12:31:40.926198,599616609158516512,-153.00
2025-12-25 12:31:40.926198,599616609158516512,-150.00
2025-12-25 12:31:40.926198,599616609158516512,-148.00
2025-12-25 12:31:40.926198,599616609158516512,-148.00
2025-12-25 12:31:40.926198,599616609158516512,-150.00
2025-12-25 12:31:40.926198,599616609158516512,-150.00
2025-12-25 12:31:40.926198,599616609158516512,-148.00
2025-12-25 12:31:40.926198,599616609158516512,-143.00
2025-12-25 12:31:40.926198,599616609158516512,-141.00
2025-12-25 12:31:40.926198,599616609158516512,-141.00
2025-12-25 12:31:40.926198,599616609158516512,-141.00
2025-12-25 12:31:40.926198,599616609158516512,-143.00
2025-12-25 12:31:40.926198,599616609158516512,-148.00
2025-12-25 12:31:40.926198,599616609158516512,-150.00
2025-12-25 12:31:40.926198,599616609158516512,-148.00
2025-12-25 12:31:40.926198,599616609158516512,-131.00
2025-12-25 12:31:40.926198,599616609158516512,-106.00
2025-12-25 12:31:40.926198,599616609158516512,-94.00
2025-12-25 12:31:41.433888,599616609719274589,-96.00
2025-12-25 12:31:41.433888,599616609719274589,-101.00
2025-12-25 12:31:41.433888,599616609719274589,-120.00
2025-12-25 12:31:41.433888,599616609719274589,-134.00
2025-12-25 12:31:41.433888,599616609719274589,-131.00
2025-12-25 12:31:41.433888,599616609719274589,-122.00
2025-12-25 12:31:41.433888,599616609719274589,-120.00
2025-12-25 12:31:41.433888,599616609719274589,-120.00
2025-12-25 12:31:41.433888,599616609719274589,-131.00
2025-12-25 12:31:41.433888,599616609719274589,-188.00
2025-12-25 12:31:41.433888,599616609719274589,-82.00
2025-12-25 12:31:41.433888,599616609719274589,544.00
2025-12-25 12:31:41.433888,599616609719274589,1373.00
2025-12-25 12:31:41.433888,599616609719274589,1387.00
2025-12-25 12:31:41.433888,599616609719274589,308.00
2025-12-25 12:31:41.433888,599616609719274589,-603.00
2025-12-25 12:31:41.433888,599616609719274589,-426.00
2025-12-25 12:31:41.433888,599616609719274589,-42.00
2025-12-25 12:31:41.433888,599616609719274589,-150.00
2025-12-25 12:31:41.433888,599616609719274589,-242.00
2025-12-25 12:31:41.433888,599616609719274589,-146.00
2025-12-25 12:31:41.433888,599616609719274589,-143.00
2025-12-25 12:31:41.433888,599616609719274589,-179.00
2025-12-25 12:31:41.433888,599616609719274589,-143.00
2025-12-25 12:31:41.433888,599616609719274589,-124.00
2025-12-25 12:31:41.433888,599616609719274589,-127.00
2025-12-25 12:31:41.433888,599616609719274589,-110.00
2025-12-25 12:31:41.433888,599616609719274589,-94.00
2025-12-25 12:31:41.433888,599616609719274589,-84.00
2025-12-25 12:31:41.433888,599616609719274589,-73.00
2025-12-25 12:31:41.433888,599616609719274589,-54.00
2025-12-25 12:31:41.433888,599616609719274589,-32.00
2025-12-25 12:31:41.433888,599616609719274589,-14.00
2025-12-25 12:31:41.433888,599616609719274589,4.00
2025-12-25 12:31:41.433888,599616609719274589,30.00
2025-12-25 12:31:41.433888,599616609719274589,58.00
2025-12-25 12:31:41.433888,599616609719274589,87.00
2025-12-25 12:31:41.433888,599616609719274589,108.00
2025-12-25 12:31:41.433888,599616609719274589,124.00
2025-12-25 12:31:41.433888,599616609719274589,129.00
2025-12-25 12:31:41.433888,599616609719274589,127.00
2025-12-25 12:31:41.433888,599616609719274589,117.00
2025-12-25 12:31:41.433888,599616609719274589,94.00
2025-12-25 12:31:41.433888,599616609719274589,54.00
2025-12-25 12:31:41.433888,599616609719274589,-7.00
2025-12-25 12:31:41.433888,599616609719274589,-73.00
2025-12-25 12:31:41.433888,599616609719274589,-124.00
2025-12-25 12:31:41.433888,599616609719274589,-160.00
2025-12-25 12:31:41.433888,599616609719274589,-193.00
2025-12-25 12:31:41.433888,599616609719274589,-209.00
2025-12-25 12:31:41.433888,599616609719274589,-216.00
2025-12-25 12:31:41.433888,599616609719274589,-226.00
2025-12-25 12:31:41.433888,599616609719274589,-221.00
2025-12-25 12:31:41.433888,599616609719274589,-207.00
2025-12-25 12:31:41.433888,599616609719274589,-190.00
2025-12-25 12:31:41.433888,599616609719274589,-188.00
2025-12-25 12:31:41.433888,599616609719274589,-193.00
2025-12-25 12:31:41.433888,599616609719274589,-186.00
2025-12-25 12:31:41.433888,599616609719274589,-174.00
2025-12-25 12:31:41.433888,599616609719274589,-162.00
2025-12-25 12:31:41.433888,599616609719274589,-150.00
2025-12-25 12:31:41.433888,599616609719274589,-141.00
2025-12-25 12:31:41.433888,599616609719274589,-141.00
2025-12-25 12:31:41.433888,599616609719274589,-136.00
2025-12-25 12:31:41.433888,599616609719274589,-120.00
2025-12-25 12:31:41.433888,599616609719274589,-113.00
2025-12-25 12:31:41.433888,599616609719274589,-117.00
2025-12-25 12:31:41.433888,599616609719274589,-120.00
2025-12-25 12:31:41.433888,599616609719274589,-113.00
2025-12-25 12:31:41.433888,599616609719274589,-103.00
2025-12-25 12:31:41.433888,599616609719274589,-106.00
2025-12-25 12:31:41.433888,599616609719274589,-108.00
2025-12-25 12:31:41.433888,599616609719274589,-98.00
2025-12-25 12:31:42.166065,599616610280002148,-91.00
2025-12-25 12:31:42.166065,599616610280002148,-96.00
2025-12-25 12:31:42.166065,599616610280002148,-94.00
2025-12-25 12:31:42.166065,599616610280002148,-91.00
2025-12-25 12:31:42.166065,599616610280002148,-94.00
2025-12-25 12:31:42.166065,599616610280002148,-84.00
2025-12-25 12:31:42.166065,599616610280002148,-75.00
2025-12-25 12:31:42.166065,599616610280002148,-82.00
2025-12-25 12:31:42.166065,599616610280002148,-82.00
2025-12-25 12:31:42.166065,599616610280002148,-80.00
2025-12-25 12:31:42.166065,599616610280002148,-80.00
2025-12-25 12:31:42.166065,599616610280002148,-77.00
2025-12-25 12:31:42.166065,599616610280002148,-68.00
2025-12-25 12:31:42.166065,599616610280002148,-54.00
2025-12-25 12:31:42.166065,599616610280002148,-35.00
2025-12-25 12:31:42.166065,599616610280002148,-25.00
2025-12-25 12:31:42.166065,599616610280002148,-28.00
2025-12-25 12:31:42.166065,599616610280002148,-47.00
2025-12-25 12:31:42.166065,599616610280002148,-68.00
2025-12-25 12:31:42.166065,599616610280002148,-65.00
2025-12-25 12:31:42.166065,599616610280002148,-56.00
2025-12-25 12:31:42.166065,599616610280002148,-54.00
2025-12-25 12:31:42.166065,599616610280002148,-51.00
2025-12-25 12:31:42.166065,599616610280002148,-56.00
2025-12-25 12:31:42.166065,599616610280002148,-98.00
2025-12-25 12:31:42.166065,599616610280002148,-75.00
2025-12-25 12:31:42.166065,599616610280002148,384.00
2025-12-25 12:31:42.166065,599616610280002148,1210.00
2025-12-25 12:31:42.166065,599616610280002148,1470.00
2025-12-25 12:31:42.166065,599616610280002148,584.00
2025-12-25 12:31:42.166065,599616610280002148,-459.00
2025-12-25 12:31:42.166065,599616610280002148,-492.00
2025-12-25 12:31:42.166065,599616610280002148,-49.00
2025-12-25 12:31:42.166065,599616610280002148,-25.00
2025-12-25 12:31:42.166065,599616610280002148,-143.00
2025-12-25 12:31:42.166065,599616610280002148,-84.00
2025-12-25 12:31:42.166065,599616610280002148,-49.00
2025-12-25 12:31:42.166065,599616610280002148,-80.00
2025-12-25 12:31:42.166065,599616610280002148,-58.00
2025-12-25 12:31:42.166065,599616610280002148,-32.00
2025-12-25 12:31:42.166065,599616610280002148,-40.00
2025-12-25 12:31:42.166065,599616610280002148,-35.00
2025-12-25 12:31:42.166065,599616610280002148,-11.00
2025-12-25 12:31:42.166065,599616610280002148,4.00
2025-12-25 12:31:42.166065,599616610280002148,16.00
2025-12-25 12:31:42.166065,599616610280002148,32.00
2025-12-25 12:31:42.166065,599616610280002148,40.00
2025-12-25 12:31:42.166065,599616610280002148,54.00
2025-12-25 12:31:42.166065,599616610280002148,82.00
2025-12-25 12:31:42.166065,599616610280002148,103.00
2025-12-25 12:31:42.166065,599616610280002148,115.00
2025-12-25 12:31:42.166065,599616610280002148,139.00
2025-12-25 12:31:42.166065,599616610280002148,160.00
2025-12-25 12:31:42.166065,599616610280002148,167.00
2025-12-25 12:31:42.166065,599616610280002148,171.00
2025-12-25 12:31:42.166065,599616610280002148,164.00
2025-12-25 12:31:42.166065,599616610280002148,146.00
2025-12-25 12:31:42.166065,599616610280002148,120.00
2025-12-25 12:31:42.166065,599616610280002148,75.00
2025-12-25 12:31:42.166065,599616610280002148,7.00
2025-12-25 12:31:42.166065,599616610280002148,-65.00
2025-12-25 12:31:42.166065,599616610280002148,-124.00
2025-12-25 12:31:42.166065,599616610280002148,-162.00
2025-12-25 12:31:42.166065,599616610280002148,-186.00
2025-12-25 12:31:42.166065,599616610280002148,-207.00
2025-12-25 12:31:42.166065,599616610280002148,-223.00
2025-12-25 12:31:42.166065,599616610280002148,-221.00
2025-12-25 12:31:42.166065,599616610280002148,-214.00
2025-12-25 12:31:42.166065,599616610280002148,-219.00
2025-12-25 12:31:42.166065,599616610280002148,-214.00
2025-12-25 12:31:42.166065,599616610280002148,-202.00
2025-12-25 12:31:42.166065,599616610280002148,-197.00
2025-12-25 12:31:42.166065,599616610280002148,-193.00
2025-12-25 12:31:42.549967,599616610840760225,-188.00
2025-12-25 12:31:42.549967,599616610840760225,-183.00
2025-12-25 12:31:42.549967,599616610840760225,-176.00
2025-12-25 12:31:42.549967,599616610840760225,-171.00
2025-12-25 12:31:42.549967,599616610840760225,-169.00
2025-12-25 12:31:42.549967,599616610840760225,-164.00
2025-12-25 12:31:42.549967,599616610840760225,-153.00
2025-12-25 12:31:42.549967,599616610840760225,-148.00
2025-12-25 12:31:42.549967,599616610840760225,-143.00
2025-12-25 12:31:42.549967,599616610840760225,-139.00
2025-12-25 12:31:42.549967,599616610840760225,-134.00
2025-12-25 12:31:42.549967,599616610840760225,-136.00
2025-12-25 12:31:42.549967,599616610840760225,-139.00
2025-12-25 12:31:42.549967,599616610840760225,-136.00
2025-12-25 12:31:42.549967,599616610840760225,-129.00
2025-12-25 12:31:42.549967,599616610840760225,-122.00
2025-12-25 12:31:42.549967,599616610840760225,-124.00
2025-12-25 12:31:42.549967,599616610840760225,-127.00
2025-12-25 12:31:42.549967,599616610840760225,-127.00
2025-12-25 12:31:42.549967,599616610840760225,-124.00
2025-12-25 12:31:42.549967,599616610840760225,-120.00
2025-12-25 12:31:42.549967,599616610840760225,-120.00
2025-12-25 12:31:42.549967,599616610840760225,-127.00
2025-12-25 12:31:42.549967,599616610840760225,-129.00
2025-12-25 12:31:42.549967,599616610840760225,-124.00
2025-12-25 12:31:42.549967,599616610840760225,-110.00
2025-12-25 12:31:42.549967,599616610840760225,-84.00
2025-12-25 12:31:42.549967,599616610840760225,-65.00
2025-12-25 12:31:42.549967,599616610840760225,-77.00
2025-12-25 12:31:42.549967,599616610840760225,-101.00
2025-12-25 12:31:42.549967,599616610840760225,-108.00
2025-12-25 12:31:42.549967,599616610840760225,-106.00
2025-12-25 12:31:42.549967,599616610840760225,-106.00
2025-12-25 12:31:42.549967,599616610840760225,-106.00
2025-12-25 12:31:42.549967,599616610840760225,-101.00
2025-12-25 12:31:42.549967,599616610840760225,-106.00
2025-12-25 12:31:42.549967,599616610840760225,-153.00
2025-12-25 12:31:42.549967,599616610840760225,-155.00
2025-12-25 12:31:42.549967,599616610840760225,226.00
2025-12-25 12:31:42.549967,599616610840760225,973.00
2025-12-25 12:31:42.549967,599616610840760225,1300.00
2025-12-25 12:31:42.549967,599616610840760225,600.00
2025-12-25 12:31:42.549967,599616610840760225,-438.00
2025-12-25 12:31:42.549967,599616610840760225,-584.00
2025-12-25 12:31:42.549967,599616610840760225,-101.00
2025-12-25 12:31:42.549967,599616610840760225,-37.00
2025-12-25 12:31:42.549967,599616610840760225,-223.00
2025-12-25 12:31:42.549967,599616610840760225,-169.00
2025-12-25 12:31:42.549967,599616610840760225,-101.00
2025-12-25 12:31:42.549967,599616610840760225,-148.00
2025-12-25 12:31:42.549967,599616610840760225,-143.00
2025-12-25 12:31:42.549967,599616610840760225,-108.00
2025-12-25 12:31:42.549967,599616610840760225,-106.00
2025-12-25 12:31:42.549967,599616610840760225,-103.00
2025-12-25 12:31:42.549967,599616610840760225,-84.00
2025-12-25 12:31:42.549967,599616610840760225,-73.00
2025-12-25 12:31:42.549967,599616610840760225,-65.00
2025-12-25 12:31:42.549967,599616610840760225,-49.00
2025-12-25 12:31:42.549967,599616610840760225,-40.00
2025-12-25 12:31:42.549967,599616610840760225,-30.00
2025-12-25 12:31:42.549967,599616610840760225,-11.00
2025-12-25 12:31:42.549967,599616610840760225,9.00
2025-12-25 12:31:42.549967,599616610840760225,28.00
2025-12-25 12:31:42.549967,599616610840760225,51.00
2025-12-25 12:31:42.549967,599616610840760225,70.00
2025-12-25 12:31:42.549967,599616610840760225,82.00
2025-12-25 12:31:42.549967,599616610840760225,89.00
2025-12-25 12:31:42.549967,599616610840760225,89.00
2025-12-25 12:31:42.549967,599616610840760225,82.00
2025-12-25 12:31:42.549967,599616610840760225,58.00
2025-12-25 12:31:42.549967,599616610840760225,14.00
2025-12-25 12:31:42.549967,599616610840760225,-47.00
2025-12-25 12:31:42.549967,599616610840760225,-108.00
2025-12-25 12:31:43.137954,599616611401518300,-160.00
2025-12-25 12:31:43.137954,599616611401518300,-197.00
2025-12-25 12:31:43.137954,599616611401518300,-223.00
2025-12-25 12:31:43.137954,599616611401518300,-242.00
2025-12-25 12:31:43.137954,599616611401518300,-252.00
2025-12-25 12:31:43.137954,599616611401518300,-245.00
2025-12-25 12:31:43.137954,599616611401518300,-237.00
2025-12-25 12:31:43.137954,599616611401518300,-233.00
2025-12-25 12:31:43.137954,599616611401518300,-226.00
2025-12-25 12:31:43.137954,599616611401518300,-221.00
2025-12-25 12:31:43.137954,599616611401518300,-219.00
2025-12-25 12:31:43.137954,599616611401518300,-209.00
2025-12-25 12:31:43.137954,599616611401518300,-200.00
2025-12-25 12:31:43.137954,599616611401518300,-195.00
2025-12-25 12:31:43.137954,599616611401518300,-188.00
2025-12-25 12:31:43.137954,599616611401518300,-179.00
2025-12-25 12:31:43.137954,599616611401518300,-176.00
2025-12-25 12:31:43.137954,599616611401518300,-174.00
2025-12-25 12:31:43.137954,599616611401518300,-169.00
2025-12-25 12:31:43.137954,599616611401518300,-167.00
2025-12-25 12:31:43.137954,599616611401518300,-162.00
2025-12-25 12:31:43.137954,599616611401518300,-160.00
2025-12-25 12:31:43.137954,599616611401518300,-155.00
2025-12-25 12:31:43.137954,599616611401518300,-148.00
2025-12-25 12:31:43.137954,599616611401518300,-146.00
2025-12-25 12:31:43.137954,599616611401518300,-141.00
2025-12-25 12:31:43.137954,599616611401518300,-141.00
2025-12-25 12:31:43.137954,599616611401518300,-143.00
2025-12-25 12:31:43.137954,599616611401518300,-141.00
2025-12-25 12:31:43.137954,599616611401518300,-134.00
2025-12-25 12:31:43.137954,599616611401518300,-136.00
2025-12-25 12:31:43.137954,599616611401518300,-134.00
2025-12-25 12:31:43.137954,599616611401518300,-129.00
2025-12-25 12:31:43.137954,599616611401518300,-127.00
2025-12-25 12:31:43.137954,599616611401518300,-131.00
2025-12-25 12:31:43.137954,599616611401518300,-139.00
2025-12-25 12:31:43.137954,599616611401518300,-141.00
2025-12-25 12:31:43.137954,599616611401518300,-141.00
2025-12-25 12:31:43.137954,599616611401518300,-131.00
2025-12-25 12:31:43.137954,599616611401518300,-103.00
2025-12-25 12:31:43.137954,599616611401518300,-77.00
2025-12-25 12:31:43.137954,599616611401518300,-89.00
2025-12-25 12:31:43.137954,599616611401518300,-113.00
2025-12-25 12:31:43.137954,599616611401518300,-115.00
2025-12-25 12:31:43.137954,599616611401518300,-120.00
2025-12-25 12:31:43.137954,599616611401518300,-124.00
2025-12-25 12:31:43.137954,599616611401518300,-115.00
2025-12-25 12:31:43.137954,599616611401518300,-108.00
2025-12-25 12:31:43.137954,599616611401518300,-117.00
2025-12-25 12:31:43.137954,599616611401518300,-171.00
2025-12-25 12:31:43.137954,599616611401518300,-150.00
2025-12-25 12:31:43.137954,599616611401518300,294.00
2025-12-25 12:31:43.137954,599616611401518300,1057.00
2025-12-25 12:31:43.137954,599616611401518300,1309.00
2025-12-25 12:31:43.137954,599616611401518300,511.00
2025-12-25 12:31:43.137954,599616611401518300,-499.00
2025-12-25 12:31:43.137954,599616611401518300,-515.00
2025-12-25 12:31:43.137954,599616611401518300,-35.00
2025-12-25 12:31:43.137954,599616611401518300,-68.00
2025-12-25 12:31:43.137954,599616611401518300,-245.00
2025-12-25 12:31:43.137954,599616611401518300,-150.00
2025-12-25 12:31:43.137954,599616611401518300,-106.00
2025-12-25 12:31:43.137954,599616611401518300,-160.00
2025-12-25 12:31:43.137954,599616611401518300,-139.00
2025-12-25 12:31:43.137954,599616611401518300,-103.00
2025-12-25 12:31:43.137954,599616611401518300,-113.00
2025-12-25 12:31:43.137954,599616611401518300,-103.00
2025-12-25 12:31:43.137954,599616611401518300,-80.00
2025-12-25 12:31:43.137954,599616611401518300,-77.00
2025-12-25 12:31:43.137954,599616611401518300,-70.00
2025-12-25 12:31:43.137954,599616611401518300,-47.00
2025-12-25 12:31:43.137954,599616611401518300,-32.00
2025-12-25 12:31:43.137954,599616611401518300,-23.00
2025-12-25 12:31:43.728856,599616611962245863,-7.00
2025-12-25 12:31:43.728856,599616611962245863,14.00
2025-12-25 12:31:43.728856,599616611962245863,32.00
2025-12-25 12:31:43.728856,599616611962245863,54.00
2025-12-25 12:31:43.728856,599616611962245863,75.00
2025-12-25 12:31:43.728856,599616611962245863,87.00
2025-12-25 12:31:43.728856,599616611962245863,96.00
2025-12-25 12:31:43.728856,599616611962245863,108.00
2025-12-25 12:31:43.728856,599616611962245863,110.00
2025-12-25 12:31:43.728856,599616611962245863,80.00
2025-12-25 12:31:43.728856,599616611962245863,30.00
2025-12-25 12:31:43.728856,599616611962245863,-21.00
2025-12-25 12:31:43.728856,599616611962245863,-82.00
2025-12-25 12:31:43.728856,599616611962245863,-136.00
2025-12-25 12:31:43.728856,599616611962245863,-167.00
2025-12-25 12:31:43.728856,599616611962245863,-193.00
2025-12-25 12:31:43.728856,599616611962245863,-219.00
2025-12-25 12:31:43.728856,599616611962245863,-226.00
2025-12-25 12:31:43.728856,599616611962245863,-219.00
2025-12-25 12:31:43.728856,599616611962245863,-214.00
2025-12-25 12:31:43.728856,599616611962245863,-216.00
2025-12-25 12:31:43.728856,599616611962245863,-214.00
2025-12-25 12:31:43.728856,599616611962245863,-202.00
2025-12-25 12:31:43.728856,599616611962245863,-193.00
2025-12-25 12:31:43.728856,599616611962245863,-193.00
2025-12-25 12:31:43.728856,599616611962245863,-193.00
2025-12-25 12:31:43.728856,599616611962245863,-183.00
2025-12-25 12:31:43.728856,599616611962245863,-169.00
2025-12-25 12:31:43.728856,599616611962245863,-169.00
2025-12-25 12:31:43.728856,599616611962245863,-176.00
2025-12-25 12:31:43.728856,599616611962245863,-169.00
2025-12-25 12:31:43.728856,599616611962245863,-160.00
2025-12-25 12:31:43.728856,599616611962245863,-160.00
2025-12-25 12:31:43.728856,599616611962245863,-160.00
2025-12-25 12:31:43.728856,599616611962245863,-155.00
2025-12-25 12:31:43.728856,599616611962245863,-148.00
2025-12-25 12:31:43.728856,599616611962245863,-153.00
2025-12-25 12:31:43.728856,599616611962245863,-153.00
2025-12-25 12:31:43.728856,599616611962245863,-146.00
2025-12-25 12:31:43.728856,599616611962245863,-143.00
2025-12-25 12:31:43.728856,599616611962245863,-143.00
2025-12-25 12:31:43.728856,599616611962245863,-139.00
2025-12-25 12:31:43.728856,599616611962245863,-141.00
2025-12-25 12:31:43.728856,599616611962245863,-143.00
2025-12-25 12:31:43.728856,599616611962245863,-134.00
2025-12-25 12:31:43.728856,599616611962245863,-129.00
2025-12-25 12:31:43.728856,599616611962245863,-139.00
2025-12-25 12:31:43.728856,599616611962245863,-136.00
2025-12-25 12:31:43.728856,599616611962245863,-129.00
2025-12-25 12:31:43.728856,599616611962245863,-131.00
2025-12-25 12:31:43.728856,599616611962245863,-141.00
2025-12-25 12:31:43.728856,599616611962245863,-146.00
2025-12-25 12:31:43.728856,599616611962245863,-146.00
2025-12-25 12:31:43.728856,599616611962245863,-141.00
2025-12-25 12:31:43.728856,599616611962245863,-120.00
2025-12-25 12:31:43.728856,599616611962245863,-87.00
2025-12-25 12:31:43.728856,599616611962245863,-73.00
2025-12-25 12:31:43.728856,599616611962245863,-94.00
2025-12-25 12:31:43.728856,599616611962245863,-127.00
2025-12-25 12:31:43.728856,599616611962245863,-127.00
2025-12-25 12:31:43.728856,599616611962245863,-106.00
2025-12-25 12:31:43.728856,599616611962245863,-120.00
2025-12-25 12:31:43.728856,599616611962245863,-148.00
2025-12-25 12:31:43.728856,599616611962245863,-136.00
2025-12-25 12:31:43.728856,599616611962245863,-139.00
2025-12-25 12:31:43.728856,599616611962245863,-214.00
2025-12-25 12:31:43.728856,599616611962245863,-122.00
2025-12-25 12:31:43.728856,599616611962245863,461.00
2025-12-25 12:31:43.728856,599616611962245863,1218.00
2025-12-25 12:31:43.728856,599616611962245863,1246.00
2025-12-25 12:31:43.728856,599616611962245863,285.00
2025-12-25 12:31:43.728856,599616611962245863,-588.00
2025-12-25 12:31:43.728856,599616611962245863,-457.00
2025-12-25 12:31:44.242055,599616612523003940,-54.00
2025-12-25 12:31:44.242055,599616612523003940,-124.00
2025-12-25 12:31:44.242055,599616612523003940,-245.00
2025-12-25 12:31:44.242055,599616612523003940,-164.00
2025-12-25 12:31:44.242055,599616612523003940,-141.00
2025-12-25 12:31:44.242055,599616612523003940,-176.00
2025-12-25 12:31:44.242055,599616612523003940,-153.00
2025-12-25 12:31:44.242055,599616612523003940,-127.00
2025-12-25 12:31:44.242055,599616612523003940,-134.00
2025-12-25 12:31:44.242055,599616612523003940,-134.00
2025-12-25 12:31:44.242055,599616612523003940,-120.00
2025-12-25 12:31:44.242055,599616612523003940,-106.00
2025-12-25 12:31:44.242055,599616612523003940,-89.00
2025-12-25 12:31:44.242055,599616612523003940,-77.00
2025-12-25 12:31:44.242055,599616612523003940,-63.00
2025-12-25 12:31:44.242055,599616612523003940,-54.00
2025-12-25 12:31:44.242055,599616612523003940,-47.00
2025-12-25 12:31:44.242055,599616612523003940,-32.00
2025-12-25 12:31:44.242055,599616612523003940,-14.00
2025-12-25 12:31:44.242055,599616612523003940,2.00
2025-12-25 12:31:44.242055,599616612523003940,14.00
2025-12-25 12:31:44.242055,599616612523003940,23.00
2025-12-25 12:31:44.242055,599616612523003940,21.00
2025-12-25 12:31:44.242055,599616612523003940,9.00
2025-12-25 12:31:44.242055,599616612523003940,-4.00
2025-12-25 12:31:44.242055,599616612523003940,-23.00
2025-12-25 12:31:44.242055,599616612523003940,-58.00
2025-12-25 12:31:44.242055,599616612523003940,-117.00
2025-12-25 12:31:44.242055,599616612523003940,-183.00
2025-12-25 12:31:44.242055,599616612523003940,-228.00
2025-12-25 12:31:44.242055,599616612523003940,-266.00
2025-12-25 12:31:44.242055,599616612523003940,-308.00
2025-12-25 12:31:44.242055,599616612523003940,-327.00
2025-12-25 12:31:44.242055,599616612523003940,-322.00
2025-12-25 12:31:44.242055,599616612523003940,-325.00
2025-12-25 12:31:44.242055,599616612523003940,-332.00
2025-12-25 12:31:44.242055,599616612523003940,-322.00
2025-12-25 12:31:44.242055,599616612523003940,-306.00
2025-12-25 12:31:44.242055,599616612523003940,-308.00
2025-12-25 12:31:44.242055,599616612523003940,-332.00
2025-12-25 12:31:44.242055,599616612523003940,-329.00
2025-12-25 12:31:44.242055,599616612523003940,-306.00
2025-12-25 12:31:44.242055,599616612523003940,-306.00
2025-12-25 12:31:44.242055,599616612523003940,-308.00
2025-12-25 12:31:44.242055,599616612523003940,-301.00
2025-12-25 12:31:44.242055,599616612523003940,-296.00
2025-12-25 12:31:44.242055,599616612523003940,-299.00
2025-12-25 12:31:44.242055,599616612523003940,-299.00
2025-12-25 12:31:44.242055,599616612523003940,-294.00
2025-12-25 12:31:44.242055,599616612523003940,-296.00
2025-12-25 12:31:44.242055,599616612523003940,-299.00
2025-12-25 12:31:44.242055,599616612523003940,-299.00
2025-12-25 12:31:44.242055,599616612523003940,-294.00
2025-12-25 12:31:44.242055,599616612523003940,-294.00
2025-12-25 12:31:44.242055,599616612523003940,-294.00
2025-12-25 12:31:44.242055,599616612523003940,-294.00
2025-12-25 12:31:44.242055,599616612523003940,-294.00
2025-12-25 12:31:44.242055,599616612523003940,-296.00
2025-12-25 12:31:44.242055,599616612523003940,-289.00
2025-12-25 12:31:44.242055,599616612523003940,-289.00
2025-12-25 12:31:44.242055,599616612523003940,-296.00
2025-12-25 12:31:44.242055,599616612523003940,-299.00
2025-12-25 12:31:44.242055,599616612523003940,-296.00
2025-12-25 12:31:44.242055,599616612523003940,-289.00
2025-12-25 12:31:44.242055,599616612523003940,-287.00
2025-12-25 12:31:44.242055,599616612523003940,-292.00
2025-12-25 12:31:44.242055,599616612523003940,-299.00
2025-12-25 12:31:44.242055,599616612523003940,-299.00
2025-12-25 12:31:44.242055,599616612523003940,-296.00
2025-12-25 12:31:44.242055,599616612523003940,-301.00
2025-12-25 12:31:44.242055,599616612523003940,-303.00
2025-12-25 12:31:44.242055,599616612523003940,-294.00
2025-12-25 12:31:44.242055,599616612523003940,-273.00
2025-12-25 12:31:44.846110,599616613083746757,-254.00
2025-12-25 12:31:44.846110,599616613083746757,-247.00
2025-12-25 12:31:44.846110,599616613083746757,-261.00
2025-12-25 12:31:44.846110,599616613083746757,-282.00
2025-12-25 12:31:44.846110,599616613083746757,-285.00
2025-12-25 12:31:44.846110,599616613083746757,-287.00
2025-12-25 12:31:44.846110,599616613083746757,-303.00
2025-12-25 12:31:44.846110,599616613083746757,-306.00
2025-12-25 12:31:44.846110,599616613083746757,-287.00
2025-12-25 12:31:44.846110,599616613083746757,-294.00
2025-12-25 12:31:44.846110,599616613083746757,-351.00
2025-12-25 12:31:44.846110,599616613083746757,-202.00
2025-12-25 12:31:44.846110,599616613083746757,452.00
2025-12-25 12:31:44.846110,599616613083746757,1170.00
2025-12-25 12:31:44.846110,599616613083746757,1022.00
2025-12-25 12:31:44.846110,599616613083746757,-37.00
2025-12-25 12:31:44.846110,599616613083746757,-765.00
2025-12-25 12:31:44.846110,599616613083746757,-506.00
2025-12-25 12:31:44.846110,599616613083746757,-195.00
2025-12-25 12:31:44.846110,599616613083746757,-341.00
2025-12-25 12:31:44.846110,599616613083746757,-400.00
2025-12-25 12:31:44.846110,599616613083746757,-287.00
2025-12-25 12:31:44.846110,599616613083746757,-296.00
2025-12-25 12:31:44.846110,599616613083746757,-336.00
2025-12-25 12:31:44.846110,599616613083746757,-301.00
2025-12-25 12:31:44.846110,599616613083746757,-278.00
2025-12-25 12:31:44.846110,599616613083746757,-280.00
2025-12-25 12:31:44.846110,599616613083746757,-266.00
2025-12-25 12:31:44.846110,599616613083746757,-245.00
2025-12-25 12:31:44.846110,599616613083746757,-235.00
2025-12-25 12:31:44.846110,599616613083746757,-223.00
2025-12-25 12:31:44.846110,599616613083746757,-202.00
2025-12-25 12:31:44.846110,599616613083746757,-190.00
2025-12-25 12:31:44.846110,599616613083746757,-176.00
2025-12-25 12:31:44.846110,599616613083746757,-153.00
2025-12-25 12:31:44.846110,599616613083746757,-134.00
2025-12-25 12:31:44.846110,599616613083746757,-120.00
2025-12-25 12:31:44.846110,599616613083746757,-96.00
2025-12-25 12:31:44.846110,599616613083746757,-75.00
2025-12-25 12:31:44.846110,599616613083746757,-65.00
2025-12-25 12:31:44.846110,599616613083746757,-68.00
2025-12-25 12:31:44.846110,599616613083746757,-70.00
2025-12-25 12:31:44.846110,599616613083746757,-77.00
2025-12-25 12:31:44.846110,599616613083746757,-101.00
2025-12-25 12:31:44.846110,599616613083746757,-131.00
2025-12-25 12:31:44.846110,599616613083746757,-169.00
2025-12-25 12:31:44.846110,599616613083746757,-228.00
2025-12-25 12:31:44.846110,599616613083746757,-285.00
2025-12-25 12:31:44.846110,599616613083746757,-308.00
2025-12-25 12:31:44.846110,599616613083746757,-322.00
2025-12-25 12:31:44.846110,599616613083746757,-336.00
2025-12-25 12:31:44.846110,599616613083746757,-341.00
2025-12-25 12:31:44.846110,599616613083746757,-336.00
2025-12-25 12:31:44.846110,599616613083746757,-334.00
2025-12-25 12:31:44.846110,599616613083746757,-327.00
2025-12-25 12:31:44.846110,599616613083746757,-315.00
2025-12-25 12:31:44.846110,599616613083746757,-306.00
2025-12-25 12:31:44.846110,599616613083746757,-299.00
2025-12-25 12:31:44.846110,599616613083746757,-287.00
2025-12-25 12:31:44.846110,599616613083746757,-278.00
2025-12-25 12:31:44.846110,599616613083746757,-275.00
2025-12-25 12:31:44.846110,599616613083746757,-266.00
2025-12-25 12:31:44.846110,599616613083746757,-256.00
2025-12-25 12:31:44.846110,599616613083746757,-254.00
2025-12-25 12:31:44.846110,599616613083746757,-252.00
2025-12-25 12:31:44.846110,599616613083746757,-247.00
2025-12-25 12:31:44.846110,599616613083746757,-240.00
2025-12-25 12:31:44.846110,599616613083746757,-230.00
2025-12-25 12:31:44.846110,599616613083746757,-228.00
2025-12-25 12:31:44.846110,599616613083746757,-226.00
2025-12-25 12:31:44.846110,599616613083746757,-223.00
2025-12-25 12:31:44.846110,599616613083746757,-223.00
2025-12-25 12:31:44.846110,599616613083746757,-221.00
2025-12-25 12:31:45.435536,599616613644489576,-216.00
2025-12-25 12:31:45.435536,599616613644489576,-209.00
2025-12-25 12:31:45.435536,599616613644489576,-209.00
2025-12-25 12:31:45.435536,599616613644489576,-212.00
2025-12-25 12:31:45.435536,599616613644489576,-204.00
2025-12-25 12:31:45.435536,599616613644489576,-197.00
2025-12-25 12:31:45.435536,599616613644489576,-195.00
2025-12-25 12:31:45.435536,599616613644489576,-190.00
2025-12-25 12:31:45.435536,599616613644489576,-190.00
2025-12-25 12:31:45.435536,599616613644489576,-193.00
2025-12-25 12:31:45.435536,599616613644489576,-186.00
2025-12-25 12:31:45.435536,599616613644489576,-186.00
2025-12-25 12:31:45.435536,599616613644489576,-186.00
2025-12-25 12:31:45.435536,599616613644489576,-179.00
2025-12-25 12:31:45.435536,599616613644489576,-176.00
2025-12-25 12:31:45.435536,599616613644489576,-162.00
2025-12-25 12:31:45.435536,599616613644489576,-139.00
2025-12-25 12:31:45.435536,599616613644489576,-117.00
2025-12-25 12:31:45.435536,599616613644489576,-108.00
2025-12-25 12:31:45.435536,599616613644489576,-127.00
2025-12-25 12:31:45.435536,599616613644489576,-157.00
2025-12-25 12:31:45.435536,599616613644489576,-157.00
2025-12-25 12:31:45.435536,599616613644489576,-146.00
2025-12-25 12:31:45.435536,599616613644489576,-143.00
2025-12-25 12:31:45.435536,599616613644489576,-141.00
2025-12-25 12:31:45.435536,599616613644489576,-136.00
2025-12-25 12:31:45.435536,599616613644489576,-167.00
2025-12-25 12:31:45.435536,599616613644489576,-188.00
2025-12-25 12:31:45.435536,599616613644489576,124.00
2025-12-25 12:31:45.435536,599616613644489576,892.00
2025-12-25 12:31:45.435536,599616613644489576,1394.00
2025-12-25 12:31:45.435536,599616613644489576,831.00
2025-12-25 12:31:45.435536,599616613644489576,-285.00
2025-12-25 12:31:45.435536,599616613644489576,-636.00
2025-12-25 12:31:45.435536,599616613644489576,-219.00
2025-12-25 12:31:45.435536,599616613644489576,-68.00
2025-12-25 12:31:45.435536,599616613644489576,-221.00
2025-12-25 12:31:45.435536,599616613644489576,-209.00
2025-12-25 12:31:45.435536,599616613644489576,-153.00
2025-12-25 12:31:45.435536,599616613644489576,-181.00
2025-12-25 12:31:45.435536,599616613644489576,-179.00
2025-12-25 12:31:45.435536,599616613644489576,-148.00
2025-12-25 12:31:45.435536,599616613644489576,-143.00
2025-12-25 12:31:45.435536,599616613644489576,-134.00
2025-12-25 12:31:45.435536,599616613644489576,-113.00
2025-12-25 12:31:45.435536,599616613644489576,-101.00
2025-12-25 12:31:45.435536,599616613644489576,-91.00
2025-12-25 12:31:45.435536,599616613644489576,-77.00
2025-12-25 12:31:45.435536,599616613644489576,-58.00
2025-12-25 12:31:45.435536,599616613644489576,-42.00
2025-12-25 12:31:45.435536,599616613644489576,-32.00
2025-12-25 12:31:45.435536,599616613644489576,-16.00
2025-12-25 12:31:45.435536,599616613644489576,11.00
2025-12-25 12:31:45.435536,599616613644489576,37.00
2025-12-25 12:31:45.435536,599616613644489576,51.00
2025-12-25 12:31:45.435536,599616613644489576,61.00
2025-12-25 12:31:45.435536,599616613644489576,65.00
2025-12-25 12:31:45.435536,599616613644489576,63.00
2025-12-25 12:31:45.435536,599616613644489576,58.00
2025-12-25 12:31:45.435536,599616613644489576,44.00
2025-12-25 12:31:45.435536,599616613644489576,11.00
2025-12-25 12:31:45.435536,599616613644489576,-32.00
2025-12-25 12:31:45.435536,599616613644489576,-89.00
2025-12-25 12:31:45.435536,599616613644489576,-143.00
2025-12-25 12:31:45.435536,599616613644489576,-181.00
2025-12-25 12:31:45.435536,599616613644489576,-207.00
2025-12-25 12:31:45.435536,599616613644489576,-228.00
2025-12-25 12:31:45.435536,599616613644489576,-240.00
2025-12-25 12:31:45.435536,599616613644489576,-242.00
2025-12-25 12:31:45.435536,599616613644489576,-237.00
2025-12-25 12:31:45.435536,599616613644489576,-240.00
2025-12-25 12:31:45.435536,599616613644489576,-237.00
2025-12-25 12:31:45.435536,599616613644489576,-223.00
2025-12-25 12:31:45.952170,599616614205247653,-214.00
2025-12-25 12:31:45.952170,599616614205247653,-212.00
2025-12-25 12:31:45.952170,599616614205247653,-207.00
2025-12-25 12:31:45.952170,599616614205247653,-197.00
2025-12-25 12:31:45.952170,599616614205247653,-193.00
2025-12-25 12:31:45.952170,599616614205247653,-186.00
2025-12-25 12:31:45.952170,599616614205247653,-181.00
2025-12-25 12:31:45.952170,599616614205247653,-179.00
2025-12-25 12:31:45.952170,599616614205247653,-174.00
2025-12-25 12:31:45.952170,599616614205247653,-164.00
2025-12-25 12:31:45.952170,599616614205247653,-160.00
2025-12-25 12:31:45.952170,599616614205247653,-157.00
2025-12-25 12:31:45.952170,599616614205247653,-150.00
2025-12-25 12:31:45.952170,599616614205247653,-150.00
2025-12-25 12:31:45.952170,599616614205247653,-150.00
2025-12-25 12:31:45.952170,599616614205247653,-139.00
2025-12-25 12:31:45.952170,599616614205247653,-131.00
2025-12-25 12:31:45.952170,599616614205247653,-139.00
2025-12-25 12:31:45.952170,599616614205247653,-141.00
2025-12-25 12:31:45.952170,599616614205247653,-136.00
2025-12-25 12:31:45.952170,599616614205247653,-134.00
2025-12-25 12:31:45.952170,599616614205247653,-131.00
2025-12-25 12:31:45.952170,599616614205247653,-127.00
2025-12-25 12:31:45.952170,599616614205247653,-122.00
2025-12-25 12:31:45.952170,599616614205247653,-120.00
2025-12-25 12:31:45.952170,599616614205247653,-117.00
2025-12-25 12:31:45.952170,599616614205247653,-115.00
2025-12-25 12:31:45.952170,599616614205247653,-120.00
2025-12-25 12:31:45.952170,599616614205247653,-122.00
2025-12-25 12:31:45.952170,599616614205247653,-122.00
2025-12-25 12:31:45.952170,599616614205247653,-122.00
2025-12-25 12:31:45.952170,599616614205247653,-122.00
2025-12-25 12:31:45.952170,599616614205247653,-108.00
2025-12-25 12:31:45.952170,599616614205247653,-87.00
2025-12-25 12:31:45.952170,599616614205247653,-70.00
2025-12-25 12:31:45.952170,599616614205247653,-61.00
2025-12-25 12:31:45.952170,599616614205247653,-73.00
2025-12-25 12:31:45.952170,599616614205247653,-98.00
2025-12-25 12:31:45.952170,599616614205247653,-110.00
2025-12-25 12:31:45.952170,599616614205247653,-108.00
2025-12-25 12:31:45.952170,599616614205247653,-103.00
2025-12-25 12:31:45.952170,599616614205247653,-101.00
2025-12-25 12:31:45.952170,599616614205247653,-98.00
2025-12-25 12:31:45.952170,599616614205247653,-108.00
2025-12-25 12:31:45.952170,599616614205247653,-157.00
2025-12-25 12:31:45.952170,599616614205247653,-70.00
2025-12-25 12:31:45.952170,599616614205247653,501.00
2025-12-25 12:31:45.952170,599616614205247653,1288.00
2025-12-25 12:31:45.952170,599616614205247653,1298.00
2025-12-25 12:31:45.952170,599616614205247653,261.00
2025-12-25 12:31:45.952170,599616614205247653,-596.00
2025-12-25 12:31:45.952170,599616614205247653,-431.00
2025-12-25 12:31:45.952170,599616614205247653,-58.00
2025-12-25 12:31:45.952170,599616614205247653,-120.00
2025-12-25 12:31:45.952170,599616614205247653,-195.00
2025-12-25 12:31:45.952170,599616614205247653,-122.00
2025-12-25 12:31:45.952170,599616614205247653,-117.00
2025-12-25 12:31:45.952170,599616614205247653,-146.00
2025-12-25 12:31:45.952170,599616614205247653,-117.00
2025-12-25 12:31:45.952170,599616614205247653,-96.00
2025-12-25 12:31:45.952170,599616614205247653,-98.00
2025-12-25 12:31:45.952170,599616614205247653,-87.00
2025-12-25 12:31:45.952170,599616614205247653,-70.00
2025-12-25 12:31:45.952170,599616614205247653,-56.00
2025-12-25 12:31:45.952170,599616614205247653,-44.00
2025-12-25 12:31:45.952170,599616614205247653,-28.00
2025-12-25 12:31:45.952170,599616614205247653,-14.00
2025-12-25 12:31:45.952170,599616614205247653,2.00
2025-12-25 12:31:45.952170,599616614205247653,21.00
2025-12-25 12:31:45.952170,599616614205247653,37.00
2025-12-25 12:31:45.952170,599616614205247653,56.00
2025-12-25 12:31:45.952170,599616614205247653,77.00
2025-12-25 12:31:45.952170,599616614205247653,91.00
2025-12-25 12:31:46.488712,599616614766005730,101.00
2025-12-25 12:31:46.488712,599616614766005730,103.00
2025-12-25 12:31:46.488712,599616614766005730,98.00
2025-12-25 12:31:46.488712,599616614766005730,91.00
2025-12-25 12:31:46.488712,599616614766005730,68.00
2025-12-25 12:31:46.488712,599616614766005730,28.00
2025-12-25 12:31:46.488712,599616614766005730,-14.00
2025-12-25 12:31:46.488712,599616614766005730,-63.00
2025-12-25 12:31:46.488712,599616614766005730,-117.00
2025-12-25 12:31:46.488712,599616614766005730,-157.00
2025-12-25 12:31:46.488712,599616614766005730,-179.00
2025-12-25 12:31:46.488712,599616614766005730,-193.00
2025-12-25 12:31:46.488712,599616614766005730,-200.00
2025-12-25 12:31:46.488712,599616614766005730,-202.00
2025-12-25 12:31:46.488712,599616614766005730,-197.00
2025-12-25 12:31:46.488712,599616614766005730,-193.00
2025-12-25 12:31:46.488712,599616614766005730,-186.00
2025-12-25 12:31:46.488712,599616614766005730,-176.00
2025-12-25 12:31:46.488712,599616614766005730,-164.00
2025-12-25 12:31:46.488712,599616614766005730,-162.00
2025-12-25 12:31:46.488712,599616614766005730,-157.00
2025-12-25 12:31:46.488712,599616614766005730,-148.00
2025-12-25 12:31:46.488712,599616614766005730,-141.00
2025-12-25 12:31:46.488712,599616614766005730,-136.00
2025-12-25 12:31:46.488712,599616614766005730,-129.00
2025-12-25 12:31:46.488712,599616614766005730,-124.00
2025-12-25 12:31:46.488712,599616614766005730,-124.00
2025-12-25 12:31:46.488712,599616614766005730,-122.00
2025-12-25 12:31:46.488712,599616614766005730,-120.00
2025-12-25 12:31:46.488712,599616614766005730,-117.00
2025-12-25 12:31:46.488712,599616614766005730,-117.00
2025-12-25 12:31:46.488712,599616614766005730,-120.00
2025-12-25 12:31:46.488712,599616614766005730,-120.00
2025-12-25 12:31:46.488712,599616614766005730,-115.00
2025-12-25 12:31:46.488712,599616614766005730,-110.00
2025-12-25 12:31:46.488712,599616614766005730,-108.00
2025-12-25 12:31:46.488712,599616614766005730,-106.00
2025-12-25 12:31:46.488712,599616614766005730,-103.00
2025-12-25 12:31:46.488712,599616614766005730,-96.00
2025-12-25 12:31:46.488712,599616614766005730,-96.00
2025-12-25 12:31:46.488712,599616614766005730,-96.00
2025-12-25 12:31:46.488712,599616614766005730,-94.00
2025-12-25 12:31:46.488712,599616614766005730,-91.00
2025-12-25 12:31:46.488712,599616614766005730,-89.00
2025-12-25 12:31:46.488712,599616614766005730,-89.00
2025-12-25 12:31:46.488712,599616614766005730,-91.00
2025-12-25 12:31:46.488712,599616614766005730,-89.00
2025-12-25 12:31:46.488712,599616614766005730,-91.00
2025-12-25 12:31:46.488712,599616614766005730,-98.00
2025-12-25 12:31:46.488712,599616614766005730,-98.00
2025-12-25 12:31:46.488712,599616614766005730,-80.00
2025-12-25 12:31:46.488712,599616614766005730,-56.00
2025-12-25 12:31:46.488712,599616614766005730,-40.00
2025-12-25 12:31:46.488712,599616614766005730,-40.00
2025-12-25 12:31:46.488712,599616614766005730,-54.00
2025-12-25 12:31:46.488712,599616614766005730,-73.00
2025-12-25 12:31:46.488712,599616614766005730,-82.00
2025-12-25 12:31:46.488712,599616614766005730,-82.00
2025-12-25 12:31:46.488712,599616614766005730,-80.00
2025-12-25 12:31:46.488712,599616614766005730,-73.00
2025-12-25 12:31:46.488712,599616614766005730,-73.00
2025-12-25 12:31:46.488712,599616614766005730,-101.00
2025-12-25 12:31:46.488712,599616614766005730,-148.00
2025-12-25 12:31:46.488712,599616614766005730,70.00
2025-12-25 12:31:46.488712,599616614766005730,793.00
2025-12-25 12:31:46.488712,599616614766005730,1453.00
2025-12-25 12:31:46.488712,599616614766005730,1102.00
2025-12-25 12:31:46.488712,599616614766005730,-44.00
2025-12-25 12:31:46.488712,599616614766005730,-619.00
2025-12-25 12:31:46.488712,599616614766005730,-266.00
2025-12-25 12:31:46.488712,599616614766005730,-7.00
2025-12-25 12:31:46.488712,599616614766005730,-146.00
2025-12-25 12:31:46.488712,599616614766005730,-174.00
2025-12-25 12:31:47.125622,599616615326763809,-96.00
2025-12-25 12:31:47.125622,599616615326763809,-113.00
2025-12-25 12:31:47.125622,599616615326763809,-124.00
2025-12-25 12:31:47.125622,599616615326763809,-87.00
2025-12-25 12:31:47.125622,599616615326763809,-70.00
2025-12-25 12:31:47.125622,599616615326763809,-70.00
2025-12-25 12:31:47.125622,599616615326763809,-56.00
2025-12-25 12:31:47.125622,599616615326763809,-40.00
2025-12-25 12:31:47.125622,599616615326763809,-32.00
2025-12-25 12:31:47.125622,599616615326763809,-16.00
2025-12-25 12:31:47.125622,599616615326763809,11.00
2025-12-25 12:31:47.125622,599616615326763809,25.00
2025-12-25 12:31:47.125622,599616615326763809,35.00
2025-12-25 12:31:47.125622,599616615326763809,56.00
2025-12-25 12:31:47.125622,599616615326763809,77.00
2025-12-25 12:31:47.125622,599616615326763809,96.00
2025-12-25 12:31:47.125622,599616615326763809,117.00
2025-12-25 12:31:47.125622,599616615326763809,131.00
2025-12-25 12:31:47.125622,599616615326763809,136.00
2025-12-25 12:31:47.125622,599616615326763809,136.00
2025-12-25 12:31:47.125622,599616615326763809,131.00
2025-12-25 12:31:47.125622,599616615326763809,113.00
2025-12-25 12:31:47.125622,599616615326763809,82.00
2025-12-25 12:31:47.125622,599616615326763809,40.00
2025-12-25 12:31:47.125622,599616615326763809,-18.00
2025-12-25 12:31:47.125622,599616615326763809,-82.00
2025-12-25 12:31:47.125622,599616615326763809,-129.00
2025-12-25 12:31:47.125622,599616615326763809,-160.00
2025-12-25 12:31:47.125622,599616615326763809,-181.00
2025-12-25 12:31:47.125622,599616615326763809,-200.00
2025-12-25 12:31:47.125622,599616615326763809,-207.00
2025-12-25 12:31:47.125622,599616615326763809,-207.00
2025-12-25 12:31:47.125622,599616615326763809,-202.00
2025-12-25 12:31:47.125622,599616615326763809,-195.00
2025-12-25 12:31:47.125622,599616615326763809,-186.00
2025-12-25 12:31:47.125622,599616615326763809,-179.00
2025-12-25 12:31:47.125622,599616615326763809,-174.00
2025-12-25 12:31:47.125622,599616615326763809,-169.00
2025-12-25 12:31:47.125622,599616615326763809,-160.00
2025-12-25 12:31:47.125622,599616615326763809,-153.00
2025-12-25 12:31:47.125622,599616615326763809,-150.00
2025-12-25 12:31:47.125622,599616615326763809,-150.00
2025-12-25 12:31:47.125622,599616615326763809,-148.00
2025-12-25 12:31:47.125622,599616615326763809,-146.00
2025-12-25 12:31:47.125622,599616615326763809,-141.00
2025-12-25 12:31:47.125622,599616615326763809,-136.00
2025-12-25 12:31:47.125622,599616615326763809,-136.00
2025-12-25 12:31:47.125622,599616615326763809,-141.00
2025-12-25 12:31:47.125622,599616615326763809,-141.00
2025-12-25 12:31:47.125622,599616615326763809,-139.00
2025-12-25 12:31:47.125622,599616615326763809,-136.00
2025-12-25 12:31:47.125622,599616615326763809,-139.00
2025-12-25 12:31:47.125622,599616615326763809,-136.00
2025-12-25 12:31:47.125622,599616615326763809,-139.00
2025-12-25 12:31:47.125622,599616615326763809,-139.00
2025-12-25 12:31:47.125622,599616615326763809,-136.00
2025-12-25 12:31:47.125622,599616615326763809,-136.00
2025-12-25 12:31:47.125622,599616615326763809,-136.00
2025-12-25 12:31:47.125622,599616615326763809,-131.00
2025-12-25 12:31:47.125622,599616615326763809,-131.00
2025-12-25 12:31:47.125622,599616615326763809,-131.00
2025-12-25 12:31:47.125622,599616615326763809,-131.00
2025-12-25 12:31:47.125622,599616615326763809,-129.00
2025-12-25 12:31:47.125622,599616615326763809,-129.00
2025-12-25 12:31:47.125622,599616615326763809,-136.00
2025-12-25 12:31:47.125622,599616615326763809,-143.00
2025-12-25 12:31:47.125622,599616615326763809,-146.00
2025-12-25 12:31:47.125622,599616615326763809,-141.00
2025-12-25 12:31:47.125622,599616615326763809,-124.00
2025-12-25 12:31:47.125622,599616615326763809,-101.00
2025-12-25 12:31:47.125622,599616615326763809,-84.00
2025-12-25 12:31:47.125622,599616615326763809,-87.00
2025-12-25 12:31:47.125622,599616615326763809,-110.00
2025-12-25 12:31:47.864053,599616615887501540,-131.00
2025-12-25 12:31:47.864053,599616615887501540,-134.00
2025-12-25 12:31:47.864053,599616615887501540,-131.00
2025-12-25 12:31:47.864053,599616615887501540,-129.00
2025-12-25 12:31:47.864053,599616615887501540,-124.00
2025-12-25 12:31:47.864053,599616615887501540,-124.00
2025-12-25 12:31:47.864053,599616615887501540,-162.00
2025-12-25 12:31:47.864053,599616615887501540,-179.00
2025-12-25 12:31:47.864053,599616615887501540,174.00
2025-12-25 12:31:47.864053,599616615887501540,977.00
2025-12-25 12:31:47.864053,599616615887501540,1448.00
2025-12-25 12:31:47.864053,599616615887501540,801.00
2025-12-25 12:31:47.864053,599616615887501540,-339.00
2025-12-25 12:31:47.864053,599616615887501540,-624.00
2025-12-25 12:31:47.864053,599616615887501540,-183.00
2025-12-25 12:31:47.864053,599616615887501540,-65.00
2025-12-25 12:31:47.864053,599616615887501540,-223.00
2025-12-25 12:31:47.864053,599616615887501540,-195.00
2025-12-25 12:31:47.864053,599616615887501540,-131.00
2025-12-25 12:31:47.864053,599616615887501540,-157.00
2025-12-25 12:31:47.864053,599616615887501540,-155.00
2025-12-25 12:31:47.864053,599616615887501540,-122.00
2025-12-25 12:31:47.864053,599616615887501540,-122.00
2025-12-25 12:31:47.864053,599616615887501540,-115.00
2025-12-25 12:31:47.864053,599616615887501540,-89.00
2025-12-25 12:31:47.864053,599616615887501540,-77.00
2025-12-25 12:31:47.864053,599616615887501540,-70.00
2025-12-25 12:31:47.864053,599616615887501540,-56.00
2025-12-25 12:31:47.864053,599616615887501540,-42.00
2025-12-25 12:31:47.864053,599616615887501540,-30.00
2025-12-25 12:31:47.864053,599616615887501540,-9.00
2025-12-25 12:31:47.864053,599616615887501540,11.00
2025-12-25 12:31:47.864053,599616615887501540,30.00
2025-12-25 12:31:47.864053,599616615887501540,49.00
2025-12-25 12:31:47.864053,599616615887501540,70.00
2025-12-25 12:31:47.864053,599616615887501540,84.00
2025-12-25 12:31:47.864053,599616615887501540,89.00
2025-12-25 12:31:47.864053,599616615887501540,89.00
2025-12-25 12:31:47.864053,599616615887501540,84.00
2025-12-25 12:31:47.864053,599616615887501540,65.00
2025-12-25 12:31:47.864053,599616615887501540,32.00
2025-12-25 12:31:47.864053,599616615887501540,-21.00
2025-12-25 12:31:47.864053,599616615887501540,-84.00
2025-12-25 12:31:47.864053,599616615887501540,-141.00
2025-12-25 12:31:47.864053,599616615887501540,-186.00
2025-12-25 12:31:47.864053,599616615887501540,-219.00
2025-12-25 12:31:47.864053,599616615887501540,-242.00
2025-12-25 12:31:47.864053,599616615887501540,-254.00
2025-12-25 12:31:47.864053,599616615887501540,-256.00
2025-12-25 12:31:47.864053,599616615887501540,-252.00
2025-12-25 12:31:47.864053,599616615887501540,-249.00
2025-12-25 12:31:47.864053,599616615887501540,-242.00
2025-12-25 12:31:47.864053,599616615887501540,-235.00
2025-12-25 12:31:47.864053,599616615887501540,-226.00
2025-12-25 12:31:47.864053,599616615887501540,-219.00
2025-12-25 12:31:47.864053,599616615887501540,-212.00
2025-12-25 12:31:47.864053,599616615887501540,-204.00
2025-12-25 12:31:47.864053,599616615887501540,-197.00
2025-12-25 12:31:47.864053,599616615887501540,-195.00
2025-12-25 12:31:47.864053,599616615887501540,-190.00
2025-12-25 12:31:47.864053,599616615887501540,-183.00
2025-12-25 12:31:47.864053,599616615887501540,-179.00
2025-12-25 12:31:47.864053,599616615887501540,-181.00
2025-12-25 12:31:47.864053,599616615887501540,-179.00
2025-12-25 12:31:47.864053,599616615887501540,-174.00
2025-12-25 12:31:47.864053,599616615887501540,-169.00
2025-12-25 12:31:47.864053,599616615887501540,-171.00
2025-12-25 12:31:47.864053,599616615887501540,-169.00
2025-12-25 12:31:47.864053,599616615887501540,-164.00
2025-12-25 12:31:47.864053,599616615887501540,-160.00
2025-12-25 12:31:47.864053,599616615887501540,-160.00
2025-12-25 12:31:47.864053,599616615887501540,-162.00
2025-12-25 12:31:47.864053,599616615887501540,-160.00
2025-12-25 12:31:48.214688,599616616448249445,-157.00
2025-12-25 12:31:48.214688,599616616448249445,-155.00
2025-12-25 12:31:48.214688,599616616448249445,-155.00
2025-12-25 12:31:48.214688,599616616448249445,-153.00
2025-12-25 12:31:48.214688,599616616448249445,-148.00
2025-12-25 12:31:48.214688,599616616448249445,-148.00
2025-12-25 12:31:48.214688,599616616448249445,-148.00
2025-12-25 12:31:48.214688,599616616448249445,-148.00
2025-12-25 12:31:48.214688,599616616448249445,-148.00
2025-12-25 12:31:48.214688,599616616448249445,-146.00
2025-12-25 12:31:48.214688,599616616448249445,-141.00
2025-12-25 12:31:48.214688,599616616448249445,-143.00
2025-12-25 12:31:48.214688,599616616448249445,-148.00
2025-12-25 12:31:48.214688,599616616448249445,-129.00
2025-12-25 12:31:48.214688,599616616448249445,-101.00
2025-12-25 12:31:48.214688,599616616448249445,-84.00
2025-12-25 12:31:48.214688,599616616448249445,-84.00
2025-12-25 12:31:48.214688,599616616448249445,-101.00
2025-12-25 12:31:48.214688,599616616448249445,-122.00
2025-12-25 12:31:48.214688,599616616448249445,-127.00
2025-12-25 12:31:48.214688,599616616448249445,-122.00
2025-12-25 12:31:48.214688,599616616448249445,-117.00
2025-12-25 12:31:48.214688,599616616448249445,-108.00
2025-12-25 12:31:48.214688,599616616448249445,-106.00
2025-12-25 12:31:48.214688,599616616448249445,-143.00
2025-12-25 12:31:48.214688,599616616448249445,-183.00
2025-12-25 12:31:48.214688,599616616448249445,89.00
2025-12-25 12:31:48.214688,599616616448249445,862.00
2025-12-25 12:31:48.214688,599616616448249445,1472.00
2025-12-25 12:31:48.214688,599616616448249445,1017.00
2025-12-25 12:31:48.214688,599616616448249445,-153.00
2025-12-25 12:31:48.214688,599616616448249445,-647.00
2025-12-25 12:31:48.214688,599616616448249445,-252.00
2025-12-25 12:31:48.214688,599616616448249445,-40.00
2025-12-25 12:31:48.214688,599616616448249445,-193.00
2025-12-25 12:31:48.214688,599616616448249445,-202.00
2025-12-25 12:31:48.214688,599616616448249445,-127.00
2025-12-25 12:31:48.214688,599616616448249445,-153.00
2025-12-25 12:31:48.214688,599616616448249445,-160.00
2025-12-25 12:31:48.214688,599616616448249445,-120.00
2025-12-25 12:31:48.214688,599616616448249445,-103.00
2025-12-25 12:31:48.214688,599616616448249445,-106.00
2025-12-25 12:31:48.214688,599616616448249445,-89.00
2025-12-25 12:31:48.214688,599616616448249445,-75.00
2025-12-25 12:31:48.214688,599616616448249445,-68.00
2025-12-25 12:31:48.214688,599616616448249445,-51.00
2025-12-25 12:31:48.214688,599616616448249445,-32.00
2025-12-25 12:31:48.214688,599616616448249445,-18.00
2025-12-25 12:31:48.214688,599616616448249445,-2.00
2025-12-25 12:31:48.214688,599616616448249445,18.00
2025-12-25 12:31:48.214688,599616616448249445,40.00
2025-12-25 12:31:48.214688,599616616448249445,63.00
2025-12-25 12:31:48.214688,599616616448249445,84.00
2025-12-25 12:31:48.214688,599616616448249445,101.00
2025-12-25 12:31:48.214688,599616616448249445,108.00
2025-12-25 12:31:48.214688,599616616448249445,108.00
2025-12-25 12:31:48.214688,599616616448249445,106.00
2025-12-25 12:31:48.214688,599616616448249445,89.00
2025-12-25 12:31:48.214688,599616616448249445,58.00
2025-12-25 12:31:48.214688,599616616448249445,9.00
2025-12-25 12:31:48.214688,599616616448249445,-54.00
2025-12-25 12:31:48.214688,599616616448249445,-115.00
2025-12-25 12:31:48.214688,599616616448249445,-160.00
2025-12-25 12:31:48.214688,599616616448249445,-197.00
2025-12-25 12:31:48.214688,599616616448249445,-223.00
2025-12-25 12:31:48.214688,599616616448249445,-237.00
2025-12-25 12:31:48.214688,599616616448249445,-242.00
2025-12-25 12:31:48.214688,599616616448249445,-240.00
2025-12-25 12:31:48.214688,599616616448249445,-235.00
2025-12-25 12:31:48.214688,599616616448249445,-226.00
2025-12-25 12:31:48.214688,599616616448249445,-221.00
2025-12-25 12:31:48.214688,599616616448249445,-219.00
2025-12-25 12:31:48.214688,599616616448249445,-209.00
2025-12-25 12:31:48.755945,599616617009007522,-197.00
2025-12-25 12:31:48.755945,599616617009007522,-190.00
2025-12-25 12:31:48.755945,599616617009007522,-188.00
2025-12-25 12:31:48.755945,599616617009007522,-183.00
2025-12-25 12:31:48.755945,599616617009007522,-181.00
2025-12-25 12:31:48.755945,599616617009007522,-176.00
2025-12-25 12:31:48.755945,599616617009007522,-167.00
2025-12-25 12:31:48.755945,599616617009007522,-160.00
2025-12-25 12:31:48.755945,599616617009007522,-157.00
2025-12-25 12:31:48.755945,599616617009007522,-150.00
2025-12-25 12:31:48.755945,599616617009007522,-143.00
2025-12-25 12:31:48.755945,599616617009007522,-143.00
2025-12-25 12:31:48.755945,599616617009007522,-143.00
2025-12-25 12:31:48.755945,599616617009007522,-136.00
2025-12-25 12:31:48.755945,599616617009007522,-129.00
2025-12-25 12:31:48.755945,599616617009007522,-131.00
2025-12-25 12:31:48.755945,599616617009007522,-136.00
2025-12-25 12:31:48.755945,599616617009007522,-134.00
2025-12-25 12:31:48.755945,599616617009007522,-127.00
2025-12-25 12:31:48.755945,599616617009007522,-122.00
2025-12-25 12:31:48.755945,599616617009007522,-122.00
2025-12-25 12:31:48.755945,599616617009007522,-122.00
2025-12-25 12:31:48.755945,599616617009007522,-122.00
2025-12-25 12:31:48.755945,599616617009007522,-120.00
2025-12-25 12:31:48.755945,599616617009007522,-115.00
2025-12-25 12:31:48.755945,599616617009007522,-115.00
2025-12-25 12:31:48.755945,599616617009007522,-117.00
2025-12-25 12:31:48.755945,599616617009007522,-113.00
2025-12-25 12:31:48.755945,599616617009007522,-113.00
2025-12-25 12:31:48.755945,599616617009007522,-122.00
2025-12-25 12:31:48.755945,599616617009007522,-129.00
2025-12-25 12:31:48.755945,599616617009007522,-127.00
2025-12-25 12:31:48.755945,599616617009007522,-113.00
2025-12-25 12:31:48.755945,599616617009007522,-87.00
2025-12-25 12:31:48.755945,599616617009007522,-68.00
2025-12-25 12:31:48.755945,599616617009007522,-65.00
2025-12-25 12:31:48.755945,599616617009007522,-80.00
2025-12-25 12:31:48.755945,599616617009007522,-98.00
2025-12-25 12:31:48.755945,599616617009007522,-110.00
2025-12-25 12:31:48.755945,599616617009007522,-110.00
2025-12-25 12:31:48.755945,599616617009007522,-106.00
2025-12-25 12:31:48.755945,599616617009007522,-106.00
2025-12-25 12:31:48.755945,599616617009007522,-103.00
2025-12-25 12:31:48.755945,599616617009007522,-120.00
2025-12-25 12:31:48.755945,599616617009007522,-171.00
2025-12-25 12:31:48.755945,599616617009007522,-9.00
2025-12-25 12:31:48.755945,599616617009007522,676.00
2025-12-25 12:31:48.755945,599616617009007522,1432.00
2025-12-25 12:31:48.755945,599616617009007522,1265.00
2025-12-25 12:31:48.755945,599616617009007522,134.00
2025-12-25 12:31:48.755945,599616617009007522,-624.00
2025-12-25 12:31:48.755945,599616617009007522,-353.00
2025-12-25 12:31:48.755945,599616617009007522,-30.00
2025-12-25 12:31:48.755945,599616617009007522,-160.00
2025-12-25 12:31:48.755945,599616617009007522,-216.00
2025-12-25 12:31:48.755945,599616617009007522,-120.00
2025-12-25 12:31:48.755945,599616617009007522,-131.00
2025-12-25 12:31:48.755945,599616617009007522,-160.00
2025-12-25 12:31:48.755945,599616617009007522,-122.00
2025-12-25 12:31:48.755945,599616617009007522,-106.00
2025-12-25 12:31:48.755945,599616617009007522,-108.00
2025-12-25 12:31:48.755945,599616617009007522,-91.00
2025-12-25 12:31:48.755945,599616617009007522,-75.00
2025-12-25 12:31:48.755945,599616617009007522,-65.00
2025-12-25 12:31:48.755945,599616617009007522,-54.00
2025-12-25 12:31:48.755945,599616617009007522,-35.00
2025-12-25 12:31:48.755945,599616617009007522,-14.00
2025-12-25 12:31:48.755945,599616617009007522,4.00
2025-12-25 12:31:48.755945,599616617009007522,23.00
2025-12-25 12:31:48.755945,599616617009007522,47.00
2025-12-25 12:31:48.755945,599616617009007522,68.00
2025-12-25 12:31:48.755945,599616617009007522,91.00
2025-12-25 12:31:48.755945,599616617009007522,115.00
2025-12-25 12:31:49.266495,599616617569765599,127.00
2025-12-25 12:31:49.266495,599616617569765599,136.00
2025-12-25 12:31:49.266495,599616617569765599,136.00
2025-12-25 12:31:49.266495,599616617569765599,120.00
2025-12-25 12:31:49.266495,599616617569765599,94.00
2025-12-25 12:31:49.266495,599616617569765599,49.00
2025-12-25 12:31:49.266495,599616617569765599,-18.00
2025-12-25 12:31:49.266495,599616617569765599,-84.00
2025-12-25 12:31:49.266495,599616617569765599,-134.00
2025-12-25 12:31:49.266495,599616617569765599,-171.00
2025-12-25 12:31:49.266495,599616617569765599,-193.00
2025-12-25 12:31:49.266495,599616617569765599,-202.00
2025-12-25 12:31:49.266495,599616617569765599,-209.00
2025-12-25 12:31:49.266495,599616617569765599,-212.00
2025-12-25 12:31:49.266495,599616617569765599,-204.00
2025-12-25 12:31:49.266495,599616617569765599,-200.00
2025-12-25 12:31:49.266495,599616617569765599,-195.00
2025-12-25 12:31:49.266495,599616617569765599,-186.00
2025-12-25 12:31:49.266495,599616617569765599,-179.00
2025-12-25 12:31:49.266495,599616617569765599,-174.00
2025-12-25 12:31:49.266495,599616617569765599,-167.00
2025-12-25 12:31:49.266495,599616617569765599,-162.00
2025-12-25 12:31:49.266495,599616617569765599,-160.00
2025-12-25 12:31:49.266495,599616617569765599,-153.00
2025-12-25 12:31:49.266495,599616617569765599,-146.00
2025-12-25 12:31:49.266495,599616617569765599,-143.00
2025-12-25 12:31:49.266495,599616617569765599,-141.00
2025-12-25 12:31:49.266495,599616617569765599,-136.00
2025-12-25 12:31:49.266495,599616617569765599,-134.00
2025-12-25 12:31:49.266495,599616617569765599,-131.00
2025-12-25 12:31:49.266495,599616617569765599,-129.00
2025-12-25 12:31:49.266495,599616617569765599,-131.00
2025-12-25 12:31:49.266495,599616617569765599,-131.00
2025-12-25 12:31:49.266495,599616617569765599,-129.00
2025-12-25 12:31:49.266495,599616617569765599,-124.00
2025-12-25 12:31:49.266495,599616617569765599,-124.00
2025-12-25 12:31:49.266495,599616617569765599,-129.00
2025-12-25 12:31:49.266495,599616617569765599,-127.00
2025-12-25 12:31:49.266495,599616617569765599,-122.00
2025-12-25 12:31:49.266495,599616617569765599,-122.00
2025-12-25 12:31:49.266495,599616617569765599,-120.00
2025-12-25 12:31:49.266495,599616617569765599,-115.00
2025-12-25 12:31:49.266495,599616617569765599,-110.00
2025-12-25 12:31:49.266495,599616617569765599,-110.00
2025-12-25 12:31:49.266495,599616617569765599,-113.00
2025-12-25 12:31:49.266495,599616617569765599,-113.00
2025-12-25 12:31:49.266495,599616617569765599,-108.00
2025-12-25 12:31:49.266495,599616617569765599,-106.00
2025-12-25 12:31:49.266495,599616617569765599,-115.00
2025-12-25 12:31:49.266495,599616617569765599,-122.00
2025-12-25 12:31:49.266495,599616617569765599,-115.00
2025-12-25 12:31:49.266495,599616617569765599,-98.00
2025-12-25 12:31:49.266495,599616617569765599,-77.00
2025-12-25 12:31:49.266495,599616617569765599,-61.00
2025-12-25 12:31:49.266495,599616617569765599,-61.00
2025-12-25 12:31:49.266495,599616617569765599,-77.00
2025-12-25 12:31:49.266495,599616617569765599,-96.00
2025-12-25 12:31:49.266495,599616617569765599,-106.00
2025-12-25 12:31:49.266495,599616617569765599,-101.00
2025-12-25 12:31:49.266495,599616617569765599,-96.00
2025-12-25 12:31:49.266495,599616617569765599,-96.00
2025-12-25 12:31:49.266495,599616617569765599,-98.00
2025-12-25 12:31:49.266495,599616617569765599,-120.00
2025-12-25 12:31:49.266495,599616617569765599,-167.00
2025-12-25 12:31:49.266495,599616617569765599,7.00
2025-12-25 12:31:49.266495,599616617569765599,706.00
2025-12-25 12:31:49.266495,599616617569765599,1470.00
2025-12-25 12:31:49.266495,599616617569765599,1286.00
2025-12-25 12:31:49.266495,599616617569765599,134.00
2025-12-25 12:31:49.266495,599616617569765599,-619.00
2025-12-25 12:31:49.266495,599616617569765599,-332.00
2025-12-25 12:31:49.266495,599616617569765599,-14.00
2025-12-25 12:31:49.266495,599616617569765599,-155.00
2025-12-25 12:31:49.844032,599616618130523676,-214.00
2025-12-25 12:31:49.844032,599616618130523676,-117.00
2025-12-25 12:31:49.844032,599616618130523676,-124.00
2025-12-25 12:31:49.844032,599616618130523676,-150.00
2025-12-25 12:31:49.844032,599616618130523676,-115.00
2025-12-25 12:31:49.844032,599616618130523676,-101.00
2025-12-25 12:31:49.844032,599616618130523676,-103.00
2025-12-25 12:31:49.844032,599616618130523676,-80.00
2025-12-25 12:31:49.844032,599616618130523676,-56.00
2025-12-25 12:31:49.844032,599616618130523676,-49.00
2025-12-25 12:31:49.844032,599616618130523676,-32.00
2025-12-25 12:31:49.844032,599616618130523676,-14.00
2025-12-25 12:31:49.844032,599616618130523676,-2.00
2025-12-25 12:31:49.844032,599616618130523676,16.00
2025-12-25 12:31:49.844032,599616618130523676,40.00
2025-12-25 12:31:49.844032,599616618130523676,63.00
2025-12-25 12:31:49.844032,599616618130523676,87.00
2025-12-25 12:31:49.844032,599616618130523676,110.00
2025-12-25 12:31:49.844032,599616618130523676,131.00
2025-12-25 12:31:49.844032,599616618130523676,148.00
2025-12-25 12:31:49.844032,599616618130523676,148.00
2025-12-25 12:31:49.844032,599616618130523676,141.00
2025-12-25 12:31:49.844032,599616618130523676,129.00
2025-12-25 12:31:49.844032,599616618130523676,96.00
2025-12-25 12:31:49.844032,599616618130523676,40.00
2025-12-25 12:31:49.844032,599616618130523676,-23.00
2025-12-25 12:31:49.844032,599616618130523676,-84.00
2025-12-25 12:31:49.844032,599616618130523676,-139.00
2025-12-25 12:31:49.844032,599616618130523676,-176.00
2025-12-25 12:31:49.844032,599616618130523676,-202.00
2025-12-25 12:31:49.844032,599616618130523676,-216.00
2025-12-25 12:31:49.844032,599616618130523676,-223.00
2025-12-25 12:31:49.844032,599616618130523676,-223.00
2025-12-25 12:31:49.844032,599616618130523676,-216.00
2025-12-25 12:31:49.844032,599616618130523676,-209.00
2025-12-25 12:31:49.844032,599616618130523676,-204.00
2025-12-25 12:31:49.844032,599616618130523676,-200.00
2025-12-25 12:31:49.844032,599616618130523676,-193.00
2025-12-25 12:31:49.844032,599616618130523676,-183.00
2025-12-25 12:31:49.844032,599616618130523676,-176.00
2025-12-25 12:31:49.844032,599616618130523676,-171.00
2025-12-25 12:31:49.844032,599616618130523676,-169.00
2025-12-25 12:31:49.844032,599616618130523676,-162.00
2025-12-25 12:31:49.844032,599616618130523676,-155.00
2025-12-25 12:31:49.844032,599616618130523676,-155.00
2025-12-25 12:31:49.844032,599616618130523676,-150.00
2025-12-25 12:31:49.844032,599616618130523676,-146.00
2025-12-25 12:31:49.844032,599616618130523676,-143.00
2025-12-25 12:31:49.844032,599616618130523676,-141.00
2025-12-25 12:31:49.844032,599616618130523676,-139.00
2025-12-25 12:31:49.844032,599616618130523676,-139.00
2025-12-25 12:31:49.844032,599616618130523676,-136.00
2025-12-25 12:31:49.844032,599616618130523676,-136.00
2025-12-25 12:31:49.844032,599616618130523676,-131.00
2025-12-25 12:31:49.844032,599616618130523676,-129.00
2025-12-25 12:31:49.844032,599616618130523676,-134.00
2025-12-25 12:31:49.844032,599616618130523676,-136.00
2025-12-25 12:31:49.844032,599616618130523676,-131.00
2025-12-25 12:31:49.844032,599616618130523676,-129.00
2025-12-25 12:31:49.844032,599616618130523676,-127.00
2025-12-25 12:31:49.844032,599616618130523676,-122.00
2025-12-25 12:31:49.844032,599616618130523676,-117.00
2025-12-25 12:31:49.844032,599616618130523676,-117.00
2025-12-25 12:31:49.844032,599616618130523676,-117.00
2025-12-25 12:31:49.844032,599616618130523676,-113.00
2025-12-25 12:31:49.844032,599616618130523676,-108.00
2025-12-25 12:31:49.844032,599616618130523676,-108.00
2025-12-25 12:31:49.844032,599616618130523676,-110.00
2025-12-25 12:31:49.844032,599616618130523676,-113.00
2025-12-25 12:31:49.844032,599616618130523676,-120.00
2025-12-25 12:31:49.844032,599616618130523676,-127.00
2025-12-25 12:31:49.844032,599616618130523676,-115.00
2025-12-25 12:31:49.844032,599616618130523676,-89.00
2025-12-25 12:31:50.556254,599616618691281755,-68.00
2025-12-25 12:31:50.556254,599616618691281755,-63.00
2025-12-25 12:31:50.556254,599616618691281755,-70.00
2025-12-25 12:31:50.556254,599616618691281755,-89.00
2025-12-25 12:31:50.556254,599616618691281755,-103.00
2025-12-25 12:31:50.556254,599616618691281755,-106.00
2025-12-25 12:31:50.556254,599616618691281755,-98.00
2025-12-25 12:31:50.556254,599616618691281755,-96.00
2025-12-25 12:31:50.556254,599616618691281755,-96.00
2025-12-25 12:31:50.556254,599616618691281755,-98.00
2025-12-25 12:31:50.556254,599616618691281755,-136.00
2025-12-25 12:31:50.556254,599616618691281755,-153.00
2025-12-25 12:31:50.556254,599616618691281755,207.00
2025-12-25 12:31:50.556254,599616618691281755,1038.00
2025-12-25 12:31:50.556254,599616618691281755,1552.00
2025-12-25 12:31:50.556254,599616618691281755,921.00
2025-12-25 12:31:50.556254,599616618691281755,-266.00
2025-12-25 12:31:50.556254,599616618691281755,-607.00
2025-12-25 12:31:50.556254,599616618691281755,-167.00
2025-12-25 12:31:50.556254,599616618691281755,-47.00
2025-12-25 12:31:50.556254,599616618691281755,-219.00
2025-12-25 12:31:50.556254,599616618691281755,-188.00
2025-12-25 12:31:50.556254,599616618691281755,-115.00
2025-12-25 12:31:50.556254,599616618691281755,-155.00
2025-12-25 12:31:50.556254,599616618691281755,-157.00
2025-12-25 12:31:50.556254,599616618691281755,-115.00
2025-12-25 12:31:50.556254,599616618691281755,-113.00
2025-12-25 12:31:50.556254,599616618691281755,-108.00
2025-12-25 12:31:50.556254,599616618691281755,-87.00
2025-12-25 12:31:50.556254,599616618691281755,-73.00
2025-12-25 12:31:50.556254,599616618691281755,-61.00
2025-12-25 12:31:50.556254,599616618691281755,-42.00
2025-12-25 12:31:50.556254,599616618691281755,-30.00
2025-12-25 12:31:50.556254,599616618691281755,-14.00
2025-12-25 12:31:50.556254,599616618691281755,7.00
2025-12-25 12:31:50.556254,599616618691281755,28.00
2025-12-25 12:31:50.556254,599616618691281755,51.00
2025-12-25 12:31:50.556254,599616618691281755,77.00
2025-12-25 12:31:50.556254,599616618691281755,103.00
2025-12-25 12:31:50.556254,599616618691281755,124.00
2025-12-25 12:31:50.556254,599616618691281755,141.00
2025-12-25 12:31:50.556254,599616618691281755,141.00
2025-12-25 12:31:50.556254,599616618691281755,129.00
2025-12-25 12:31:50.556254,599616618691281755,110.00
2025-12-25 12:31:50.556254,599616618691281755,75.00
2025-12-25 12:31:50.556254,599616618691281755,18.00
2025-12-25 12:31:50.556254,599616618691281755,-49.00
2025-12-25 12:31:50.556254,599616618691281755,-113.00
2025-12-25 12:31:50.556254,599616618691281755,-162.00
2025-12-25 12:31:50.556254,599616618691281755,-197.00
2025-12-25 12:31:50.556254,599616618691281755,-223.00
2025-12-25 12:31:50.556254,599616618691281755,-233.00
2025-12-25 12:31:50.556254,599616618691281755,-233.00
2025-12-25 12:31:50.556254,599616618691281755,-235.00
2025-12-25 12:31:50.556254,599616618691281755,-228.00
2025-12-25 12:31:50.556254,599616618691281755,-216.00
2025-12-25 12:31:50.556254,599616618691281755,-207.00
2025-12-25 12:31:50.556254,599616618691281755,-200.00
2025-12-25 12:31:50.556254,599616618691281755,-193.00
2025-12-25 12:31:50.556254,599616618691281755,-188.00
2025-12-25 12:31:50.556254,599616618691281755,-186.00
2025-12-25 12:31:50.556254,599616618691281755,-181.00
2025-12-25 12:31:50.556254,599616618691281755,-174.00
2025-12-25 12:31:50.556254,599616618691281755,-169.00
2025-12-25 12:31:50.556254,599616618691281755,-162.00
2025-12-25 12:31:50.556254,599616618691281755,-160.00
2025-12-25 12:31:50.556254,599616618691281755,-160.00
2025-12-25 12:31:50.556254,599616618691281755,-153.00
2025-12-25 12:31:50.556254,599616618691281755,-146.00
2025-12-25 12:31:50.556254,599616618691281755,-143.00
2025-12-25 12:31:50.556254,599616618691281755,-143.00
2025-12-25 12:31:50.556254,599616618691281755,-143.00
2025-12-25 12:31:50.556254,599616618691281755,-143.00
2025-12-25 12:31:51.050232,599616619252039832,-141.00
2025-12-25 12:31:51.050232,599616619252039832,-143.00
2025-12-25 12:31:51.050232,599616619252039832,-141.00
2025-12-25 12:31:51.050232,599616619252039832,-136.00
2025-12-25 12:31:51.050232,599616619252039832,-139.00
2025-12-25 12:31:51.050232,599616619252039832,-139.00
2025-12-25 12:31:51.050232,599616619252039832,-136.00
2025-12-25 12:31:51.050232,599616619252039832,-136.00
2025-12-25 12:31:51.050232,599616619252039832,-131.00
2025-12-25 12:31:51.050232,599616619252039832,-127.00
2025-12-25 12:31:51.050232,599616619252039832,-129.00
2025-12-25 12:31:51.050232,599616619252039832,-131.00
2025-12-25 12:31:51.050232,599616619252039832,-127.00
2025-12-25 12:31:51.050232,599616619252039832,-124.00
2025-12-25 12:31:51.050232,599616619252039832,-122.00
2025-12-25 12:31:51.050232,599616619252039832,-117.00
2025-12-25 12:31:51.050232,599616619252039832,-117.00
2025-12-25 12:31:51.050232,599616619252039832,-124.00
2025-12-25 12:31:51.050232,599616619252039832,-129.00
2025-12-25 12:31:51.050232,599616619252039832,-127.00
2025-12-25 12:31:51.050232,599616619252039832,-106.00
2025-12-25 12:31:51.050232,599616619252039832,-80.00
2025-12-25 12:31:51.050232,599616619252039832,-70.00
2025-12-25 12:31:51.050232,599616619252039832,-65.00
2025-12-25 12:31:51.050232,599616619252039832,-70.00
2025-12-25 12:31:51.050232,599616619252039832,-91.00
2025-12-25 12:31:51.050232,599616619252039832,-103.00
2025-12-25 12:31:51.050232,599616619252039832,-98.00
2025-12-25 12:31:51.050232,599616619252039832,-96.00
2025-12-25 12:31:51.050232,599616619252039832,-98.00
2025-12-25 12:31:51.050232,599616619252039832,-96.00
2025-12-25 12:31:51.050232,599616619252039832,-101.00
2025-12-25 12:31:51.050232,599616619252039832,-153.00
2025-12-25 12:31:51.050232,599616619252039832,-120.00
2025-12-25 12:31:51.050232,599616619252039832,374.00
2025-12-25 12:31:51.050232,599616619252039832,1234.00
2025-12-25 12:31:51.050232,599616619252039832,1521.00
2025-12-25 12:31:51.050232,599616619252039832,654.00
2025-12-25 12:31:51.050232,599616619252039832,-445.00
2025-12-25 12:31:51.050232,599616619252039832,-534.00
2025-12-25 12:31:51.050232,599616619252039832,-91.00
2025-12-25 12:31:51.050232,599616619252039832,-84.00
2025-12-25 12:31:51.050232,599616619252039832,-235.00
2025-12-25 12:31:51.050232,599616619252039832,-167.00
2025-12-25 12:31:51.050232,599616619252039832,-122.00
2025-12-25 12:31:51.050232,599616619252039832,-162.00
2025-12-25 12:31:51.050232,599616619252039832,-141.00
2025-12-25 12:31:51.050232,599616619252039832,-101.00
2025-12-25 12:31:51.050232,599616619252039832,-103.00
2025-12-25 12:31:51.050232,599616619252039832,-96.00
2025-12-25 12:31:51.050232,599616619252039832,-75.00
2025-12-25 12:31:51.050232,599616619252039832,-63.00
2025-12-25 12:31:51.050232,599616619252039832,-51.00
2025-12-25 12:31:51.050232,599616619252039832,-35.00
2025-12-25 12:31:51.050232,599616619252039832,-16.00
2025-12-25 12:31:51.050232,599616619252039832,0.00
2025-12-25 12:31:51.050232,599616619252039832,18.00
2025-12-25 12:31:51.050232,599616619252039832,42.00
2025-12-25 12:31:51.050232,599616619252039832,68.00
2025-12-25 12:31:51.050232,599616619252039832,91.00
2025-12-25 12:31:51.050232,599616619252039832,115.00
2025-12-25 12:31:51.050232,599616619252039832,134.00
2025-12-25 12:31:51.050232,599616619252039832,148.00
2025-12-25 12:31:51.050232,599616619252039832,153.00
2025-12-25 12:31:51.050232,599616619252039832,143.00
2025-12-25 12:31:51.050232,599616619252039832,120.00
2025-12-25 12:31:51.050232,599616619252039832,75.00
2025-12-25 12:31:51.050232,599616619252039832,11.00
2025-12-25 12:31:51.050232,599616619252039832,-56.00
2025-12-25 12:31:51.050232,599616619252039832,-115.00
2025-12-25 12:31:51.050232,599616619252039832,-167.00
2025-12-25 12:31:51.050232,599616619252039832,-204.00
2025-12-25 12:31:51.050232,599616619252039832,-223.00
2025-12-25 12:31:51.547282,599616619812782649,-230.00
2025-12-25 12:31:51.547282,599616619812782649,-233.00
2025-12-25 12:31:51.547282,599616619812782649,-230.00
2025-12-25 12:31:51.547282,599616619812782649,-228.00
2025-12-25 12:31:51.547282,599616619812782649,-223.00
2025-12-25 12:31:51.547282,599616619812782649,-212.00
2025-12-25 12:31:51.547282,599616619812782649,-207.00
2025-12-25 12:31:51.547282,599616619812782649,-202.00
2025-12-25 12:31:51.547282,599616619812782649,-195.00
2025-12-25 12:31:51.547282,599616619812782649,-190.00
2025-12-25 12:31:51.547282,599616619812782649,-186.00
2025-12-25 12:31:51.547282,599616619812782649,-181.00
2025-12-25 12:31:51.547282,599616619812782649,-174.00
2025-12-25 12:31:51.547282,599616619812782649,-169.00
2025-12-25 12:31:51.547282,599616619812782649,-162.00
2025-12-25 12:31:51.547282,599616619812782649,-160.00
2025-12-25 12:31:51.547282,599616619812782649,-157.00
2025-12-25 12:31:51.547282,599616619812782649,-148.00
2025-12-25 12:31:51.547282,599616619812782649,-141.00
2025-12-25 12:31:51.547282,599616619812782649,-139.00
2025-12-25 12:31:51.547282,599616619812782649,-139.00
2025-12-25 12:31:51.547282,599616619812782649,-139.00
2025-12-25 12:31:51.547282,599616619812782649,-134.00
2025-12-25 12:31:51.547282,599616619812782649,-127.00
2025-12-25 12:31:51.547282,599616619812782649,-124.00
2025-12-25 12:31:51.547282,599616619812782649,-127.00
2025-12-25 12:31:51.547282,599616619812782649,-124.00
2025-12-25 12:31:51.547282,599616619812782649,-124.00
2025-12-25 12:31:51.547282,599616619812782649,-122.00
2025-12-25 12:31:51.547282,599616619812782649,-120.00
2025-12-25 12:31:51.547282,599616619812782649,-122.00
2025-12-25 12:31:51.547282,599616619812782649,-122.00
2025-12-25 12:31:51.547282,599616619812782649,-117.00
2025-12-25 12:31:51.547282,599616619812782649,-117.00
2025-12-25 12:31:51.547282,599616619812782649,-115.00
2025-12-25 12:31:51.547282,599616619812782649,-113.00
2025-12-25 12:31:51.547282,599616619812782649,-113.00
2025-12-25 12:31:51.547282,599616619812782649,-110.00
2025-12-25 12:31:51.547282,599616619812782649,-106.00
2025-12-25 12:31:51.547282,599616619812782649,-108.00
2025-12-25 12:31:51.547282,599616619812782649,-108.00
2025-12-25 12:31:51.547282,599616619812782649,-110.00
2025-12-25 12:31:51.547282,599616619812782649,-103.00
2025-12-25 12:31:51.547282,599616619812782649,-82.00
2025-12-25 12:31:51.547282,599616619812782649,-61.00
2025-12-25 12:31:51.547282,599616619812782649,-54.00
2025-12-25 12:31:51.547282,599616619812782649,-61.00
2025-12-25 12:31:51.547282,599616619812782649,-84.00
2025-12-25 12:31:51.547282,599616619812782649,-103.00
2025-12-25 12:31:51.547282,599616619812782649,-101.00
2025-12-25 12:31:51.547282,599616619812782649,-94.00
2025-12-25 12:31:51.547282,599616619812782649,-96.00
2025-12-25 12:31:51.547282,599616619812782649,-96.00
2025-12-25 12:31:51.547282,599616619812782649,-96.00
2025-12-25 12:31:51.547282,599616619812782649,-141.00
2025-12-25 12:31:51.547282,599616619812782649,-146.00
2025-12-25 12:31:51.547282,599616619812782649,256.00
2025-12-25 12:31:51.547282,599616619812782649,1100.00
2025-12-25 12:31:51.547282,599616619812782649,1559.00
2025-12-25 12:31:51.547282,599616619812782649,864.00
2025-12-25 12:31:51.547282,599616619812782649,-310.00
2025-12-25 12:31:51.547282,599616619812782649,-591.00
2025-12-25 12:31:51.547282,599616619812782649,-143.00
2025-12-25 12:31:51.547282,599616619812782649,-54.00
2025-12-25 12:31:51.547282,599616619812782649,-226.00
2025-12-25 12:31:51.547282,599616619812782649,-176.00
2025-12-25 12:31:51.547282,599616619812782649,-113.00
2025-12-25 12:31:51.547282,599616619812782649,-157.00
2025-12-25 12:31:51.547282,599616619812782649,-150.00
2025-12-25 12:31:51.547282,599616619812782649,-110.00
2025-12-25 12:31:51.547282,599616619812782649,-110.00
2025-12-25 12:31:51.547282,599616619812782649,-101.00
2025-12-25 12:31:51.547282,599616619812782649,-80.00
2025-12-25 12:31:52.043433,599616620373525468,-70.00
2025-12-25 12:31:52.043433,599616620373525468,-58.00
2025-12-25 12:31:52.043433,599616620373525468,-40.00
2025-12-25 12:31:52.043433,599616620373525468,-21.00
2025-12-25 12:31:52.043433,599616620373525468,-9.00
2025-12-25 12:31:52.043433,599616620373525468,9.00
2025-12-25 12:31:52.043433,599616620373525468,37.00
2025-12-25 12:31:52.043433,599616620373525468,65.00
2025-12-25 12:31:52.043433,599616620373525468,98.00
2025-12-25 12:31:52.043433,599616620373525468,134.00
2025-12-25 12:31:52.043433,599616620373525468,155.00
2025-12-25 12:31:52.043433,599616620373525468,162.00
2025-12-25 12:31:52.043433,599616620373525468,167.00
2025-12-25 12:31:52.043433,599616620373525468,162.00
2025-12-25 12:31:52.043433,599616620373525468,141.00
2025-12-25 12:31:52.043433,599616620373525468,101.00
2025-12-25 12:31:52.043433,599616620373525468,35.00
2025-12-25 12:31:52.043433,599616620373525468,-37.00
2025-12-25 12:31:52.043433,599616620373525468,-98.00
2025-12-25 12:31:52.043433,599616620373525468,-148.00
2025-12-25 12:31:52.043433,599616620373525468,-186.00
2025-12-25 12:31:52.043433,599616620373525468,-209.00
2025-12-25 12:31:52.043433,599616620373525468,-221.00
2025-12-25 12:31:52.043433,599616620373525468,-223.00
2025-12-25 12:31:52.043433,599616620373525468,-223.00
2025-12-25 12:31:52.043433,599616620373525468,-219.00
2025-12-25 12:31:52.043433,599616620373525468,-209.00
2025-12-25 12:31:52.043433,599616620373525468,-202.00
2025-12-25 12:31:52.043433,599616620373525468,-197.00
2025-12-25 12:31:52.043433,599616620373525468,-190.00
2025-12-25 12:31:52.043433,599616620373525468,-181.00
2025-12-25 12:31:52.043433,599616620373525468,-176.00
2025-12-25 12:31:52.043433,599616620373525468,-169.00
2025-12-25 12:31:52.043433,599616620373525468,-155.00
2025-12-25 12:31:52.043433,599616620373525468,-148.00
2025-12-25 12:31:52.043433,599616620373525468,-143.00
2025-12-25 12:31:52.043433,599616620373525468,-141.00
2025-12-25 12:31:52.043433,599616620373525468,-139.00
2025-12-25 12:31:52.043433,599616620373525468,-131.00
2025-12-25 12:31:52.043433,599616620373525468,-129.00
2025-12-25 12:31:52.043433,599616620373525468,-129.00
2025-12-25 12:31:52.043433,599616620373525468,-122.00
2025-12-25 12:31:52.043433,599616620373525468,-115.00
2025-12-25 12:31:52.043433,599616620373525468,-115.00
2025-12-25 12:31:52.043433,599616620373525468,-117.00
2025-12-25 12:31:52.043433,599616620373525468,-115.00
2025-12-25 12:31:52.043433,599616620373525468,-113.00
2025-12-25 12:31:52.043433,599616620373525468,-110.00
2025-12-25 12:31:52.043433,599616620373525468,-108.00
2025-12-25 12:31:52.043433,599616620373525468,-106.00
2025-12-25 12:31:52.043433,599616620373525468,-103.00
2025-12-25 12:31:52.043433,599616620373525468,-103.00
2025-12-25 12:31:52.043433,599616620373525468,-103.00
2025-12-25 12:31:52.043433,599616620373525468,-98.00
2025-12-25 12:31:52.043433,599616620373525468,-91.00
2025-12-25 12:31:52.043433,599616620373525468,-84.00
2025-12-25 12:31:52.043433,599616620373525468,-84.00
2025-12-25 12:31:52.043433,599616620373525468,-87.00
2025-12-25 12:31:52.043433,599616620373525468,-84.00
2025-12-25 12:31:52.043433,599616620373525468,-80.00
2025-12-25 12:31:52.043433,599616620373525468,-77.00
2025-12-25 12:31:52.043433,599616620373525468,-82.00
2025-12-25 12:31:52.043433,599616620373525468,-87.00
2025-12-25 12:31:52.043433,599616620373525468,-87.00
2025-12-25 12:31:52.043433,599616620373525468,-80.00
2025-12-25 12:31:52.043433,599616620373525468,-63.00
2025-12-25 12:31:52.043433,599616620373525468,-37.00
2025-12-25 12:31:52.043433,599616620373525468,-23.00
2025-12-25 12:31:52.043433,599616620373525468,-30.00
2025-12-25 12:31:52.043433,599616620373525468,-51.00
2025-12-25 12:31:52.043433,599616620373525468,-70.00
2025-12-25 12:31:52.043433,599616620373525468,-70.00
2025-12-25 12:31:52.043433,599616620373525468,-61.00
2025-12-25 12:31:52.684752,599616620934283545,-56.00
2025-12-25 12:31:52.684752,599616620934283545,-63.00
2025-12-25 12:31:52.684752,599616620934283545,-68.00
2025-12-25 12:31:52.684752,599616620934283545,-96.00
2025-12-25 12:31:52.684752,599616620934283545,-131.00
2025-12-25 12:31:52.684752,599616620934283545,146.00
2025-12-25 12:31:52.684752,599616620934283545,942.00
2025-12-25 12:31:52.684752,599616620934283545,1578.00
2025-12-25 12:31:52.684752,599616620934283545,1123.00
2025-12-25 12:31:52.684752,599616620934283545,-84.00
2025-12-25 12:31:52.684752,599616620934283545,-614.00
2025-12-25 12:31:52.684752,599616620934283545,-214.00
2025-12-25 12:31:52.684752,599616620934283545,14.00
2025-12-25 12:31:52.684752,599616620934283545,-146.00
2025-12-25 12:31:52.684752,599616620934283545,-157.00
2025-12-25 12:31:52.684752,599616620934283545,-77.00
2025-12-25 12:31:52.684752,599616620934283545,-98.00
2025-12-25 12:31:52.684752,599616620934283545,-106.00
2025-12-25 12:31:52.684752,599616620934283545,-70.00
2025-12-25 12:31:52.684752,599616620934283545,-65.00
2025-12-25 12:31:52.684752,599616620934283545,-58.00
2025-12-25 12:31:52.684752,599616620934283545,-40.00
2025-12-25 12:31:52.684752,599616620934283545,-30.00
2025-12-25 12:31:52.684752,599616620934283545,-18.00
2025-12-25 12:31:52.684752,599616620934283545,-2.00
2025-12-25 12:31:52.684752,599616620934283545,16.00
2025-12-25 12:31:52.684752,599616620934283545,40.00
2025-12-25 12:31:52.684752,599616620934283545,65.00
2025-12-25 12:31:52.684752,599616620934283545,89.00
2025-12-25 12:31:52.684752,599616620934283545,117.00
2025-12-25 12:31:52.684752,599616620934283545,143.00
2025-12-25 12:31:52.684752,599616620934283545,164.00
2025-12-25 12:31:52.684752,599616620934283545,186.00
2025-12-25 12:31:52.684752,599616620934283545,200.00
2025-12-25 12:31:52.684752,599616620934283545,204.00
2025-12-25 12:31:52.684752,599616620934283545,200.00
2025-12-25 12:31:52.684752,599616620934283545,176.00
2025-12-25 12:31:52.684752,599616620934283545,134.00
2025-12-25 12:31:52.684752,599616620934283545,73.00
2025-12-25 12:31:52.684752,599616620934283545,-2.00
2025-12-25 12:31:52.684752,599616620934283545,-73.00
2025-12-25 12:31:52.684752,599616620934283545,-124.00
2025-12-25 12:31:52.684752,599616620934283545,-164.00
2025-12-25 12:31:52.684752,599616620934283545,-195.00
2025-12-25 12:31:52.684752,599616620934283545,-209.00
2025-12-25 12:31:52.684752,599616620934283545,-216.00
2025-12-25 12:31:52.684752,599616620934283545,-221.00
2025-12-25 12:31:52.684752,599616620934283545,-221.00
2025-12-25 12:31:52.684752,599616620934283545,-212.00
2025-12-25 12:31:52.684752,599616620934283545,-202.00
2025-12-25 12:31:52.684752,599616620934283545,-202.00
2025-12-25 12:31:52.684752,599616620934283545,-204.00
2025-12-25 12:31:52.684752,599616620934283545,-193.00
2025-12-25 12:31:52.684752,599616620934283545,-176.00
2025-12-25 12:31:52.684752,599616620934283545,-171.00
2025-12-25 12:31:52.684752,599616620934283545,-179.00
2025-12-25 12:31:52.684752,599616620934283545,-169.00
2025-12-25 12:31:52.684752,599616620934283545,-157.00
2025-12-25 12:31:52.684752,599616620934283545,-155.00
2025-12-25 12:31:52.684752,599616620934283545,-150.00
2025-12-25 12:31:52.684752,599616620934283545,-141.00
2025-12-25 12:31:52.684752,599616620934283545,-141.00
2025-12-25 12:31:52.684752,599616620934283545,-141.00
2025-12-25 12:31:52.684752,599616620934283545,-136.00
2025-12-25 12:31:52.684752,599616620934283545,-129.00
2025-12-25 12:31:52.684752,599616620934283545,-131.00
2025-12-25 12:31:52.684752,599616620934283545,-134.00
2025-12-25 12:31:52.684752,599616620934283545,-134.00
2025-12-25 12:31:52.684752,599616620934283545,-131.00
2025-12-25 12:31:52.684752,599616620934283545,-131.00
2025-12-25 12:31:52.684752,599616620934283545,-131.00
2025-12-25 12:31:52.684752,599616620934283545,-129.00
2025-12-25 12:31:52.684752,599616620934283545,-127.00
2025-12-25 12:31:53.256612,599616621495041622,-127.00
2025-12-25 12:31:53.256612,599616621495041622,-124.00
2025-12-25 12:31:53.256612,599616621495041622,-122.00
2025-12-25 12:31:53.256612,599616621495041622,-124.00
2025-12-25 12:31:53.256612,599616621495041622,-122.00
2025-12-25 12:31:53.256612,599616621495041622,-117.00
2025-12-25 12:31:53.256612,599616621495041622,-117.00
2025-12-25 12:31:53.256612,599616621495041622,-120.00
2025-12-25 12:31:53.256612,599616621495041622,-122.00
2025-12-25 12:31:53.256612,599616621495041622,-122.00
2025-12-25 12:31:53.256612,599616621495041622,-122.00
2025-12-25 12:31:53.256612,599616621495041622,-106.00
2025-12-25 12:31:53.256612,599616621495041622,-80.00
2025-12-25 12:31:53.256612,599616621495041622,-65.00
2025-12-25 12:31:53.256612,599616621495041622,-58.00
2025-12-25 12:31:53.256612,599616621495041622,-63.00
2025-12-25 12:31:53.256612,599616621495041622,-82.00
2025-12-25 12:31:53.256612,599616621495041622,-98.00
2025-12-25 12:31:53.256612,599616621495041622,-91.00
2025-12-25 12:31:53.256612,599616621495041622,-84.00
2025-12-25 12:31:53.256612,599616621495041622,-87.00
2025-12-25 12:31:53.256612,599616621495041622,-87.00
2025-12-25 12:31:53.256612,599616621495041622,-94.00
2025-12-25 12:31:53.256612,599616621495041622,-150.00
2025-12-25 12:31:53.256612,599616621495041622,-91.00
2025-12-25 12:31:53.256612,599616621495041622,461.00
2025-12-25 12:31:53.256612,599616621495041622,1314.00
2025-12-25 12:31:53.256612,599616621495041622,1484.00
2025-12-25 12:31:53.256612,599616621495041622,504.00
2025-12-25 12:31:53.256612,599616621495041622,-532.00
2025-12-25 12:31:53.256612,599616621495041622,-490.00
2025-12-25 12:31:53.256612,599616621495041622,-54.00
2025-12-25 12:31:53.256612,599616621495041622,-96.00
2025-12-25 12:31:53.256612,599616621495041622,-219.00
2025-12-25 12:31:53.256612,599616621495041622,-131.00
2025-12-25 12:31:53.256612,599616621495041622,-103.00
2025-12-25 12:31:53.256612,599616621495041622,-148.00
2025-12-25 12:31:53.256612,599616621495041622,-127.00
2025-12-25 12:31:53.256612,599616621495041622,-96.00
2025-12-25 12:31:53.256612,599616621495041622,-98.00
2025-12-25 12:31:53.256612,599616621495041622,-84.00
2025-12-25 12:31:53.256612,599616621495041622,-65.00
2025-12-25 12:31:53.256612,599616621495041622,-56.00
2025-12-25 12:31:53.256612,599616621495041622,-44.00
2025-12-25 12:31:53.256612,599616621495041622,-18.00
2025-12-25 12:31:53.256612,599616621495041622,-4.00
2025-12-25 12:31:53.256612,599616621495041622,11.00
2025-12-25 12:31:53.256612,599616621495041622,37.00
2025-12-25 12:31:53.256612,599616621495041622,61.00
2025-12-25 12:31:53.256612,599616621495041622,87.00
2025-12-25 12:31:53.256612,599616621495041622,120.00
2025-12-25 12:31:53.256612,599616621495041622,148.00
2025-12-25 12:31:53.256612,599616621495041622,164.00
2025-12-25 12:31:53.256612,599616621495041622,171.00
2025-12-25 12:31:53.256612,599616621495041622,171.00
2025-12-25 12:31:53.256612,599616621495041622,157.00
2025-12-25 12:31:53.256612,599616621495041622,127.00
2025-12-25 12:31:53.256612,599616621495041622,68.00
2025-12-25 12:31:53.256612,599616621495041622,-9.00
2025-12-25 12:31:53.256612,599616621495041622,-82.00
2025-12-25 12:31:53.256612,599616621495041622,-141.00
2025-12-25 12:31:53.256612,599616621495041622,-188.00
2025-12-25 12:31:53.256612,599616621495041622,-223.00
2025-12-25 12:31:53.256612,599616621495041622,-245.00
2025-12-25 12:31:53.256612,599616621495041622,-254.00
2025-12-25 12:31:53.256612,599616621495041622,-252.00
2025-12-25 12:31:53.256612,599616621495041622,-249.00
2025-12-25 12:31:53.256612,599616621495041622,-247.00
2025-12-25 12:31:53.256612,599616621495041622,-242.00
2025-12-25 12:31:53.256612,599616621495041622,-237.00
2025-12-25 12:31:53.256612,599616621495041622,-233.00
2025-12-25 12:31:53.256612,599616621495041622,-223.00
2025-12-25 12:31:53.256612,599616621495041622,-221.00
2025-12-25 12:31:53.756267,599616622055799701,-219.00
2025-12-25 12:31:53.756267,599616622055799701,-212.00
2025-12-25 12:31:53.756267,599616622055799701,-202.00
2025-12-25 12:31:53.756267,599616622055799701,-195.00
2025-12-25 12:31:53.756267,599616622055799701,-188.00
2025-12-25 12:31:53.756267,599616622055799701,-183.00
2025-12-25 12:31:53.756267,599616622055799701,-174.00
