Timestamp,Device Timestamp (ns),ECG Value (uV)
2025-11-18 13:04:42.737657,599619068814934510,-118.00
2025-11-18 13:04:42.737657,599619068814934510,-121.00
2025-11-18 13:04:42.737657,599619068814934510,-116.00
2025-11-18 13:04:42.737657,599619068814934510,-113.00
2025-11-18 13:04:42.737657,599619068814934510,-116.00
2025-11-18 13:04:42.737657,599619068814934510,-106.00
2025-11-18 13:04:42.737657,599619068814934510,-94.00
2025-11-18 13:04:42.737657,599619068814934510,-94.00
2025-11-18 13:04:42.737657,599619068814934510,-89.00
2025-11-18 13:04:42.737657,599619068814934510,-82.00
2025-11-18 13:04:42.737657,599619068814934510,-80.00
2025-11-18 13:04:42.737657,599619068814934510,-70.00
2025-11-18 13:04:42.737657,599619068814934510,-70.00
2025-11-18 13:04:42.737657,599619068814934510,-82.00
2025-11-18 13:04:42.737657,599619068814934510,-82.00
2025-11-18 13:04:42.737657,599619068814934510,-70.00
2025-11-18 13:04:42.737657,599619068814934510,-65.00
2025-11-18 13:04:42.737657,599619068814934510,-67.00
2025-11-18 13:04:42.737657,599619068814934510,-75.00
2025-11-18 13:04:42.737657,599619068814934510,-70.00
2025-11-18 13:04:42.737657,599619068814934510,-60.00
2025-11-18 13:04:42.737657,599619068814934510,-58.00
2025-11-18 13:04:42.737657,599619068814934510,-70.00
2025-11-18 13:04:42.737657,599619068814934510,-80.00
2025-11-18 13:04:42.737657,599619068814934510,-80.00
2025-11-18 13:04:42.737657,599619068814934510,-70.00
2025-11-18 13:04:42.737657,599619068814934510,-65.00
2025-11-18 13:04:42.737657,599619068814934510,-72.00
2025-11-18 13:04:42.737657,599619068814934510,-75.00
2025-11-18 13:04:42.737657,599619068814934510,-65.00
2025-11-18 13:04:42.737657,599619068814934510,-58.00
2025-11-18 13:04:42.737657,599619068814934510,-53.00
2025-11-18 13:04:42.737657,599619068814934510,-58.00
2025-11-18 13:04:42.737657,599619068814934510,-75.00
2025-11-18 13:04:42.737657,599619068814934510,-72.00
2025-11-18 13:04:42.737657,599619068814934510,-63.00
2025-11-18 13:04:42.737657,599619068814934510,-67.00
2025-11-18 13:04:42.737657,599619068814934510,-75.00
2025-11-18 13:04:42.737657,599619068814934510,-67.00
2025-11-18 13:04:42.737657,599619068814934510,-67.00
2025-11-18 13:04:42.737657,599619068814934510,-75.00
2025-11-18 13:04:42.737657,599619068814934510,-58.00
2025-11-18 13:04:42.737657,599619068814934510,-43.00
2025-11-18 13:04:42.737657,599619068814934510,-60.00
2025-11-18 13:04:42.737657,599619068814934510,-70.00
2025-11-18 13:04:42.737657,599619068814934510,-53.00
2025-11-18 13:04:42.737657,599619068814934510,-50.00
2025-11-18 13:04:42.737657,599619068814934510,-65.00
2025-11-18 13:04:42.737657,599619068814934510,-72.00
2025-11-18 13:04:42.737657,599619068814934510,-70.00
2025-11-18 13:04:42.737657,599619068814934510,-58.00
2025-11-18 13:04:42.737657,599619068814934510,-43.00
2025-11-18 13:04:42.737657,599619068814934510,-43.00
2025-11-18 13:04:42.737657,599619068814934510,-43.00
2025-11-18 13:04:42.737657,599619068814934510,-38.00
2025-11-18 13:04:42.737657,599619068814934510,-48.00
2025-11-18 13:04:42.737657,599619068814934510,-53.00
2025-11-18 13:04:42.737657,599619068814934510,-43.00
2025-11-18 13:04:42.737657,599619068814934510,-50.00
2025-11-18 13:04:42.737657,599619068814934510,-55.00
2025-11-18 13:04:42.737657,599619068814934510,-33.00
2025-11-18 13:04:42.737657,599619068814934510,-41.00
2025-11-18 13:04:42.737657,599619068814934510,-72.00
2025-11-18 13:04:42.737657,599619068814934510,-70.00
2025-11-18 13:04:42.737657,599619068814934510,-63.00
2025-11-18 13:04:42.737657,599619068814934510,-75.00
2025-11-18 13:04:42.737657,599619068814934510,-75.00
2025-11-18 13:04:42.737657,599619068814934510,-75.00
2025-11-18 13:04:42.737657,599619068814934510,-87.00
2025-11-18 13:04:42.737657,599619068814934510,-106.00
2025-11-18 13:04:42.737657,599619068814934510,-70.00
2025-11-18 13:04:42.737657,599619068814934510,184.00
2025-11-18 13:04:42.737657,599619068814934510,657.00
2025-11-18 13:04:43.248523,599619069375631551,979.00
2025-11-18 13:04:43.248523,599619069375631551,727.00
2025-11-18 13:04:43.248523,599619069375631551,4.00
2025-11-18 13:04:43.248523,599619069375631551,-407.00
2025-11-18 13:04:43.248523,599619069375631551,-223.00
2025-11-18 13:04:43.248523,599619069375631551,-65.00
2025-11-18 13:04:43.248523,599619069375631551,-138.00
2025-11-18 13:04:43.248523,599619069375631551,-138.00
2025-11-18 13:04:43.248523,599619069375631551,-80.00
2025-11-18 13:04:43.248523,599619069375631551,-82.00
2025-11-18 13:04:43.248523,599619069375631551,-92.00
2025-11-18 13:04:43.248523,599619069375631551,-77.00
2025-11-18 13:04:43.248523,599619069375631551,-67.00
2025-11-18 13:04:43.248523,599619069375631551,-63.00
2025-11-18 13:04:43.248523,599619069375631551,-53.00
2025-11-18 13:04:43.248523,599619069375631551,-46.00
2025-11-18 13:04:43.248523,599619069375631551,-41.00
2025-11-18 13:04:43.248523,599619069375631551,-31.00
2025-11-18 13:04:43.248523,599619069375631551,-21.00
2025-11-18 13:04:43.248523,599619069375631551,-4.00
2025-11-18 13:04:43.248523,599619069375631551,2.00
2025-11-18 13:04:43.248523,599619069375631551,-19.00
2025-11-18 13:04:43.248523,599619069375631551,-21.00
2025-11-18 13:04:43.248523,599619069375631551,9.00
2025-11-18 13:04:43.248523,599619069375631551,24.00
2025-11-18 13:04:43.248523,599619069375631551,24.00
2025-11-18 13:04:43.248523,599619069375631551,41.00
2025-11-18 13:04:43.248523,599619069375631551,60.00
2025-11-18 13:04:43.248523,599619069375631551,70.00
2025-11-18 13:04:43.248523,599619069375631551,87.00
2025-11-18 13:04:43.248523,599619069375631551,111.00
2025-11-18 13:04:43.248523,599619069375631551,133.00
2025-11-18 13:04:43.248523,599619069375631551,152.00
2025-11-18 13:04:43.248523,599619069375631551,164.00
2025-11-18 13:04:43.248523,599619069375631551,179.00
2025-11-18 13:04:43.248523,599619069375631551,189.00
2025-11-18 13:04:43.248523,599619069375631551,189.00
2025-11-18 13:04:43.248523,599619069375631551,174.00
2025-11-18 13:04:43.248523,599619069375631551,140.00
2025-11-18 13:04:43.248523,599619069375631551,94.00
2025-11-18 13:04:43.248523,599619069375631551,41.00
2025-11-18 13:04:43.248523,599619069375631551,-21.00
2025-11-18 13:04:43.248523,599619069375631551,-75.00
2025-11-18 13:04:43.248523,599619069375631551,-109.00
2025-11-18 13:04:43.248523,599619069375631551,-133.00
2025-11-18 13:04:43.248523,599619069375631551,-150.00
2025-11-18 13:04:43.248523,599619069375631551,-157.00
2025-11-18 13:04:43.248523,599619069375631551,-152.00
2025-11-18 13:04:43.248523,599619069375631551,-152.00
2025-11-18 13:04:43.248523,599619069375631551,-157.00
2025-11-18 13:04:43.248523,599619069375631551,-157.00
2025-11-18 13:04:43.248523,599619069375631551,-150.00
2025-11-18 13:04:43.248523,599619069375631551,-145.00
2025-11-18 13:04:43.248523,599619069375631551,-133.00
2025-11-18 13:04:43.248523,599619069375631551,-128.00
2025-11-18 13:04:43.248523,599619069375631551,-126.00
2025-11-18 13:04:43.248523,599619069375631551,-121.00
2025-11-18 13:04:43.248523,599619069375631551,-121.00
2025-11-18 13:04:43.248523,599619069375631551,-116.00
2025-11-18 13:04:43.248523,599619069375631551,-109.00
2025-11-18 13:04:43.248523,599619069375631551,-109.00
2025-11-18 13:04:43.248523,599619069375631551,-106.00
2025-11-18 13:04:43.248523,599619069375631551,-99.00
2025-11-18 13:04:43.248523,599619069375631551,-99.00
2025-11-18 13:04:43.248523,599619069375631551,-97.00
2025-11-18 13:04:43.248523,599619069375631551,-92.00
2025-11-18 13:04:43.248523,599619069375631551,-97.00
2025-11-18 13:04:43.248523,599619069375631551,-94.00
2025-11-18 13:04:43.248523,599619069375631551,-89.00
2025-11-18 13:04:43.248523,599619069375631551,-92.00
2025-11-18 13:04:43.248523,599619069375631551,-89.00
2025-11-18 13:04:43.248523,599619069375631551,-84.00
2025-11-18 13:04:43.248523,599619069375631551,-82.00
2025-11-18 13:04:43.788531,599619069936359110,-84.00
2025-11-18 13:04:43.788531,599619069936359110,-87.00
2025-11-18 13:04:43.788531,599619069936359110,-82.00
2025-11-18 13:04:43.788531,599619069936359110,-82.00
2025-11-18 13:04:43.788531,599619069936359110,-84.00
2025-11-18 13:04:43.788531,599619069936359110,-77.00
2025-11-18 13:04:43.788531,599619069936359110,-75.00
2025-11-18 13:04:43.788531,599619069936359110,-80.00
2025-11-18 13:04:43.788531,599619069936359110,-80.00
2025-11-18 13:04:43.788531,599619069936359110,-77.00
2025-11-18 13:04:43.788531,599619069936359110,-72.00
2025-11-18 13:04:43.788531,599619069936359110,-72.00
2025-11-18 13:04:43.788531,599619069936359110,-75.00
2025-11-18 13:04:43.788531,599619069936359110,-72.00
2025-11-18 13:04:43.788531,599619069936359110,-67.00
2025-11-18 13:04:43.788531,599619069936359110,-67.00
2025-11-18 13:04:43.788531,599619069936359110,-70.00
2025-11-18 13:04:43.788531,599619069936359110,-67.00
2025-11-18 13:04:43.788531,599619069936359110,-65.00
2025-11-18 13:04:43.788531,599619069936359110,-72.00
2025-11-18 13:04:43.788531,599619069936359110,-75.00
2025-11-18 13:04:43.788531,599619069936359110,-55.00
2025-11-18 13:04:43.788531,599619069936359110,-41.00
2025-11-18 13:04:43.788531,599619069936359110,-53.00
2025-11-18 13:04:43.788531,599619069936359110,-58.00
2025-11-18 13:04:43.788531,599619069936359110,-43.00
2025-11-18 13:04:43.788531,599619069936359110,-43.00
2025-11-18 13:04:43.788531,599619069936359110,-55.00
2025-11-18 13:04:43.788531,599619069936359110,-63.00
2025-11-18 13:04:43.788531,599619069936359110,-63.00
2025-11-18 13:04:43.788531,599619069936359110,-65.00
2025-11-18 13:04:43.788531,599619069936359110,-67.00
2025-11-18 13:04:43.788531,599619069936359110,-63.00
2025-11-18 13:04:43.788531,599619069936359110,-67.00
2025-11-18 13:04:43.788531,599619069936359110,-70.00
2025-11-18 13:04:43.788531,599619069936359110,-63.00
2025-11-18 13:04:43.788531,599619069936359110,-65.00
2025-11-18 13:04:43.788531,599619069936359110,-97.00
2025-11-18 13:04:43.788531,599619069936359110,-150.00
2025-11-18 13:04:43.788531,599619069936359110,-104.00
2025-11-18 13:04:43.788531,599619069936359110,240.00
2025-11-18 13:04:43.788531,599619069936359110,829.00
2025-11-18 13:04:43.788531,599619069936359110,1210.00
2025-11-18 13:04:43.788531,599619069936359110,899.00
2025-11-18 13:04:43.788531,599619069936359110,31.00
2025-11-18 13:04:43.788531,599619069936359110,-463.00
2025-11-18 13:04:43.788531,599619069936359110,-244.00
2025-11-18 13:04:43.788531,599619069936359110,-67.00
2025-11-18 13:04:43.788531,599619069936359110,-167.00
2025-11-18 13:04:43.788531,599619069936359110,-164.00
2025-11-18 13:04:43.788531,599619069936359110,-99.00
2025-11-18 13:04:43.788531,599619069936359110,-116.00
2025-11-18 13:04:43.788531,599619069936359110,-123.00
2025-11-18 13:04:43.788531,599619069936359110,-94.00
2025-11-18 13:04:43.788531,599619069936359110,-82.00
2025-11-18 13:04:43.788531,599619069936359110,-77.00
2025-11-18 13:04:43.788531,599619069936359110,-67.00
2025-11-18 13:04:43.788531,599619069936359110,-63.00
2025-11-18 13:04:43.788531,599619069936359110,-53.00
2025-11-18 13:04:43.788531,599619069936359110,-43.00
2025-11-18 13:04:43.788531,599619069936359110,-41.00
2025-11-18 13:04:43.788531,599619069936359110,-33.00
2025-11-18 13:04:43.788531,599619069936359110,-24.00
2025-11-18 13:04:43.788531,599619069936359110,-9.00
2025-11-18 13:04:43.788531,599619069936359110,9.00
2025-11-18 13:04:43.788531,599619069936359110,21.00
2025-11-18 13:04:43.788531,599619069936359110,29.00
2025-11-18 13:04:43.788531,599619069936359110,36.00
2025-11-18 13:04:43.788531,599619069936359110,50.00
2025-11-18 13:04:43.788531,599619069936359110,67.00
2025-11-18 13:04:43.788531,599619069936359110,89.00
2025-11-18 13:04:43.788531,599619069936359110,111.00
2025-11-18 13:04:43.788531,599619069936359110,135.00
2025-11-18 13:04:44.388494,599619070497056153,157.00
2025-11-18 13:04:44.388494,599619070497056153,177.00
2025-11-18 13:04:44.388494,599619070497056153,198.00
2025-11-18 13:04:44.388494,599619070497056153,218.00
2025-11-18 13:04:44.388494,599619070497056153,227.00
2025-11-18 13:04:44.388494,599619070497056153,223.00
2025-11-18 13:04:44.388494,599619070497056153,198.00
2025-11-18 13:04:44.388494,599619070497056153,162.00
2025-11-18 13:04:44.388494,599619070497056153,101.00
2025-11-18 13:04:44.388494,599619070497056153,33.00
2025-11-18 13:04:44.388494,599619070497056153,-24.00
2025-11-18 13:04:44.388494,599619070497056153,-77.00
2025-11-18 13:04:44.388494,599619070497056153,-116.00
2025-11-18 13:04:44.388494,599619070497056153,-130.00
2025-11-18 13:04:44.388494,599619070497056153,-143.00
2025-11-18 13:04:44.388494,599619070497056153,-152.00
2025-11-18 13:04:44.388494,599619070497056153,-155.00
2025-11-18 13:04:44.388494,599619070497056153,-152.00
2025-11-18 13:04:44.388494,599619070497056153,-145.00
2025-11-18 13:04:44.388494,599619070497056153,-138.00
2025-11-18 13:04:44.388494,599619070497056153,-135.00
2025-11-18 13:04:44.388494,599619070497056153,-133.00
2025-11-18 13:04:44.388494,599619070497056153,-128.00
2025-11-18 13:04:44.388494,599619070497056153,-121.00
2025-11-18 13:04:44.388494,599619070497056153,-116.00
2025-11-18 13:04:44.388494,599619070497056153,-113.00
2025-11-18 13:04:44.388494,599619070497056153,-106.00
2025-11-18 13:04:44.388494,599619070497056153,-101.00
2025-11-18 13:04:44.388494,599619070497056153,-101.00
2025-11-18 13:04:44.388494,599619070497056153,-101.00
2025-11-18 13:04:44.388494,599619070497056153,-97.00
2025-11-18 13:04:44.388494,599619070497056153,-92.00
2025-11-18 13:04:44.388494,599619070497056153,-89.00
2025-11-18 13:04:44.388494,599619070497056153,-89.00
2025-11-18 13:04:44.388494,599619070497056153,-89.00
2025-11-18 13:04:44.388494,599619070497056153,-89.00
2025-11-18 13:04:44.388494,599619070497056153,-89.00
2025-11-18 13:04:44.388494,599619070497056153,-89.00
2025-11-18 13:04:44.388494,599619070497056153,-84.00
2025-11-18 13:04:44.388494,599619070497056153,-82.00
2025-11-18 13:04:44.388494,599619070497056153,-84.00
2025-11-18 13:04:44.388494,599619070497056153,-87.00
2025-11-18 13:04:44.388494,599619070497056153,-80.00
2025-11-18 13:04:44.388494,599619070497056153,-75.00
2025-11-18 13:04:44.388494,599619070497056153,-77.00
2025-11-18 13:04:44.388494,599619070497056153,-75.00
2025-11-18 13:04:44.388494,599619070497056153,-70.00
2025-11-18 13:04:44.388494,599619070497056153,-67.00
2025-11-18 13:04:44.388494,599619070497056153,-67.00
2025-11-18 13:04:44.388494,599619070497056153,-70.00
2025-11-18 13:04:44.388494,599619070497056153,-70.00
2025-11-18 13:04:44.388494,599619070497056153,-70.00
2025-11-18 13:04:44.388494,599619070497056153,-67.00
2025-11-18 13:04:44.388494,599619070497056153,-63.00
2025-11-18 13:04:44.388494,599619070497056153,-60.00
2025-11-18 13:04:44.388494,599619070497056153,-65.00
2025-11-18 13:04:44.388494,599619070497056153,-58.00
2025-11-18 13:04:44.388494,599619070497056153,-48.00
2025-11-18 13:04:44.388494,599619070497056153,-53.00
2025-11-18 13:04:44.388494,599619070497056153,-55.00
2025-11-18 13:04:44.388494,599619070497056153,-50.00
2025-11-18 13:04:44.388494,599619070497056153,-48.00
2025-11-18 13:04:44.388494,599619070497056153,-55.00
2025-11-18 13:04:44.388494,599619070497056153,-55.00
2025-11-18 13:04:44.388494,599619070497056153,-53.00
2025-11-18 13:04:44.388494,599619070497056153,-50.00
2025-11-18 13:04:44.388494,599619070497056153,-43.00
2025-11-18 13:04:44.388494,599619070497056153,-43.00
2025-11-18 13:04:44.388494,599619070497056153,-53.00
2025-11-18 13:04:44.388494,599619070497056153,-50.00
2025-11-18 13:04:44.388494,599619070497056153,-33.00
2025-11-18 13:04:44.388494,599619070497056153,-21.00
2025-11-18 13:04:44.388494,599619070497056153,-29.00
2025-11-18 13:04:44.959813,599619071057753194,-38.00
2025-11-18 13:04:44.959813,599619071057753194,-31.00
2025-11-18 13:04:44.959813,599619071057753194,-26.00
2025-11-18 13:04:44.959813,599619071057753194,-29.00
2025-11-18 13:04:44.959813,599619071057753194,-36.00
2025-11-18 13:04:44.959813,599619071057753194,-41.00
2025-11-18 13:04:44.959813,599619071057753194,-48.00
2025-11-18 13:04:44.959813,599619071057753194,-48.00
2025-11-18 13:04:44.959813,599619071057753194,-46.00
2025-11-18 13:04:44.959813,599619071057753194,-43.00
2025-11-18 13:04:44.959813,599619071057753194,-43.00
2025-11-18 13:04:44.959813,599619071057753194,-38.00
2025-11-18 13:04:44.959813,599619071057753194,-46.00
2025-11-18 13:04:44.959813,599619071057753194,-92.00
2025-11-18 13:04:44.959813,599619071057753194,-140.00
2025-11-18 13:04:44.959813,599619071057753194,-33.00
2025-11-18 13:04:44.959813,599619071057753194,383.00
2025-11-18 13:04:44.959813,599619071057753194,955.00
2025-11-18 13:04:44.959813,599619071057753194,1205.00
2025-11-18 13:04:44.959813,599619071057753194,732.00
2025-11-18 13:04:44.959813,599619071057753194,-118.00
2025-11-18 13:04:44.959813,599619071057753194,-426.00
2025-11-18 13:04:44.959813,599619071057753194,-155.00
2025-11-18 13:04:44.959813,599619071057753194,-65.00
2025-11-18 13:04:44.959813,599619071057753194,-169.00
2025-11-18 13:04:44.959813,599619071057753194,-133.00
2025-11-18 13:04:44.959813,599619071057753194,-89.00
2025-11-18 13:04:44.959813,599619071057753194,-113.00
2025-11-18 13:04:44.959813,599619071057753194,-101.00
2025-11-18 13:04:44.959813,599619071057753194,-80.00
2025-11-18 13:04:44.959813,599619071057753194,-87.00
2025-11-18 13:04:44.959813,599619071057753194,-77.00
2025-11-18 13:04:44.959813,599619071057753194,-55.00
2025-11-18 13:04:44.959813,599619071057753194,-55.00
2025-11-18 13:04:44.959813,599619071057753194,-58.00
2025-11-18 13:04:44.959813,599619071057753194,-43.00
2025-11-18 13:04:44.959813,599619071057753194,-31.00
2025-11-18 13:04:44.959813,599619071057753194,-29.00
2025-11-18 13:04:44.959813,599619071057753194,-21.00
2025-11-18 13:04:44.959813,599619071057753194,-9.00
2025-11-18 13:04:44.959813,599619071057753194,0.00
2025-11-18 13:04:44.959813,599619071057753194,9.00
2025-11-18 13:04:44.959813,599619071057753194,21.00
2025-11-18 13:04:44.959813,599619071057753194,33.00
2025-11-18 13:04:44.959813,599619071057753194,46.00
2025-11-18 13:04:44.959813,599619071057753194,65.00
2025-11-18 13:04:44.959813,599619071057753194,87.00
2025-11-18 13:04:44.959813,599619071057753194,109.00
2025-11-18 13:04:44.959813,599619071057753194,133.00
2025-11-18 13:04:44.959813,599619071057753194,160.00
2025-11-18 13:04:44.959813,599619071057753194,179.00
2025-11-18 13:04:44.959813,599619071057753194,196.00
2025-11-18 13:04:44.959813,599619071057753194,213.00
2025-11-18 13:04:44.959813,599619071057753194,223.00
2025-11-18 13:04:44.959813,599619071057753194,215.00
2025-11-18 13:04:44.959813,599619071057753194,196.00
2025-11-18 13:04:44.959813,599619071057753194,157.00
2025-11-18 13:04:44.959813,599619071057753194,94.00
2025-11-18 13:04:44.959813,599619071057753194,26.00
2025-11-18 13:04:44.959813,599619071057753194,-36.00
2025-11-18 13:04:44.959813,599619071057753194,-87.00
2025-11-18 13:04:44.959813,599619071057753194,-118.00
2025-11-18 13:04:44.959813,599619071057753194,-135.00
2025-11-18 13:04:44.959813,599619071057753194,-152.00
2025-11-18 13:04:44.959813,599619071057753194,-162.00
2025-11-18 13:04:44.959813,599619071057753194,-162.00
2025-11-18 13:04:44.959813,599619071057753194,-162.00
2025-11-18 13:04:44.959813,599619071057753194,-155.00
2025-11-18 13:04:44.959813,599619071057753194,-145.00
2025-11-18 13:04:44.959813,599619071057753194,-145.00
2025-11-18 13:04:44.959813,599619071057753194,-147.00
2025-11-18 13:04:44.959813,599619071057753194,-138.00
2025-11-18 13:04:44.959813,599619071057753194,-133.00
2025-11-18 13:04:45.498261,599619071618450235,-135.00
2025-11-18 13:04:45.498261,599619071618450235,-128.00
2025-11-18 13:04:45.498261,599619071618450235,-121.00
2025-11-18 13:04:45.498261,599619071618450235,-123.00
2025-11-18 13:04:45.498261,599619071618450235,-123.00
2025-11-18 13:04:45.498261,599619071618450235,-121.00
2025-11-18 13:04:45.498261,599619071618450235,-116.00
2025-11-18 13:04:45.498261,599619071618450235,-111.00
2025-11-18 13:04:45.498261,599619071618450235,-111.00
2025-11-18 13:04:45.498261,599619071618450235,-118.00
2025-11-18 13:04:45.498261,599619071618450235,-113.00
2025-11-18 13:04:45.498261,599619071618450235,-106.00
2025-11-18 13:04:45.498261,599619071618450235,-109.00
2025-11-18 13:04:45.498261,599619071618450235,-109.00
2025-11-18 13:04:45.498261,599619071618450235,-99.00
2025-11-18 13:04:45.498261,599619071618450235,-99.00
2025-11-18 13:04:45.498261,599619071618450235,-101.00
2025-11-18 13:04:45.498261,599619071618450235,-97.00
2025-11-18 13:04:45.498261,599619071618450235,-92.00
2025-11-18 13:04:45.498261,599619071618450235,-97.00
2025-11-18 13:04:45.498261,599619071618450235,-94.00
2025-11-18 13:04:45.498261,599619071618450235,-89.00
2025-11-18 13:04:45.498261,599619071618450235,-92.00
2025-11-18 13:04:45.498261,599619071618450235,-92.00
2025-11-18 13:04:45.498261,599619071618450235,-87.00
2025-11-18 13:04:45.498261,599619071618450235,-75.00
2025-11-18 13:04:45.498261,599619071618450235,-67.00
2025-11-18 13:04:45.498261,599619071618450235,-77.00
2025-11-18 13:04:45.498261,599619071618450235,-80.00
2025-11-18 13:04:45.498261,599619071618450235,-70.00
2025-11-18 13:04:45.498261,599619071618450235,-70.00
2025-11-18 13:04:45.498261,599619071618450235,-77.00
2025-11-18 13:04:45.498261,599619071618450235,-65.00
2025-11-18 13:04:45.498261,599619071618450235,-58.00
2025-11-18 13:04:45.498261,599619071618450235,-65.00
2025-11-18 13:04:45.498261,599619071618450235,-72.00
2025-11-18 13:04:45.498261,599619071618450235,-70.00
2025-11-18 13:04:45.498261,599619071618450235,-63.00
2025-11-18 13:04:45.498261,599619071618450235,-58.00
2025-11-18 13:04:45.498261,599619071618450235,-63.00
2025-11-18 13:04:45.498261,599619071618450235,-65.00
2025-11-18 13:04:45.498261,599619071618450235,-60.00
2025-11-18 13:04:45.498261,599619071618450235,-60.00
2025-11-18 13:04:45.498261,599619071618450235,-60.00
2025-11-18 13:04:45.498261,599619071618450235,-58.00
2025-11-18 13:04:45.498261,599619071618450235,-55.00
2025-11-18 13:04:45.498261,599619071618450235,-60.00
2025-11-18 13:04:45.498261,599619071618450235,-65.00
2025-11-18 13:04:45.498261,599619071618450235,-60.00
2025-11-18 13:04:45.498261,599619071618450235,-50.00
2025-11-18 13:04:45.498261,599619071618450235,-41.00
2025-11-18 13:04:45.498261,599619071618450235,-38.00
2025-11-18 13:04:45.498261,599619071618450235,-43.00
2025-11-18 13:04:45.498261,599619071618450235,-38.00
2025-11-18 13:04:45.498261,599619071618450235,-33.00
2025-11-18 13:04:45.498261,599619071618450235,-43.00
2025-11-18 13:04:45.498261,599619071618450235,-50.00
2025-11-18 13:04:45.498261,599619071618450235,-50.00
2025-11-18 13:04:45.498261,599619071618450235,-50.00
2025-11-18 13:04:45.498261,599619071618450235,-55.00
2025-11-18 13:04:45.498261,599619071618450235,-53.00
2025-11-18 13:04:45.498261,599619071618450235,-53.00
2025-11-18 13:04:45.498261,599619071618450235,-55.00
2025-11-18 13:04:45.498261,599619071618450235,-48.00
2025-11-18 13:04:45.498261,599619071618450235,-50.00
2025-11-18 13:04:45.498261,599619071618450235,-84.00
2025-11-18 13:04:45.498261,599619071618450235,-140.00
2025-11-18 13:04:45.498261,599619071618450235,-109.00
2025-11-18 13:04:45.498261,599619071618450235,213.00
2025-11-18 13:04:45.498261,599619071618450235,812.00
2025-11-18 13:04:45.498261,599619071618450235,1261.00
2025-11-18 13:04:45.498261,599619071618450235,1023.00
2025-11-18 13:04:45.498261,599619071618450235,138.00
2025-11-18 13:04:46.131162,599619072179177794,-443.00
2025-11-18 13:04:46.131162,599619072179177794,-249.00
2025-11-18 13:04:46.131162,599619072179177794,-48.00
2025-11-18 13:04:46.131162,599619072179177794,-155.00
2025-11-18 13:04:46.131162,599619072179177794,-162.00
2025-11-18 13:04:46.131162,599619072179177794,-87.00
2025-11-18 13:04:46.131162,599619072179177794,-104.00
2025-11-18 13:04:46.131162,599619072179177794,-113.00
2025-11-18 13:04:46.131162,599619072179177794,-80.00
2025-11-18 13:04:46.131162,599619072179177794,-72.00
2025-11-18 13:04:46.131162,599619072179177794,-77.00
2025-11-18 13:04:46.131162,599619072179177794,-63.00
2025-11-18 13:04:46.131162,599619072179177794,-50.00
2025-11-18 13:04:46.131162,599619072179177794,-48.00
2025-11-18 13:04:46.131162,599619072179177794,-38.00
2025-11-18 13:04:46.131162,599619072179177794,-26.00
2025-11-18 13:04:46.131162,599619072179177794,-24.00
2025-11-18 13:04:46.131162,599619072179177794,-16.00
2025-11-18 13:04:46.131162,599619072179177794,0.00
2025-11-18 13:04:46.131162,599619072179177794,7.00
2025-11-18 13:04:46.131162,599619072179177794,9.00
2025-11-18 13:04:46.131162,599619072179177794,21.00
2025-11-18 13:04:46.131162,599619072179177794,41.00
2025-11-18 13:04:46.131162,599619072179177794,55.00
2025-11-18 13:04:46.131162,599619072179177794,70.00
2025-11-18 13:04:46.131162,599619072179177794,87.00
2025-11-18 13:04:46.131162,599619072179177794,109.00
2025-11-18 13:04:46.131162,599619072179177794,130.00
2025-11-18 13:04:46.131162,599619072179177794,155.00
2025-11-18 13:04:46.131162,599619072179177794,179.00
2025-11-18 13:04:46.131162,599619072179177794,201.00
2025-11-18 13:04:46.131162,599619072179177794,218.00
2025-11-18 13:04:46.131162,599619072179177794,227.00
2025-11-18 13:04:46.131162,599619072179177794,230.00
2025-11-18 13:04:46.131162,599619072179177794,218.00
2025-11-18 13:04:46.131162,599619072179177794,184.00
2025-11-18 13:04:46.131162,599619072179177794,130.00
2025-11-18 13:04:46.131162,599619072179177794,65.00
2025-11-18 13:04:46.131162,599619072179177794,-2.00
2025-11-18 13:04:46.131162,599619072179177794,-58.00
2025-11-18 13:04:46.131162,599619072179177794,-101.00
2025-11-18 13:04:46.131162,599619072179177794,-133.00
2025-11-18 13:04:46.131162,599619072179177794,-147.00
2025-11-18 13:04:46.131162,599619072179177794,-152.00
2025-11-18 13:04:46.131162,599619072179177794,-157.00
2025-11-18 13:04:46.131162,599619072179177794,-155.00
2025-11-18 13:04:46.131162,599619072179177794,-147.00
2025-11-18 13:04:46.131162,599619072179177794,-145.00
2025-11-18 13:04:46.131162,599619072179177794,-140.00
2025-11-18 13:04:46.131162,599619072179177794,-135.00
2025-11-18 13:04:46.131162,599619072179177794,-128.00
2025-11-18 13:04:46.131162,599619072179177794,-123.00
2025-11-18 13:04:46.131162,599619072179177794,-121.00
2025-11-18 13:04:46.131162,599619072179177794,-116.00
2025-11-18 13:04:46.131162,599619072179177794,-111.00
2025-11-18 13:04:46.131162,599619072179177794,-104.00
2025-11-18 13:04:46.131162,599619072179177794,-104.00
2025-11-18 13:04:46.131162,599619072179177794,-101.00
2025-11-18 13:04:46.131162,599619072179177794,-99.00
2025-11-18 13:04:46.131162,599619072179177794,-94.00
2025-11-18 13:04:46.131162,599619072179177794,-92.00
2025-11-18 13:04:46.131162,599619072179177794,-87.00
2025-11-18 13:04:46.131162,599619072179177794,-84.00
2025-11-18 13:04:46.131162,599619072179177794,-87.00
2025-11-18 13:04:46.131162,599619072179177794,-84.00
2025-11-18 13:04:46.131162,599619072179177794,-82.00
2025-11-18 13:04:46.131162,599619072179177794,-80.00
2025-11-18 13:04:46.131162,599619072179177794,-77.00
2025-11-18 13:04:46.131162,599619072179177794,-77.00
2025-11-18 13:04:46.131162,599619072179177794,-75.00
2025-11-18 13:04:46.131162,599619072179177794,-75.00
2025-11-18 13:04:46.131162,599619072179177794,-72.00
2025-11-18 13:04:46.131162,599619072179177794,-70.00
2025-11-18 13:04:46.610025,599619072739874835,-70.00
2025-11-18 13:04:46.610025,599619072739874835,-67.00
2025-11-18 13:04:46.610025,599619072739874835,-65.00
2025-11-18 13:04:46.610025,599619072739874835,-63.00
2025-11-18 13:04:46.610025,599619072739874835,-63.00
2025-11-18 13:04:46.610025,599619072739874835,-63.00
2025-11-18 13:04:46.610025,599619072739874835,-60.00
2025-11-18 13:04:46.610025,599619072739874835,-58.00
2025-11-18 13:04:46.610025,599619072739874835,-55.00
2025-11-18 13:04:46.610025,599619072739874835,-55.00
2025-11-18 13:04:46.610025,599619072739874835,-53.00
2025-11-18 13:04:46.610025,599619072739874835,-53.00
2025-11-18 13:04:46.610025,599619072739874835,-50.00
2025-11-18 13:04:46.610025,599619072739874835,-48.00
2025-11-18 13:04:46.610025,599619072739874835,-48.00
2025-11-18 13:04:46.610025,599619072739874835,-50.00
2025-11-18 13:04:46.610025,599619072739874835,-48.00
2025-11-18 13:04:46.610025,599619072739874835,-43.00
2025-11-18 13:04:46.610025,599619072739874835,-43.00
2025-11-18 13:04:46.610025,599619072739874835,-43.00
2025-11-18 13:04:46.610025,599619072739874835,-41.00
2025-11-18 13:04:46.610025,599619072739874835,-41.00
2025-11-18 13:04:46.610025,599619072739874835,-41.00
2025-11-18 13:04:46.610025,599619072739874835,-41.00
2025-11-18 13:04:46.610025,599619072739874835,-41.00
2025-11-18 13:04:46.610025,599619072739874835,-33.00
2025-11-18 13:04:46.610025,599619072739874835,-24.00
2025-11-18 13:04:46.610025,599619072739874835,-21.00
2025-11-18 13:04:46.610025,599619072739874835,-19.00
2025-11-18 13:04:46.610025,599619072739874835,-16.00
2025-11-18 13:04:46.610025,599619072739874835,-14.00
2025-11-18 13:04:46.610025,599619072739874835,-19.00
2025-11-18 13:04:46.610025,599619072739874835,-24.00
2025-11-18 13:04:46.610025,599619072739874835,-29.00
2025-11-18 13:04:46.610025,599619072739874835,-36.00
2025-11-18 13:04:46.610025,599619072739874835,-41.00
2025-11-18 13:04:46.610025,599619072739874835,-41.00
2025-11-18 13:04:46.610025,599619072739874835,-38.00
2025-11-18 13:04:46.610025,599619072739874835,-41.00
2025-11-18 13:04:46.610025,599619072739874835,-38.00
2025-11-18 13:04:46.610025,599619072739874835,-31.00
2025-11-18 13:04:46.610025,599619072739874835,-41.00
2025-11-18 13:04:46.610025,599619072739874835,-89.00
2025-11-18 13:04:46.610025,599619072739874835,-138.00
2025-11-18 13:04:46.610025,599619072739874835,7.00
2025-11-18 13:04:46.610025,599619072739874835,489.00
2025-11-18 13:04:46.610025,599619072739874835,1081.00
2025-11-18 13:04:46.610025,599619072739874835,1248.00
2025-11-18 13:04:46.610025,599619072739874835,649.00
2025-11-18 13:04:46.610025,599619072739874835,-206.00
2025-11-18 13:04:46.610025,599619072739874835,-392.00
2025-11-18 13:04:46.610025,599619072739874835,-99.00
2025-11-18 13:04:46.610025,599619072739874835,-72.00
2025-11-18 13:04:46.610025,599619072739874835,-174.00
2025-11-18 13:04:46.610025,599619072739874835,-113.00
2025-11-18 13:04:46.610025,599619072739874835,-80.00
2025-11-18 13:04:46.610025,599619072739874835,-111.00
2025-11-18 13:04:46.610025,599619072739874835,-97.00
2025-11-18 13:04:46.610025,599619072739874835,-70.00
2025-11-18 13:04:46.610025,599619072739874835,-75.00
2025-11-18 13:04:46.610025,599619072739874835,-70.00
2025-11-18 13:04:46.610025,599619072739874835,-58.00
2025-11-18 13:04:46.610025,599619072739874835,-53.00
2025-11-18 13:04:46.610025,599619072739874835,-46.00
2025-11-18 13:04:46.610025,599619072739874835,-36.00
2025-11-18 13:04:46.610025,599619072739874835,-31.00
2025-11-18 13:04:46.610025,599619072739874835,-21.00
2025-11-18 13:04:46.610025,599619072739874835,-14.00
2025-11-18 13:04:46.610025,599619072739874835,-7.00
2025-11-18 13:04:46.610025,599619072739874835,2.00
2025-11-18 13:04:46.610025,599619072739874835,14.00
2025-11-18 13:04:46.610025,599619072739874835,26.00
2025-11-18 13:04:46.610025,599619072739874835,38.00
2025-11-18 13:04:47.150353,599619073300602394,55.00
2025-11-18 13:04:47.150353,599619073300602394,75.00
2025-11-18 13:04:47.150353,599619073300602394,94.00
2025-11-18 13:04:47.150353,599619073300602394,116.00
2025-11-18 13:04:47.150353,599619073300602394,140.00
2025-11-18 13:04:47.150353,599619073300602394,167.00
2025-11-18 13:04:47.150353,599619073300602394,189.00
2025-11-18 13:04:47.150353,599619073300602394,206.00
2025-11-18 13:04:47.150353,599619073300602394,218.00
2025-11-18 13:04:47.150353,599619073300602394,225.00
2025-11-18 13:04:47.150353,599619073300602394,218.00
2025-11-18 13:04:47.150353,599619073300602394,191.00
2025-11-18 13:04:47.150353,599619073300602394,143.00
2025-11-18 13:04:47.150353,599619073300602394,77.00
2025-11-18 13:04:47.150353,599619073300602394,12.00
2025-11-18 13:04:47.150353,599619073300602394,-46.00
2025-11-18 13:04:47.150353,599619073300602394,-97.00
2025-11-18 13:04:47.150353,599619073300602394,-133.00
2025-11-18 13:04:47.150353,599619073300602394,-152.00
2025-11-18 13:04:47.150353,599619073300602394,-162.00
2025-11-18 13:04:47.150353,599619073300602394,-164.00
2025-11-18 13:04:47.150353,599619073300602394,-155.00
2025-11-18 13:04:47.150353,599619073300602394,-150.00
2025-11-18 13:04:47.150353,599619073300602394,-147.00
2025-11-18 13:04:47.150353,599619073300602394,-143.00
2025-11-18 13:04:47.150353,599619073300602394,-135.00
2025-11-18 13:04:47.150353,599619073300602394,-130.00
2025-11-18 13:04:47.150353,599619073300602394,-126.00
2025-11-18 13:04:47.150353,599619073300602394,-126.00
2025-11-18 13:04:47.150353,599619073300602394,-121.00
2025-11-18 13:04:47.150353,599619073300602394,-118.00
2025-11-18 13:04:47.150353,599619073300602394,-118.00
2025-11-18 13:04:47.150353,599619073300602394,-113.00
2025-11-18 13:04:47.150353,599619073300602394,-106.00
2025-11-18 13:04:47.150353,599619073300602394,-104.00
2025-11-18 13:04:47.150353,599619073300602394,-104.00
2025-11-18 13:04:47.150353,599619073300602394,-101.00
2025-11-18 13:04:47.150353,599619073300602394,-99.00
2025-11-18 13:04:47.150353,599619073300602394,-104.00
2025-11-18 13:04:47.150353,599619073300602394,-101.00
2025-11-18 13:04:47.150353,599619073300602394,-97.00
2025-11-18 13:04:47.150353,599619073300602394,-92.00
2025-11-18 13:04:47.150353,599619073300602394,-94.00
2025-11-18 13:04:47.150353,599619073300602394,-94.00
2025-11-18 13:04:47.150353,599619073300602394,-87.00
2025-11-18 13:04:47.150353,599619073300602394,-87.00
2025-11-18 13:04:47.150353,599619073300602394,-92.00
2025-11-18 13:04:47.150353,599619073300602394,-92.00
2025-11-18 13:04:47.150353,599619073300602394,-89.00
2025-11-18 13:04:47.150353,599619073300602394,-87.00
2025-11-18 13:04:47.150353,599619073300602394,-87.00
2025-11-18 13:04:47.150353,599619073300602394,-84.00
2025-11-18 13:04:47.150353,599619073300602394,-82.00
2025-11-18 13:04:47.150353,599619073300602394,-80.00
2025-11-18 13:04:47.150353,599619073300602394,-80.00
2025-11-18 13:04:47.150353,599619073300602394,-80.00
2025-11-18 13:04:47.150353,599619073300602394,-77.00
2025-11-18 13:04:47.150353,599619073300602394,-77.00
2025-11-18 13:04:47.150353,599619073300602394,-77.00
2025-11-18 13:04:47.150353,599619073300602394,-75.00
2025-11-18 13:04:47.150353,599619073300602394,-72.00
2025-11-18 13:04:47.150353,599619073300602394,-72.00
2025-11-18 13:04:47.150353,599619073300602394,-70.00
2025-11-18 13:04:47.150353,599619073300602394,-67.00
2025-11-18 13:04:47.150353,599619073300602394,-65.00
2025-11-18 13:04:47.150353,599619073300602394,-67.00
2025-11-18 13:04:47.150353,599619073300602394,-70.00
2025-11-18 13:04:47.150353,599619073300602394,-70.00
2025-11-18 13:04:47.150353,599619073300602394,-67.00
2025-11-18 13:04:47.150353,599619073300602394,-63.00
2025-11-18 13:04:47.150353,599619073300602394,-60.00
2025-11-18 13:04:47.150353,599619073300602394,-60.00
2025-11-18 13:04:47.150353,599619073300602394,-63.00
2025-11-18 13:04:47.750900,599619073861299437,-58.00
2025-11-18 13:04:47.750900,599619073861299437,-55.00
2025-11-18 13:04:47.750900,599619073861299437,-53.00
2025-11-18 13:04:47.750900,599619073861299437,-58.00
2025-11-18 13:04:47.750900,599619073861299437,-55.00
2025-11-18 13:04:47.750900,599619073861299437,-53.00
2025-11-18 13:04:47.750900,599619073861299437,-55.00
2025-11-18 13:04:47.750900,599619073861299437,-58.00
2025-11-18 13:04:47.750900,599619073861299437,-55.00
2025-11-18 13:04:47.750900,599619073861299437,-50.00
2025-11-18 13:04:47.750900,599619073861299437,-41.00
2025-11-18 13:04:47.750900,599619073861299437,-31.00
2025-11-18 13:04:47.750900,599619073861299437,-36.00
2025-11-18 13:04:47.750900,599619073861299437,-36.00
2025-11-18 13:04:47.750900,599619073861299437,-26.00
2025-11-18 13:04:47.750900,599619073861299437,-31.00
2025-11-18 13:04:47.750900,599619073861299437,-38.00
2025-11-18 13:04:47.750900,599619073861299437,-43.00
2025-11-18 13:04:47.750900,599619073861299437,-50.00
2025-11-18 13:04:47.750900,599619073861299437,-58.00
2025-11-18 13:04:47.750900,599619073861299437,-55.00
2025-11-18 13:04:47.750900,599619073861299437,-50.00
2025-11-18 13:04:47.750900,599619073861299437,-50.00
2025-11-18 13:04:47.750900,599619073861299437,-53.00
2025-11-18 13:04:47.750900,599619073861299437,-50.00
2025-11-18 13:04:47.750900,599619073861299437,-55.00
2025-11-18 13:04:47.750900,599619073861299437,-92.00
2025-11-18 13:04:47.750900,599619073861299437,-145.00
2025-11-18 13:04:47.750900,599619073861299437,-70.00
2025-11-18 13:04:47.750900,599619073861299437,334.00
2025-11-18 13:04:47.750900,599619073861299437,940.00
2025-11-18 13:04:47.750900,599619073861299437,1248.00
2025-11-18 13:04:47.750900,599619073861299437,807.00
2025-11-18 13:04:47.750900,599619073861299437,-89.00
2025-11-18 13:04:47.750900,599619073861299437,-451.00
2025-11-18 13:04:47.750900,599619073861299437,-169.00
2025-11-18 13:04:47.750900,599619073861299437,-67.00
2025-11-18 13:04:47.750900,599619073861299437,-184.00
2025-11-18 13:04:47.750900,599619073861299437,-147.00
2025-11-18 13:04:47.750900,599619073861299437,-99.00
2025-11-18 13:04:47.750900,599619073861299437,-128.00
2025-11-18 13:04:47.750900,599619073861299437,-121.00
2025-11-18 13:04:47.750900,599619073861299437,-94.00
2025-11-18 13:04:47.750900,599619073861299437,-92.00
2025-11-18 13:04:47.750900,599619073861299437,-87.00
2025-11-18 13:04:47.750900,599619073861299437,-77.00
2025-11-18 13:04:47.750900,599619073861299437,-75.00
2025-11-18 13:04:47.750900,599619073861299437,-70.00
2025-11-18 13:04:47.750900,599619073861299437,-60.00
2025-11-18 13:04:47.750900,599619073861299437,-50.00
2025-11-18 13:04:47.750900,599619073861299437,-41.00
2025-11-18 13:04:47.750900,599619073861299437,-31.00
2025-11-18 13:04:47.750900,599619073861299437,-19.00
2025-11-18 13:04:47.750900,599619073861299437,-9.00
2025-11-18 13:04:47.750900,599619073861299437,-4.00
2025-11-18 13:04:47.750900,599619073861299437,2.00
2025-11-18 13:04:47.750900,599619073861299437,16.00
2025-11-18 13:04:47.750900,599619073861299437,31.00
2025-11-18 13:04:47.750900,599619073861299437,48.00
2025-11-18 13:04:47.750900,599619073861299437,70.00
2025-11-18 13:04:47.750900,599619073861299437,89.00
2025-11-18 13:04:47.750900,599619073861299437,111.00
2025-11-18 13:04:47.750900,599619073861299437,140.00
2025-11-18 13:04:47.750900,599619073861299437,164.00
2025-11-18 13:04:47.750900,599619073861299437,184.00
2025-11-18 13:04:47.750900,599619073861299437,196.00
2025-11-18 13:04:47.750900,599619073861299437,206.00
2025-11-18 13:04:47.750900,599619073861299437,208.00
2025-11-18 13:04:47.750900,599619073861299437,191.00
2025-11-18 13:04:47.750900,599619073861299437,150.00
2025-11-18 13:04:47.750900,599619073861299437,89.00
2025-11-18 13:04:47.750900,599619073861299437,19.00
2025-11-18 13:04:47.750900,599619073861299437,-46.00
2025-11-18 13:04:48.320356,599619074422026996,-99.00
2025-11-18 13:04:48.320356,599619074422026996,-140.00
2025-11-18 13:04:48.320356,599619074422026996,-160.00
2025-11-18 13:04:48.320356,599619074422026996,-169.00
2025-11-18 13:04:48.320356,599619074422026996,-174.00
2025-11-18 13:04:48.320356,599619074422026996,-172.00
2025-11-18 13:04:48.320356,599619074422026996,-167.00
2025-11-18 13:04:48.320356,599619074422026996,-162.00
2025-11-18 13:04:48.320356,599619074422026996,-157.00
2025-11-18 13:04:48.320356,599619074422026996,-152.00
2025-11-18 13:04:48.320356,599619074422026996,-145.00
2025-11-18 13:04:48.320356,599619074422026996,-135.00
2025-11-18 13:04:48.320356,599619074422026996,-130.00
2025-11-18 13:04:48.320356,599619074422026996,-126.00
2025-11-18 13:04:48.320356,599619074422026996,-118.00
2025-11-18 13:04:48.320356,599619074422026996,-116.00
2025-11-18 13:04:48.320356,599619074422026996,-111.00
2025-11-18 13:04:48.320356,599619074422026996,-101.00
2025-11-18 13:04:48.320356,599619074422026996,-99.00
2025-11-18 13:04:48.320356,599619074422026996,-101.00
2025-11-18 13:04:48.320356,599619074422026996,-101.00
2025-11-18 13:04:48.320356,599619074422026996,-99.00
2025-11-18 13:04:48.320356,599619074422026996,-97.00
2025-11-18 13:04:48.320356,599619074422026996,-94.00
2025-11-18 13:04:48.320356,599619074422026996,-89.00
2025-11-18 13:04:48.320356,599619074422026996,-89.00
2025-11-18 13:04:48.320356,599619074422026996,-87.00
2025-11-18 13:04:48.320356,599619074422026996,-84.00
2025-11-18 13:04:48.320356,599619074422026996,-82.00
2025-11-18 13:04:48.320356,599619074422026996,-82.00
2025-11-18 13:04:48.320356,599619074422026996,-82.00
2025-11-18 13:04:48.320356,599619074422026996,-82.00
2025-11-18 13:04:48.320356,599619074422026996,-77.00
2025-11-18 13:04:48.320356,599619074422026996,-75.00
2025-11-18 13:04:48.320356,599619074422026996,-75.00
2025-11-18 13:04:48.320356,599619074422026996,-77.00
2025-11-18 13:04:48.320356,599619074422026996,-75.00
2025-11-18 13:04:48.320356,599619074422026996,-67.00
2025-11-18 13:04:48.320356,599619074422026996,-70.00
2025-11-18 13:04:48.320356,599619074422026996,-72.00
2025-11-18 13:04:48.320356,599619074422026996,-70.00
2025-11-18 13:04:48.320356,599619074422026996,-67.00
2025-11-18 13:04:48.320356,599619074422026996,-65.00
2025-11-18 13:04:48.320356,599619074422026996,-63.00
2025-11-18 13:04:48.320356,599619074422026996,-58.00
2025-11-18 13:04:48.320356,599619074422026996,-55.00
2025-11-18 13:04:48.320356,599619074422026996,-53.00
2025-11-18 13:04:48.320356,599619074422026996,-50.00
2025-11-18 13:04:48.320356,599619074422026996,-53.00
2025-11-18 13:04:48.320356,599619074422026996,-50.00
2025-11-18 13:04:48.320356,599619074422026996,-50.00
2025-11-18 13:04:48.320356,599619074422026996,-50.00
2025-11-18 13:04:48.320356,599619074422026996,-46.00
2025-11-18 13:04:48.320356,599619074422026996,-46.00
2025-11-18 13:04:48.320356,599619074422026996,-50.00
2025-11-18 13:04:48.320356,599619074422026996,-48.00
2025-11-18 13:04:48.320356,599619074422026996,-43.00
2025-11-18 13:04:48.320356,599619074422026996,-41.00
2025-11-18 13:04:48.320356,599619074422026996,-31.00
2025-11-18 13:04:48.320356,599619074422026996,-21.00
2025-11-18 13:04:48.320356,599619074422026996,-24.00
2025-11-18 13:04:48.320356,599619074422026996,-26.00
2025-11-18 13:04:48.320356,599619074422026996,-21.00
2025-11-18 13:04:48.320356,599619074422026996,-16.00
2025-11-18 13:04:48.320356,599619074422026996,-21.00
2025-11-18 13:04:48.320356,599619074422026996,-31.00
2025-11-18 13:04:48.320356,599619074422026996,-38.00
2025-11-18 13:04:48.320356,599619074422026996,-41.00
2025-11-18 13:04:48.320356,599619074422026996,-38.00
2025-11-18 13:04:48.320356,599619074422026996,-36.00
2025-11-18 13:04:48.320356,599619074422026996,-36.00
2025-11-18 13:04:48.320356,599619074422026996,-31.00
2025-11-18 13:04:48.320356,599619074422026996,-26.00
2025-11-18 13:04:48.858273,599619074982724037,-29.00
2025-11-18 13:04:48.858273,599619074982724037,-53.00
2025-11-18 13:04:48.858273,599619074982724037,-116.00
2025-11-18 13:04:48.858273,599619074982724037,-123.00
2025-11-18 13:04:48.858273,599619074982724037,160.00
2025-11-18 13:04:48.858273,599619074982724037,759.00
2025-11-18 13:04:48.858273,599619074982724037,1273.00
2025-11-18 13:04:48.858273,599619074982724037,1122.00
2025-11-18 13:04:48.858273,599619074982724037,252.00
2025-11-18 13:04:48.858273,599619074982724037,-414.00
2025-11-18 13:04:48.858273,599619074982724037,-274.00
2025-11-18 13:04:48.858273,599619074982724037,-41.00
2025-11-18 13:04:48.858273,599619074982724037,-130.00
2025-11-18 13:04:48.858273,599619074982724037,-152.00
2025-11-18 13:04:48.858273,599619074982724037,-77.00
2025-11-18 13:04:48.858273,599619074982724037,-92.00
2025-11-18 13:04:48.858273,599619074982724037,-106.00
2025-11-18 13:04:48.858273,599619074982724037,-75.00
2025-11-18 13:04:48.858273,599619074982724037,-67.00
2025-11-18 13:04:48.858273,599619074982724037,-72.00
2025-11-18 13:04:48.858273,599619074982724037,-55.00
2025-11-18 13:04:48.858273,599619074982724037,-41.00
2025-11-18 13:04:48.858273,599619074982724037,-43.00
2025-11-18 13:04:48.858273,599619074982724037,-38.00
2025-11-18 13:04:48.858273,599619074982724037,-29.00
2025-11-18 13:04:48.858273,599619074982724037,-24.00
2025-11-18 13:04:48.858273,599619074982724037,-16.00
2025-11-18 13:04:48.858273,599619074982724037,-4.00
2025-11-18 13:04:48.858273,599619074982724037,4.00
2025-11-18 13:04:48.858273,599619074982724037,14.00
2025-11-18 13:04:48.858273,599619074982724037,21.00
2025-11-18 13:04:48.858273,599619074982724037,31.00
2025-11-18 13:04:48.858273,599619074982724037,48.00
2025-11-18 13:04:48.858273,599619074982724037,65.00
2025-11-18 13:04:48.858273,599619074982724037,84.00
2025-11-18 13:04:48.858273,599619074982724037,111.00
2025-11-18 13:04:48.858273,599619074982724037,138.00
2025-11-18 13:04:48.858273,599619074982724037,162.00
2025-11-18 13:04:48.858273,599619074982724037,186.00
2025-11-18 13:04:48.858273,599619074982724037,206.00
2025-11-18 13:04:48.858273,599619074982724037,225.00
2025-11-18 13:04:48.858273,599619074982724037,240.00
2025-11-18 13:04:48.858273,599619074982724037,240.00
2025-11-18 13:04:48.858273,599619074982724037,223.00
2025-11-18 13:04:48.858273,599619074982724037,189.00
2025-11-18 13:04:48.858273,599619074982724037,128.00
2025-11-18 13:04:48.858273,599619074982724037,53.00
2025-11-18 13:04:48.858273,599619074982724037,-19.00
2025-11-18 13:04:48.858273,599619074982724037,-75.00
2025-11-18 13:04:48.858273,599619074982724037,-116.00
2025-11-18 13:04:48.858273,599619074982724037,-145.00
2025-11-18 13:04:48.858273,599619074982724037,-157.00
2025-11-18 13:04:48.858273,599619074982724037,-164.00
2025-11-18 13:04:48.858273,599619074982724037,-167.00
2025-11-18 13:04:48.858273,599619074982724037,-169.00
2025-11-18 13:04:48.858273,599619074982724037,-167.00
2025-11-18 13:04:48.858273,599619074982724037,-160.00
2025-11-18 13:04:48.858273,599619074982724037,-150.00
2025-11-18 13:04:48.858273,599619074982724037,-143.00
2025-11-18 13:04:48.858273,599619074982724037,-140.00
2025-11-18 13:04:48.858273,599619074982724037,-133.00
2025-11-18 13:04:48.858273,599619074982724037,-126.00
2025-11-18 13:04:48.858273,599619074982724037,-118.00
2025-11-18 13:04:48.858273,599619074982724037,-109.00
2025-11-18 13:04:48.858273,599619074982724037,-101.00
2025-11-18 13:04:48.858273,599619074982724037,-97.00
2025-11-18 13:04:48.858273,599619074982724037,-92.00
2025-11-18 13:04:48.858273,599619074982724037,-87.00
2025-11-18 13:04:48.858273,599619074982724037,-82.00
2025-11-18 13:04:48.858273,599619074982724037,-77.00
2025-11-18 13:04:48.858273,599619074982724037,-72.00
2025-11-18 13:04:48.858273,599619074982724037,-72.00
2025-11-18 13:04:48.858273,599619074982724037,-72.00
2025-11-18 13:04:49.460744,599619075543421078,-72.00
2025-11-18 13:04:49.460744,599619075543421078,-75.00
2025-11-18 13:04:49.460744,599619075543421078,-75.00
2025-11-18 13:04:49.460744,599619075543421078,-72.00
2025-11-18 13:04:49.460744,599619075543421078,-72.00
2025-11-18 13:04:49.460744,599619075543421078,-70.00
2025-11-18 13:04:49.460744,599619075543421078,-70.00
2025-11-18 13:04:49.460744,599619075543421078,-70.00
2025-11-18 13:04:49.460744,599619075543421078,-70.00
2025-11-18 13:04:49.460744,599619075543421078,-67.00
2025-11-18 13:04:49.460744,599619075543421078,-67.00
2025-11-18 13:04:49.460744,599619075543421078,-65.00
2025-11-18 13:04:49.460744,599619075543421078,-63.00
2025-11-18 13:04:49.460744,599619075543421078,-63.00
2025-11-18 13:04:49.460744,599619075543421078,-63.00
2025-11-18 13:04:49.460744,599619075543421078,-60.00
2025-11-18 13:04:49.460744,599619075543421078,-60.00
2025-11-18 13:04:49.460744,599619075543421078,-58.00
2025-11-18 13:04:49.460744,599619075543421078,-58.00
2025-11-18 13:04:49.460744,599619075543421078,-58.00
2025-11-18 13:04:49.460744,599619075543421078,-58.00
2025-11-18 13:04:49.460744,599619075543421078,-58.00
2025-11-18 13:04:49.460744,599619075543421078,-55.00
2025-11-18 13:04:49.460744,599619075543421078,-50.00
2025-11-18 13:04:49.460744,599619075543421078,-53.00
2025-11-18 13:04:49.460744,599619075543421078,-55.00
2025-11-18 13:04:49.460744,599619075543421078,-53.00
2025-11-18 13:04:49.460744,599619075543421078,-55.00
2025-11-18 13:04:49.460744,599619075543421078,-53.00
2025-11-18 13:04:49.460744,599619075543421078,-41.00
2025-11-18 13:04:49.460744,599619075543421078,-31.00
2025-11-18 13:04:49.460744,599619075543421078,-36.00
2025-11-18 13:04:49.460744,599619075543421078,-41.00
2025-11-18 13:04:49.460744,599619075543421078,-31.00
2025-11-18 13:04:49.460744,599619075543421078,-24.00
2025-11-18 13:04:49.460744,599619075543421078,-31.00
2025-11-18 13:04:49.460744,599619075543421078,-43.00
2025-11-18 13:04:49.460744,599619075543421078,-48.00
2025-11-18 13:04:49.460744,599619075543421078,-50.00
2025-11-18 13:04:49.460744,599619075543421078,-50.00
2025-11-18 13:04:49.460744,599619075543421078,-48.00
2025-11-18 13:04:49.460744,599619075543421078,-48.00
2025-11-18 13:04:49.460744,599619075543421078,-50.00
2025-11-18 13:04:49.460744,599619075543421078,-46.00
2025-11-18 13:04:49.460744,599619075543421078,-48.00
2025-11-18 13:04:49.460744,599619075543421078,-84.00
2025-11-18 13:04:49.460744,599619075543421078,-152.00
2025-11-18 13:04:49.460744,599619075543421078,-128.00
2025-11-18 13:04:49.460744,599619075543421078,227.00
2025-11-18 13:04:49.460744,599619075543421078,897.00
2025-11-18 13:04:49.460744,599619075543421078,1401.00
2025-11-18 13:04:49.460744,599619075543421078,1132.00
2025-11-18 13:04:49.460744,599619075543421078,147.00
2025-11-18 13:04:49.460744,599619075543421078,-475.00
2025-11-18 13:04:49.460744,599619075543421078,-254.00
2025-11-18 13:04:49.460744,599619075543421078,-46.00
2025-11-18 13:04:49.460744,599619075543421078,-167.00
2025-11-18 13:04:49.460744,599619075543421078,-172.00
2025-11-18 13:04:49.460744,599619075543421078,-92.00
2025-11-18 13:04:49.460744,599619075543421078,-113.00
2025-11-18 13:04:49.460744,599619075543421078,-121.00
2025-11-18 13:04:49.460744,599619075543421078,-82.00
2025-11-18 13:04:49.460744,599619075543421078,-77.00
2025-11-18 13:04:49.460744,599619075543421078,-80.00
2025-11-18 13:04:49.460744,599619075543421078,-63.00
2025-11-18 13:04:49.460744,599619075543421078,-50.00
2025-11-18 13:04:49.460744,599619075543421078,-50.00
2025-11-18 13:04:49.460744,599619075543421078,-41.00
2025-11-18 13:04:49.460744,599619075543421078,-29.00
2025-11-18 13:04:49.460744,599619075543421078,-24.00
2025-11-18 13:04:49.460744,599619075543421078,-12.00
2025-11-18 13:04:49.460744,599619075543421078,0.00
2025-11-18 13:04:49.460744,599619075543421078,7.00
2025-11-18 13:04:49.969477,599619076104118119,14.00
2025-11-18 13:04:49.969477,599619076104118119,26.00
2025-11-18 13:04:49.969477,599619076104118119,43.00
2025-11-18 13:04:49.969477,599619076104118119,60.00
2025-11-18 13:04:49.969477,599619076104118119,77.00
2025-11-18 13:04:49.969477,599619076104118119,99.00
2025-11-18 13:04:49.969477,599619076104118119,118.00
2025-11-18 13:04:49.969477,599619076104118119,143.00
2025-11-18 13:04:49.969477,599619076104118119,174.00
2025-11-18 13:04:49.969477,599619076104118119,198.00
2025-11-18 13:04:49.969477,599619076104118119,218.00
2025-11-18 13:04:49.969477,599619076104118119,242.00
2025-11-18 13:04:49.969477,599619076104118119,257.00
2025-11-18 13:04:49.969477,599619076104118119,247.00
2025-11-18 13:04:49.969477,599619076104118119,220.00
2025-11-18 13:04:49.969477,599619076104118119,177.00
2025-11-18 13:04:49.969477,599619076104118119,109.00
2025-11-18 13:04:49.969477,599619076104118119,31.00
2025-11-18 13:04:49.969477,599619076104118119,-31.00
2025-11-18 13:04:49.969477,599619076104118119,-84.00
2025-11-18 13:04:49.969477,599619076104118119,-126.00
2025-11-18 13:04:49.969477,599619076104118119,-150.00
2025-11-18 13:04:49.969477,599619076104118119,-160.00
2025-11-18 13:04:49.969477,599619076104118119,-164.00
2025-11-18 13:04:49.969477,599619076104118119,-162.00
2025-11-18 13:04:49.969477,599619076104118119,-155.00
2025-11-18 13:04:49.969477,599619076104118119,-152.00
2025-11-18 13:04:49.969477,599619076104118119,-147.00
2025-11-18 13:04:49.969477,599619076104118119,-143.00
2025-11-18 13:04:49.969477,599619076104118119,-138.00
2025-11-18 13:04:49.969477,599619076104118119,-133.00
2025-11-18 13:04:49.969477,599619076104118119,-128.00
2025-11-18 13:04:49.969477,599619076104118119,-126.00
2025-11-18 13:04:49.969477,599619076104118119,-118.00
2025-11-18 13:04:49.969477,599619076104118119,-111.00
2025-11-18 13:04:49.969477,599619076104118119,-109.00
2025-11-18 13:04:49.969477,599619076104118119,-104.00
2025-11-18 13:04:49.969477,599619076104118119,-99.00
2025-11-18 13:04:49.969477,599619076104118119,-97.00
2025-11-18 13:04:49.969477,599619076104118119,-97.00
2025-11-18 13:04:49.969477,599619076104118119,-92.00
2025-11-18 13:04:49.969477,599619076104118119,-87.00
2025-11-18 13:04:49.969477,599619076104118119,-84.00
2025-11-18 13:04:49.969477,599619076104118119,-82.00
2025-11-18 13:04:49.969477,599619076104118119,-82.00
2025-11-18 13:04:49.969477,599619076104118119,-80.00
2025-11-18 13:04:49.969477,599619076104118119,-77.00
2025-11-18 13:04:49.969477,599619076104118119,-77.00
2025-11-18 13:04:49.969477,599619076104118119,-75.00
2025-11-18 13:04:49.969477,599619076104118119,-75.00
2025-11-18 13:04:49.969477,599619076104118119,-75.00
2025-11-18 13:04:49.969477,599619076104118119,-75.00
2025-11-18 13:04:49.969477,599619076104118119,-67.00
2025-11-18 13:04:49.969477,599619076104118119,-67.00
2025-11-18 13:04:49.969477,599619076104118119,-70.00
2025-11-18 13:04:49.969477,599619076104118119,-67.00
2025-11-18 13:04:49.969477,599619076104118119,-65.00
2025-11-18 13:04:49.969477,599619076104118119,-67.00
2025-11-18 13:04:49.969477,599619076104118119,-65.00
2025-11-18 13:04:49.969477,599619076104118119,-63.00
2025-11-18 13:04:49.969477,599619076104118119,-60.00
2025-11-18 13:04:49.969477,599619076104118119,-60.00
2025-11-18 13:04:49.969477,599619076104118119,-60.00
2025-11-18 13:04:49.969477,599619076104118119,-60.00
2025-11-18 13:04:49.969477,599619076104118119,-60.00
2025-11-18 13:04:49.969477,599619076104118119,-58.00
2025-11-18 13:04:49.969477,599619076104118119,-60.00
2025-11-18 13:04:49.969477,599619076104118119,-58.00
2025-11-18 13:04:49.969477,599619076104118119,-55.00
2025-11-18 13:04:49.969477,599619076104118119,-53.00
2025-11-18 13:04:49.969477,599619076104118119,-50.00
2025-11-18 13:04:49.969477,599619076104118119,-53.00
2025-11-18 13:04:49.969477,599619076104118119,-53.00
2025-11-18 13:04:50.539641,599619076664815160,-50.00
2025-11-18 13:04:50.539641,599619076664815160,-50.00
2025-11-18 13:04:50.539641,599619076664815160,-48.00
2025-11-18 13:04:50.539641,599619076664815160,-46.00
2025-11-18 13:04:50.539641,599619076664815160,-46.00
2025-11-18 13:04:50.539641,599619076664815160,-46.00
2025-11-18 13:04:50.539641,599619076664815160,-43.00
2025-11-18 13:04:50.539641,599619076664815160,-41.00
2025-11-18 13:04:50.539641,599619076664815160,-46.00
2025-11-18 13:04:50.539641,599619076664815160,-41.00
2025-11-18 13:04:50.539641,599619076664815160,-33.00
2025-11-18 13:04:50.539641,599619076664815160,-26.00
2025-11-18 13:04:50.539641,599619076664815160,-24.00
2025-11-18 13:04:50.539641,599619076664815160,-26.00
2025-11-18 13:04:50.539641,599619076664815160,-24.00
2025-11-18 13:04:50.539641,599619076664815160,-16.00
2025-11-18 13:04:50.539641,599619076664815160,-19.00
2025-11-18 13:04:50.539641,599619076664815160,-26.00
2025-11-18 13:04:50.539641,599619076664815160,-31.00
2025-11-18 13:04:50.539641,599619076664815160,-36.00
2025-11-18 13:04:50.539641,599619076664815160,-41.00
2025-11-18 13:04:50.539641,599619076664815160,-48.00
2025-11-18 13:04:50.539641,599619076664815160,-46.00
2025-11-18 13:04:50.539641,599619076664815160,-38.00
2025-11-18 13:04:50.539641,599619076664815160,-36.00
2025-11-18 13:04:50.539641,599619076664815160,-33.00
2025-11-18 13:04:50.539641,599619076664815160,-55.00
2025-11-18 13:04:50.539641,599619076664815160,-121.00
2025-11-18 13:04:50.539641,599619076664815160,-135.00
2025-11-18 13:04:50.539641,599619076664815160,130.00
2025-11-18 13:04:50.539641,599619076664815160,732.00
2025-11-18 13:04:50.539641,599619076664815160,1304.00
2025-11-18 13:04:50.539641,599619076664815160,1273.00
2025-11-18 13:04:50.539641,599619076664815160,448.00
2025-11-18 13:04:50.539641,599619076664815160,-358.00
2025-11-18 13:04:50.539641,599619076664815160,-334.00
2025-11-18 13:04:50.539641,599619076664815160,-50.00
2025-11-18 13:04:50.539641,599619076664815160,-123.00
2025-11-18 13:04:50.539641,599619076664815160,-191.00
2025-11-18 13:04:50.539641,599619076664815160,-111.00
2025-11-18 13:04:50.539641,599619076664815160,-104.00
2025-11-18 13:04:50.539641,599619076664815160,-126.00
2025-11-18 13:04:50.539641,599619076664815160,-89.00
2025-11-18 13:04:50.539641,599619076664815160,-75.00
2025-11-18 13:04:50.539641,599619076664815160,-87.00
2025-11-18 13:04:50.539641,599619076664815160,-77.00
2025-11-18 13:04:50.539641,599619076664815160,-60.00
2025-11-18 13:04:50.539641,599619076664815160,-55.00
2025-11-18 13:04:50.539641,599619076664815160,-50.00
2025-11-18 13:04:50.539641,599619076664815160,-41.00
2025-11-18 13:04:50.539641,599619076664815160,-31.00
2025-11-18 13:04:50.539641,599619076664815160,-24.00
2025-11-18 13:04:50.539641,599619076664815160,-14.00
2025-11-18 13:04:50.539641,599619076664815160,-9.00
2025-11-18 13:04:50.539641,599619076664815160,-2.00
2025-11-18 13:04:50.539641,599619076664815160,14.00
2025-11-18 13:04:50.539641,599619076664815160,29.00
2025-11-18 13:04:50.539641,599619076664815160,41.00
2025-11-18 13:04:50.539641,599619076664815160,55.00
2025-11-18 13:04:50.539641,599619076664815160,77.00
2025-11-18 13:04:50.539641,599619076664815160,99.00
2025-11-18 13:04:50.539641,599619076664815160,126.00
2025-11-18 13:04:50.539641,599619076664815160,150.00
2025-11-18 13:04:50.539641,599619076664815160,177.00
2025-11-18 13:04:50.539641,599619076664815160,203.00
2025-11-18 13:04:50.539641,599619076664815160,223.00
2025-11-18 13:04:50.539641,599619076664815160,227.00
2025-11-18 13:04:50.539641,599619076664815160,232.00
2025-11-18 13:04:50.539641,599619076664815160,230.00
2025-11-18 13:04:50.539641,599619076664815160,196.00
2025-11-18 13:04:50.539641,599619076664815160,135.00
2025-11-18 13:04:50.539641,599619076664815160,60.00
2025-11-18 13:04:50.539641,599619076664815160,-14.00
2025-11-18 13:04:51.141208,599619077225542721,-72.00
2025-11-18 13:04:51.141208,599619077225542721,-113.00
2025-11-18 13:04:51.141208,599619077225542721,-145.00
2025-11-18 13:04:51.141208,599619077225542721,-162.00
2025-11-18 13:04:51.141208,599619077225542721,-172.00
2025-11-18 13:04:51.141208,599619077225542721,-169.00
2025-11-18 13:04:51.141208,599619077225542721,-164.00
2025-11-18 13:04:51.141208,599619077225542721,-155.00
2025-11-18 13:04:51.141208,599619077225542721,-145.00
2025-11-18 13:04:51.141208,599619077225542721,-140.00
2025-11-18 13:04:51.141208,599619077225542721,-138.00
2025-11-18 13:04:51.141208,599619077225542721,-130.00
2025-11-18 13:04:51.141208,599619077225542721,-126.00
2025-11-18 13:04:51.141208,599619077225542721,-128.00
2025-11-18 13:04:51.141208,599619077225542721,-121.00
2025-11-18 13:04:51.141208,599619077225542721,-109.00
2025-11-18 13:04:51.141208,599619077225542721,-111.00
2025-11-18 13:04:51.141208,599619077225542721,-123.00
2025-11-18 13:04:51.141208,599619077225542721,-116.00
2025-11-18 13:04:51.141208,599619077225542721,-101.00
2025-11-18 13:04:51.141208,599619077225542721,-101.00
2025-11-18 13:04:51.141208,599619077225542721,-99.00
2025-11-18 13:04:51.141208,599619077225542721,-89.00
2025-11-18 13:04:51.141208,599619077225542721,-97.00
2025-11-18 13:04:51.141208,599619077225542721,-104.00
2025-11-18 13:04:51.141208,599619077225542721,-89.00
2025-11-18 13:04:51.141208,599619077225542721,-75.00
2025-11-18 13:04:51.141208,599619077225542721,-67.00
2025-11-18 13:04:51.141208,599619077225542721,-70.00
2025-11-18 13:04:51.141208,599619077225542721,-80.00
2025-11-18 13:04:51.141208,599619077225542721,-82.00
2025-11-18 13:04:51.141208,599619077225542721,-67.00
2025-11-18 13:04:51.141208,599619077225542721,-60.00
2025-11-18 13:04:51.141208,599619077225542721,-55.00
2025-11-18 13:04:51.141208,599619077225542721,-46.00
2025-11-18 13:04:51.141208,599619077225542721,-46.00
2025-11-18 13:04:51.141208,599619077225542721,-58.00
2025-11-18 13:04:51.141208,599619077225542721,-50.00
2025-11-18 13:04:51.141208,599619077225542721,-43.00
2025-11-18 13:04:51.141208,599619077225542721,-48.00
2025-11-18 13:04:51.141208,599619077225542721,-50.00
2025-11-18 13:04:51.141208,599619077225542721,-41.00
2025-11-18 13:04:51.141208,599619077225542721,-38.00
2025-11-18 13:04:51.141208,599619077225542721,-43.00
2025-11-18 13:04:51.141208,599619077225542721,-43.00
2025-11-18 13:04:51.141208,599619077225542721,-36.00
2025-11-18 13:04:51.141208,599619077225542721,-38.00
2025-11-18 13:04:51.141208,599619077225542721,-48.00
2025-11-18 13:04:51.141208,599619077225542721,-43.00
2025-11-18 13:04:51.141208,599619077225542721,-36.00
2025-11-18 13:04:51.141208,599619077225542721,-41.00
2025-11-18 13:04:51.141208,599619077225542721,-46.00
2025-11-18 13:04:51.141208,599619077225542721,-38.00
2025-11-18 13:04:51.141208,599619077225542721,-36.00
2025-11-18 13:04:51.141208,599619077225542721,-41.00
2025-11-18 13:04:51.141208,599619077225542721,-41.00
2025-11-18 13:04:51.141208,599619077225542721,-41.00
2025-11-18 13:04:51.141208,599619077225542721,-43.00
2025-11-18 13:04:51.141208,599619077225542721,-46.00
2025-11-18 13:04:51.141208,599619077225542721,-41.00
2025-11-18 13:04:51.141208,599619077225542721,-36.00
2025-11-18 13:04:51.141208,599619077225542721,-43.00
2025-11-18 13:04:51.141208,599619077225542721,-46.00
2025-11-18 13:04:51.141208,599619077225542721,-43.00
2025-11-18 13:04:51.141208,599619077225542721,-43.00
2025-11-18 13:04:51.141208,599619077225542721,-41.00
2025-11-18 13:04:51.141208,599619077225542721,-41.00
2025-11-18 13:04:51.141208,599619077225542721,-43.00
2025-11-18 13:04:51.141208,599619077225542721,-46.00
2025-11-18 13:04:51.141208,599619077225542721,-41.00
2025-11-18 13:04:51.141208,599619077225542721,-33.00
2025-11-18 13:04:51.141208,599619077225542721,-29.00
2025-11-18 13:04:51.141208,599619077225542721,-31.00
2025-11-18 13:04:51.680231,599619077786239762,-33.00
2025-11-18 13:04:51.680231,599619077786239762,-31.00
2025-11-18 13:04:51.680231,599619077786239762,-29.00
2025-11-18 13:04:51.680231,599619077786239762,-31.00
2025-11-18 13:04:51.680231,599619077786239762,-38.00
2025-11-18 13:04:51.680231,599619077786239762,-48.00
2025-11-18 13:04:51.680231,599619077786239762,-53.00
2025-11-18 13:04:51.680231,599619077786239762,-46.00
2025-11-18 13:04:51.680231,599619077786239762,-43.00
2025-11-18 13:04:51.680231,599619077786239762,-48.00
2025-11-18 13:04:51.680231,599619077786239762,-46.00
2025-11-18 13:04:51.680231,599619077786239762,-36.00
2025-11-18 13:04:51.680231,599619077786239762,-43.00
2025-11-18 13:04:51.680231,599619077786239762,-82.00
2025-11-18 13:04:51.680231,599619077786239762,-130.00
2025-11-18 13:04:51.680231,599619077786239762,-48.00
2025-11-18 13:04:51.680231,599619077786239762,349.00
2025-11-18 13:04:51.680231,599619077786239762,933.00
2025-11-18 13:04:51.680231,599619077786239762,1241.00
2025-11-18 13:04:51.680231,599619077786239762,858.00
2025-11-18 13:04:51.680231,599619077786239762,-9.00
2025-11-18 13:04:51.680231,599619077786239762,-431.00
2025-11-18 13:04:51.680231,599619077786239762,-177.00
2025-11-18 13:04:51.680231,599619077786239762,-46.00
2025-11-18 13:04:51.680231,599619077786239762,-172.00
2025-11-18 13:04:51.680231,599619077786239762,-147.00
2025-11-18 13:04:51.680231,599619077786239762,-80.00
2025-11-18 13:04:51.680231,599619077786239762,-116.00
2025-11-18 13:04:51.680231,599619077786239762,-113.00
2025-11-18 13:04:51.680231,599619077786239762,-70.00
2025-11-18 13:04:51.680231,599619077786239762,-72.00
2025-11-18 13:04:51.680231,599619077786239762,-77.00
2025-11-18 13:04:51.680231,599619077786239762,-63.00
2025-11-18 13:04:51.680231,599619077786239762,-60.00
2025-11-18 13:04:51.680231,599619077786239762,-65.00
2025-11-18 13:04:51.680231,599619077786239762,-50.00
2025-11-18 13:04:51.680231,599619077786239762,-36.00
2025-11-18 13:04:51.680231,599619077786239762,-36.00
2025-11-18 13:04:51.680231,599619077786239762,-26.00
2025-11-18 13:04:51.680231,599619077786239762,-4.00
2025-11-18 13:04:51.680231,599619077786239762,0.00
2025-11-18 13:04:51.680231,599619077786239762,4.00
2025-11-18 13:04:51.680231,599619077786239762,21.00
2025-11-18 13:04:51.680231,599619077786239762,26.00
2025-11-18 13:04:51.680231,599619077786239762,29.00
2025-11-18 13:04:51.680231,599619077786239762,58.00
2025-11-18 13:04:51.680231,599619077786239762,89.00
2025-11-18 13:04:51.680231,599619077786239762,101.00
2025-11-18 13:04:51.680231,599619077786239762,126.00
2025-11-18 13:04:51.680231,599619077786239762,150.00
2025-11-18 13:04:51.680231,599619077786239762,169.00
2025-11-18 13:04:51.680231,599619077786239762,198.00
2025-11-18 13:04:51.680231,599619077786239762,210.00
2025-11-18 13:04:51.680231,599619077786239762,186.00
2025-11-18 13:04:51.680231,599619077786239762,177.00
2025-11-18 13:04:51.680231,599619077786239762,179.00
2025-11-18 13:04:51.680231,599619077786239762,128.00
2025-11-18 13:04:51.680231,599619077786239762,70.00
2025-11-18 13:04:51.680231,599619077786239762,36.00
2025-11-18 13:04:51.680231,599619077786239762,-48.00
2025-11-18 13:04:51.680231,599619077786239762,-121.00
2025-11-18 13:04:51.680231,599619077786239762,-130.00
2025-11-18 13:04:51.680231,599619077786239762,-191.00
2025-11-18 13:04:51.680231,599619077786239762,-264.00
2025-11-18 13:04:51.680231,599619077786239762,-206.00
2025-11-18 13:04:51.680231,599619077786239762,-133.00
2025-11-18 13:04:51.680231,599619077786239762,-186.00
2025-11-18 13:04:51.680231,599619077786239762,-254.00
2025-11-18 13:04:51.680231,599619077786239762,-247.00
2025-11-18 13:04:51.680231,599619077786239762,-218.00
2025-11-18 13:04:51.680231,599619077786239762,-208.00
2025-11-18 13:04:51.680231,599619077786239762,-206.00
2025-11-18 13:04:51.680231,599619077786239762,-194.00
2025-11-18 13:04:52.219455,599619078346952061,-194.00
2025-11-18 13:04:52.219455,599619078346952061,-213.00
2025-11-18 13:04:52.219455,599619078346952061,-213.00
2025-11-18 13:04:52.219455,599619078346952061,-198.00
2025-11-18 13:04:52.219455,599619078346952061,-196.00
2025-11-18 13:04:52.219455,599619078346952061,-191.00
2025-11-18 13:04:52.219455,599619078346952061,-194.00
2025-11-18 13:04:52.219455,599619078346952061,-210.00
2025-11-18 13:04:52.219455,599619078346952061,-189.00
2025-11-18 13:04:52.219455,599619078346952061,-140.00
2025-11-18 13:04:52.219455,599619078346952061,-143.00
2025-11-18 13:04:52.219455,599619078346952061,-169.00
2025-11-18 13:04:52.219455,599619078346952061,-160.00
2025-11-18 13:04:52.219455,599619078346952061,-138.00
2025-11-18 13:04:52.219455,599619078346952061,-128.00
2025-11-18 13:04:52.219455,599619078346952061,-126.00
2025-11-18 13:04:52.219455,599619078346952061,-140.00
2025-11-18 13:04:52.219455,599619078346952061,-155.00
2025-11-18 13:04:52.219455,599619078346952061,-145.00
2025-11-18 13:04:52.219455,599619078346952061,-118.00
2025-11-18 13:04:52.219455,599619078346952061,-104.00
2025-11-18 13:04:52.219455,599619078346952061,-116.00
2025-11-18 13:04:52.219455,599619078346952061,-135.00
2025-11-18 13:04:52.219455,599619078346952061,-126.00
2025-11-18 13:04:52.219455,599619078346952061,-97.00
2025-11-18 13:04:52.219455,599619078346952061,-104.00
2025-11-18 13:04:52.219455,599619078346952061,-118.00
2025-11-18 13:04:52.219455,599619078346952061,-94.00
2025-11-18 13:04:52.219455,599619078346952061,-92.00
2025-11-18 13:04:52.219455,599619078346952061,-101.00
2025-11-18 13:04:52.219455,599619078346952061,-82.00
2025-11-18 13:04:52.219455,599619078346952061,-67.00
2025-11-18 13:04:52.219455,599619078346952061,-70.00
2025-11-18 13:04:52.219455,599619078346952061,-75.00
2025-11-18 13:04:52.219455,599619078346952061,-72.00
2025-11-18 13:04:52.219455,599619078346952061,-60.00
2025-11-18 13:04:52.219455,599619078346952061,-60.00
2025-11-18 13:04:52.219455,599619078346952061,-67.00
2025-11-18 13:04:52.219455,599619078346952061,-55.00
2025-11-18 13:04:52.219455,599619078346952061,-36.00
2025-11-18 13:04:52.219455,599619078346952061,-36.00
2025-11-18 13:04:52.219455,599619078346952061,-55.00
2025-11-18 13:04:52.219455,599619078346952061,-67.00
2025-11-18 13:04:52.219455,599619078346952061,-65.00
2025-11-18 13:04:52.219455,599619078346952061,-75.00
2025-11-18 13:04:52.219455,599619078346952061,-77.00
2025-11-18 13:04:52.219455,599619078346952061,-41.00
2025-11-18 13:04:52.219455,599619078346952061,-19.00
2025-11-18 13:04:52.219455,599619078346952061,-50.00
2025-11-18 13:04:52.219455,599619078346952061,-77.00
2025-11-18 13:04:52.219455,599619078346952061,-63.00
2025-11-18 13:04:52.219455,599619078346952061,-29.00
2025-11-18 13:04:52.219455,599619078346952061,-31.00
2025-11-18 13:04:52.219455,599619078346952061,-46.00
2025-11-18 13:04:52.219455,599619078346952061,-24.00
2025-11-18 13:04:52.219455,599619078346952061,-4.00
2025-11-18 13:04:52.219455,599619078346952061,-21.00
2025-11-18 13:04:52.219455,599619078346952061,-21.00
2025-11-18 13:04:52.219455,599619078346952061,-14.00
2025-11-18 13:04:52.219455,599619078346952061,-24.00
2025-11-18 13:04:52.219455,599619078346952061,-16.00
2025-11-18 13:04:52.219455,599619078346952061,-24.00
2025-11-18 13:04:52.219455,599619078346952061,-55.00
2025-11-18 13:04:52.219455,599619078346952061,-63.00
2025-11-18 13:04:52.219455,599619078346952061,-55.00
2025-11-18 13:04:52.219455,599619078346952061,-58.00
2025-11-18 13:04:52.219455,599619078346952061,-53.00
2025-11-18 13:04:52.219455,599619078346952061,-29.00
2025-11-18 13:04:52.219455,599619078346952061,-16.00
2025-11-18 13:04:52.219455,599619078346952061,-29.00
2025-11-18 13:04:52.219455,599619078346952061,-46.00
2025-11-18 13:04:52.219455,599619078346952061,-87.00
2025-11-18 13:04:52.219455,599619078346952061,-140.00
2025-11-18 13:04:52.790199,599619078907654188,-21.00
2025-11-18 13:04:52.790199,599619078907654188,412.00
2025-11-18 13:04:52.790199,599619078907654188,933.00
2025-11-18 13:04:52.790199,599619078907654188,1074.00
2025-11-18 13:04:52.790199,599619078907654188,545.00
2025-11-18 13:04:52.790199,599619078907654188,-225.00
2025-11-18 13:04:52.790199,599619078907654188,-412.00
2025-11-18 13:04:52.790199,599619078907654188,-128.00
2025-11-18 13:04:52.790199,599619078907654188,-60.00
2025-11-18 13:04:52.790199,599619078907654188,-138.00
2025-11-18 13:04:52.790199,599619078907654188,-106.00
2025-11-18 13:04:52.790199,599619078907654188,-89.00
2025-11-18 13:04:52.790199,599619078907654188,-111.00
2025-11-18 13:04:52.790199,599619078907654188,-101.00
2025-11-18 13:04:52.790199,599619078907654188,-97.00
2025-11-18 13:04:52.790199,599619078907654188,-87.00
2025-11-18 13:04:52.790199,599619078907654188,-63.00
2025-11-18 13:04:52.790199,599619078907654188,-82.00
2025-11-18 13:04:52.790199,599619078907654188,-80.00
2025-11-18 13:04:52.790199,599619078907654188,-38.00
2025-11-18 13:04:52.790199,599619078907654188,-46.00
2025-11-18 13:04:52.790199,599619078907654188,-67.00
2025-11-18 13:04:52.790199,599619078907654188,-36.00
2025-11-18 13:04:52.790199,599619078907654188,12.00
2025-11-18 13:04:52.790199,599619078907654188,14.00
2025-11-18 13:04:52.790199,599619078907654188,-4.00
2025-11-18 13:04:52.790199,599619078907654188,7.00
2025-11-18 13:04:52.790199,599619078907654188,12.00
2025-11-18 13:04:52.790199,599619078907654188,14.00
2025-11-18 13:04:52.790199,599619078907654188,31.00
2025-11-18 13:04:52.790199,599619078907654188,33.00
2025-11-18 13:04:52.790199,599619078907654188,70.00
2025-11-18 13:04:52.790199,599619078907654188,130.00
2025-11-18 13:04:52.790199,599619078907654188,121.00
2025-11-18 13:04:52.790199,599619078907654188,111.00
2025-11-18 13:04:52.790199,599619078907654188,167.00
2025-11-18 13:04:52.790199,599619078907654188,189.00
2025-11-18 13:04:52.790199,599619078907654188,155.00
2025-11-18 13:04:52.790199,599619078907654188,167.00
2025-11-18 13:04:52.790199,599619078907654188,203.00
2025-11-18 13:04:52.790199,599619078907654188,186.00
2025-11-18 13:04:52.790199,599619078907654188,133.00
2025-11-18 13:04:52.790199,599619078907654188,75.00
2025-11-18 13:04:52.790199,599619078907654188,21.00
2025-11-18 13:04:52.790199,599619078907654188,-33.00
2025-11-18 13:04:52.790199,599619078907654188,-109.00
2025-11-18 13:04:52.790199,599619078907654188,-174.00
2025-11-18 13:04:52.790199,599619078907654188,-160.00
2025-11-18 13:04:52.790199,599619078907654188,-118.00
2025-11-18 13:04:52.790199,599619078907654188,-128.00
2025-11-18 13:04:52.790199,599619078907654188,-133.00
2025-11-18 13:04:52.790199,599619078907654188,-121.00
2025-11-18 13:04:52.790199,599619078907654188,-138.00
2025-11-18 13:04:52.790199,599619078907654188,-150.00
2025-11-18 13:04:52.790199,599619078907654188,-147.00
2025-11-18 13:04:52.790199,599619078907654188,-152.00
2025-11-18 13:04:52.790199,599619078907654188,-133.00
2025-11-18 13:04:52.790199,599619078907654188,-113.00
2025-11-18 13:04:52.790199,599619078907654188,-130.00
2025-11-18 13:04:52.790199,599619078907654188,-118.00
2025-11-18 13:04:52.790199,599619078907654188,-75.00
2025-11-18 13:04:52.790199,599619078907654188,-58.00
2025-11-18 13:04:52.790199,599619078907654188,-75.00
2025-11-18 13:04:52.790199,599619078907654188,-101.00
2025-11-18 13:04:52.790199,599619078907654188,-111.00
2025-11-18 13:04:52.790199,599619078907654188,-109.00
2025-11-18 13:04:52.790199,599619078907654188,-109.00
2025-11-18 13:04:52.790199,599619078907654188,-109.00
2025-11-18 13:04:52.790199,599619078907654188,-87.00
2025-11-18 13:04:52.790199,599619078907654188,-60.00
2025-11-18 13:04:52.790199,599619078907654188,-75.00
2025-11-18 13:04:52.790199,599619078907654188,-92.00
2025-11-18 13:04:52.790199,599619078907654188,-72.00
2025-11-18 13:04:53.328255,599619079468361403,-55.00
2025-11-18 13:04:53.328255,599619079468361403,-84.00
2025-11-18 13:04:53.328255,599619079468361403,-126.00
2025-11-18 13:04:53.328255,599619079468361403,-94.00
2025-11-18 13:04:53.328255,599619079468361403,-38.00
2025-11-18 13:04:53.328255,599619079468361403,-70.00
2025-11-18 13:04:53.328255,599619079468361403,-106.00
2025-11-18 13:04:53.328255,599619079468361403,-48.00
2025-11-18 13:04:53.328255,599619079468361403,-9.00
2025-11-18 13:04:53.328255,599619079468361403,-58.00
2025-11-18 13:04:53.328255,599619079468361403,-89.00
2025-11-18 13:04:53.328255,599619079468361403,-63.00
2025-11-18 13:04:53.328255,599619079468361403,-48.00
2025-11-18 13:04:53.328255,599619079468361403,-67.00
2025-11-18 13:04:53.328255,599619079468361403,-75.00
2025-11-18 13:04:53.328255,599619079468361403,-72.00
2025-11-18 13:04:53.328255,599619079468361403,-75.00
2025-11-18 13:04:53.328255,599619079468361403,-46.00
2025-11-18 13:04:53.328255,599619079468361403,-4.00
2025-11-18 13:04:53.328255,599619079468361403,-4.00
2025-11-18 13:04:53.328255,599619079468361403,-31.00
2025-11-18 13:04:53.328255,599619079468361403,-36.00
2025-11-18 13:04:53.328255,599619079468361403,-31.00
2025-11-18 13:04:53.328255,599619079468361403,-55.00
2025-11-18 13:04:53.328255,599619079468361403,-77.00
2025-11-18 13:04:53.328255,599619079468361403,-63.00
2025-11-18 13:04:53.328255,599619079468361403,-41.00
2025-11-18 13:04:53.328255,599619079468361403,-12.00
2025-11-18 13:04:53.328255,599619079468361403,12.00
2025-11-18 13:04:53.328255,599619079468361403,-12.00
2025-11-18 13:04:53.328255,599619079468361403,-33.00
2025-11-18 13:04:53.328255,599619079468361403,-19.00
2025-11-18 13:04:53.328255,599619079468361403,-24.00
2025-11-18 13:04:53.328255,599619079468361403,-60.00
2025-11-18 13:04:53.328255,599619079468361403,-80.00
2025-11-18 13:04:53.328255,599619079468361403,-43.00
2025-11-18 13:04:53.328255,599619079468361403,14.00
2025-11-18 13:04:53.328255,599619079468361403,36.00
2025-11-18 13:04:53.328255,599619079468361403,12.00
2025-11-18 13:04:53.328255,599619079468361403,-2.00
2025-11-18 13:04:53.328255,599619079468361403,2.00
2025-11-18 13:04:53.328255,599619079468361403,-4.00
2025-11-18 13:04:53.328255,599619079468361403,-16.00
2025-11-18 13:04:53.328255,599619079468361403,-19.00
2025-11-18 13:04:53.328255,599619079468361403,-19.00
2025-11-18 13:04:53.328255,599619079468361403,-14.00
2025-11-18 13:04:53.328255,599619079468361403,-24.00
2025-11-18 13:04:53.328255,599619079468361403,-41.00
2025-11-18 13:04:53.328255,599619079468361403,-41.00
2025-11-18 13:04:53.328255,599619079468361403,-31.00
2025-11-18 13:04:53.328255,599619079468361403,-38.00
2025-11-18 13:04:53.328255,599619079468361403,-58.00
2025-11-18 13:04:53.328255,599619079468361403,-58.00
2025-11-18 13:04:53.328255,599619079468361403,-46.00
2025-11-18 13:04:53.328255,599619079468361403,-67.00
2025-11-18 13:04:53.328255,599619079468361403,-121.00
2025-11-18 13:04:53.328255,599619079468361403,-63.00
2025-11-18 13:04:53.328255,599619079468361403,252.00
2025-11-18 13:04:53.328255,599619079468361403,725.00
2025-11-18 13:04:53.328255,599619079468361403,1013.00
2025-11-18 13:04:53.328255,599619079468361403,766.00
2025-11-18 13:04:53.328255,599619079468361403,31.00
2025-11-18 13:04:53.328255,599619079468361403,-417.00
2025-11-18 13:04:53.328255,599619079468361403,-218.00
2025-11-18 13:04:53.328255,599619079468361403,-46.00
2025-11-18 13:04:53.328255,599619079468361403,-135.00
2025-11-18 13:04:53.328255,599619079468361403,-143.00
2025-11-18 13:04:53.328255,599619079468361403,-84.00
2025-11-18 13:04:53.328255,599619079468361403,-75.00
2025-11-18 13:04:53.328255,599619079468361403,-63.00
2025-11-18 13:04:53.328255,599619079468361403,-60.00
2025-11-18 13:04:53.328255,599619079468361403,-77.00
2025-11-18 13:04:53.328255,599619079468361403,-72.00
2025-11-18 13:04:53.899288,599619080029058444,-53.00
2025-11-18 13:04:53.899288,599619080029058444,-41.00
2025-11-18 13:04:53.899288,599619080029058444,-43.00
2025-11-18 13:04:53.899288,599619080029058444,-36.00
2025-11-18 13:04:53.899288,599619080029058444,-7.00
2025-11-18 13:04:53.899288,599619080029058444,2.00
2025-11-18 13:04:53.899288,599619080029058444,-12.00
2025-11-18 13:04:53.899288,599619080029058444,-2.00
2025-11-18 13:04:53.899288,599619080029058444,19.00
2025-11-18 13:04:53.899288,599619080029058444,9.00
2025-11-18 13:04:53.899288,599619080029058444,7.00
2025-11-18 13:04:53.899288,599619080029058444,36.00
2025-11-18 13:04:53.899288,599619080029058444,60.00
2025-11-18 13:04:53.899288,599619080029058444,58.00
2025-11-18 13:04:53.899288,599619080029058444,67.00
2025-11-18 13:04:53.899288,599619080029058444,101.00
2025-11-18 13:04:53.899288,599619080029058444,126.00
2025-11-18 13:04:53.899288,599619080029058444,143.00
2025-11-18 13:04:53.899288,599619080029058444,155.00
2025-11-18 13:04:53.899288,599619080029058444,169.00
2025-11-18 13:04:53.899288,599619080029058444,198.00
2025-11-18 13:04:53.899288,599619080029058444,225.00
2025-11-18 13:04:53.899288,599619080029058444,215.00
2025-11-18 13:04:53.899288,599619080029058444,174.00
2025-11-18 13:04:53.899288,599619080029058444,140.00
2025-11-18 13:04:53.899288,599619080029058444,123.00
2025-11-18 13:04:53.899288,599619080029058444,65.00
2025-11-18 13:04:53.899288,599619080029058444,-29.00
2025-11-18 13:04:53.899288,599619080029058444,-72.00
2025-11-18 13:04:53.899288,599619080029058444,-77.00
2025-11-18 13:04:53.899288,599619080029058444,-116.00
2025-11-18 13:04:53.899288,599619080029058444,-147.00
2025-11-18 13:04:53.899288,599619080029058444,-133.00
2025-11-18 13:04:53.899288,599619080029058444,-118.00
2025-11-18 13:04:53.899288,599619080029058444,-140.00
2025-11-18 13:04:53.899288,599619080029058444,-162.00
2025-11-18 13:04:53.899288,599619080029058444,-147.00
2025-11-18 13:04:53.899288,599619080029058444,-135.00
2025-11-18 13:04:53.899288,599619080029058444,-138.00
2025-11-18 13:04:53.899288,599619080029058444,-128.00
2025-11-18 13:04:53.899288,599619080029058444,-101.00
2025-11-18 13:04:53.899288,599619080029058444,-92.00
2025-11-18 13:04:53.899288,599619080029058444,-109.00
2025-11-18 13:04:53.899288,599619080029058444,-104.00
2025-11-18 13:04:53.899288,599619080029058444,-92.00
2025-11-18 13:04:53.899288,599619080029058444,-101.00
2025-11-18 13:04:53.899288,599619080029058444,-99.00
2025-11-18 13:04:53.899288,599619080029058444,-87.00
2025-11-18 13:04:53.899288,599619080029058444,-82.00
2025-11-18 13:04:53.899288,599619080029058444,-80.00
2025-11-18 13:04:53.899288,599619080029058444,-84.00
2025-11-18 13:04:53.899288,599619080029058444,-84.00
2025-11-18 13:04:53.899288,599619080029058444,-77.00
2025-11-18 13:04:53.899288,599619080029058444,-84.00
2025-11-18 13:04:53.899288,599619080029058444,-97.00
2025-11-18 13:04:53.899288,599619080029058444,-89.00
2025-11-18 13:04:53.899288,599619080029058444,-82.00
2025-11-18 13:04:53.899288,599619080029058444,-72.00
2025-11-18 13:04:53.899288,599619080029058444,-60.00
2025-11-18 13:04:53.899288,599619080029058444,-77.00
2025-11-18 13:04:53.899288,599619080029058444,-89.00
2025-11-18 13:04:53.899288,599619080029058444,-70.00
2025-11-18 13:04:53.899288,599619080029058444,-63.00
2025-11-18 13:04:53.899288,599619080029058444,-92.00
2025-11-18 13:04:53.899288,599619080029058444,-101.00
2025-11-18 13:04:53.899288,599619080029058444,-72.00
2025-11-18 13:04:53.899288,599619080029058444,-58.00
2025-11-18 13:04:53.899288,599619080029058444,-60.00
2025-11-18 13:04:53.899288,599619080029058444,-58.00
2025-11-18 13:04:53.899288,599619080029058444,-53.00
2025-11-18 13:04:53.899288,599619080029058444,-60.00
2025-11-18 13:04:53.899288,599619080029058444,-67.00
2025-11-18 13:04:53.899288,599619080029058444,-70.00
2025-11-18 13:04:54.498723,599619080589760573,-82.00
2025-11-18 13:04:54.498723,599619080589760573,-89.00
2025-11-18 13:04:54.498723,599619080589760573,-67.00
2025-11-18 13:04:54.498723,599619080589760573,-50.00
2025-11-18 13:04:54.498723,599619080589760573,-65.00
2025-11-18 13:04:54.498723,599619080589760573,-72.00
2025-11-18 13:04:54.498723,599619080589760573,-46.00
2025-11-18 13:04:54.498723,599619080589760573,-16.00
2025-11-18 13:04:54.498723,599619080589760573,-24.00
2025-11-18 13:04:54.498723,599619080589760573,-60.00
2025-11-18 13:04:54.498723,599619080589760573,-63.00
2025-11-18 13:04:54.498723,599619080589760573,-29.00
2025-11-18 13:04:54.498723,599619080589760573,-31.00
2025-11-18 13:04:54.498723,599619080589760573,-50.00
2025-11-18 13:04:54.498723,599619080589760573,-48.00
2025-11-18 13:04:54.498723,599619080589760573,-55.00
2025-11-18 13:04:54.498723,599619080589760573,-41.00
2025-11-18 13:04:54.498723,599619080589760573,-14.00
2025-11-18 13:04:54.498723,599619080589760573,-38.00
2025-11-18 13:04:54.498723,599619080589760573,-55.00
2025-11-18 13:04:54.498723,599619080589760573,-43.00
2025-11-18 13:04:54.498723,599619080589760573,-48.00
2025-11-18 13:04:54.498723,599619080589760573,-72.00
2025-11-18 13:04:54.498723,599619080589760573,-128.00
2025-11-18 13:04:54.498723,599619080589760573,-130.00
2025-11-18 13:04:54.498723,599619080589760573,123.00
2025-11-18 13:04:54.498723,599619080589760573,635.00
2025-11-18 13:04:54.498723,599619080589760573,1110.00
2025-11-18 13:04:54.498723,599619080589760573,1067.00
2025-11-18 13:04:54.498723,599619080589760573,286.00
2025-11-18 13:04:54.498723,599619080589760573,-434.00
2025-11-18 13:04:54.498723,599619080589760573,-341.00
2025-11-18 13:04:54.498723,599619080589760573,-70.00
2025-11-18 13:04:54.498723,599619080589760573,-126.00
2025-11-18 13:04:54.498723,599619080589760573,-143.00
2025-11-18 13:04:54.498723,599619080589760573,-80.00
2025-11-18 13:04:54.498723,599619080589760573,-111.00
2025-11-18 13:04:54.498723,599619080589760573,-126.00
2025-11-18 13:04:54.498723,599619080589760573,-75.00
2025-11-18 13:04:54.498723,599619080589760573,-65.00
2025-11-18 13:04:54.498723,599619080589760573,-89.00
2025-11-18 13:04:54.498723,599619080589760573,-82.00
2025-11-18 13:04:54.498723,599619080589760573,-55.00
2025-11-18 13:04:54.498723,599619080589760573,-48.00
2025-11-18 13:04:54.498723,599619080589760573,-53.00
2025-11-18 13:04:54.498723,599619080589760573,-41.00
2025-11-18 13:04:54.498723,599619080589760573,-16.00
2025-11-18 13:04:54.498723,599619080589760573,-4.00
2025-11-18 13:04:54.498723,599619080589760573,-9.00
2025-11-18 13:04:54.498723,599619080589760573,-9.00
2025-11-18 13:04:54.498723,599619080589760573,4.00
2025-11-18 13:04:54.498723,599619080589760573,26.00
2025-11-18 13:04:54.498723,599619080589760573,38.00
2025-11-18 13:04:54.498723,599619080589760573,43.00
2025-11-18 13:04:54.498723,599619080589760573,48.00
2025-11-18 13:04:54.498723,599619080589760573,55.00
2025-11-18 13:04:54.498723,599619080589760573,70.00
2025-11-18 13:04:54.498723,599619080589760573,104.00
2025-11-18 13:04:54.498723,599619080589760573,155.00
2025-11-18 13:04:54.498723,599619080589760573,174.00
2025-11-18 13:04:54.498723,599619080589760573,174.00
2025-11-18 13:04:54.498723,599619080589760573,198.00
2025-11-18 13:04:54.498723,599619080589760573,218.00
2025-11-18 13:04:54.498723,599619080589760573,201.00
2025-11-18 13:04:54.498723,599619080589760573,167.00
2025-11-18 13:04:54.498723,599619080589760573,143.00
2025-11-18 13:04:54.498723,599619080589760573,118.00
2025-11-18 13:04:54.498723,599619080589760573,46.00
2025-11-18 13:04:54.498723,599619080589760573,-33.00
2025-11-18 13:04:54.498723,599619080589760573,-63.00
2025-11-18 13:04:54.498723,599619080589760573,-92.00
2025-11-18 13:04:54.498723,599619080589760573,-140.00
2025-11-18 13:04:54.498723,599619080589760573,-164.00
2025-11-18 13:04:55.051032,599619081150483046,-172.00
2025-11-18 13:04:55.051032,599619081150483046,-179.00
2025-11-18 13:04:55.051032,599619081150483046,-169.00
2025-11-18 13:04:55.051032,599619081150483046,-157.00
2025-11-18 13:04:55.051032,599619081150483046,-160.00
2025-11-18 13:04:55.051032,599619081150483046,-140.00
2025-11-18 13:04:55.051032,599619081150483046,-109.00
2025-11-18 13:04:55.051032,599619081150483046,-109.00
2025-11-18 13:04:55.051032,599619081150483046,-123.00
2025-11-18 13:04:55.051032,599619081150483046,-113.00
2025-11-18 13:04:55.051032,599619081150483046,-97.00
2025-11-18 13:04:55.051032,599619081150483046,-99.00
2025-11-18 13:04:55.051032,599619081150483046,-111.00
2025-11-18 13:04:55.051032,599619081150483046,-116.00
2025-11-18 13:04:55.051032,599619081150483046,-109.00
2025-11-18 13:04:55.051032,599619081150483046,-82.00
2025-11-18 13:04:55.051032,599619081150483046,-75.00
2025-11-18 13:04:55.051032,599619081150483046,-121.00
2025-11-18 13:04:55.051032,599619081150483046,-113.00
2025-11-18 13:04:55.051032,599619081150483046,-36.00
2025-11-18 13:04:55.051032,599619081150483046,-46.00
2025-11-18 13:04:55.051032,599619081150483046,-106.00
2025-11-18 13:04:55.051032,599619081150483046,-77.00
2025-11-18 13:04:55.051032,599619081150483046,-43.00
2025-11-18 13:04:55.051032,599619081150483046,-84.00
2025-11-18 13:04:55.051032,599619081150483046,-109.00
2025-11-18 13:04:55.051032,599619081150483046,-82.00
2025-11-18 13:04:55.051032,599619081150483046,-58.00
2025-11-18 13:04:55.051032,599619081150483046,-60.00
2025-11-18 13:04:55.051032,599619081150483046,-72.00
2025-11-18 13:04:55.051032,599619081150483046,-55.00
2025-11-18 13:04:55.051032,599619081150483046,-43.00
2025-11-18 13:04:55.051032,599619081150483046,-67.00
2025-11-18 13:04:55.051032,599619081150483046,-72.00
2025-11-18 13:04:55.051032,599619081150483046,-65.00
2025-11-18 13:04:55.051032,599619081150483046,-87.00
2025-11-18 13:04:55.051032,599619081150483046,-99.00
2025-11-18 13:04:55.051032,599619081150483046,-77.00
2025-11-18 13:04:55.051032,599619081150483046,-55.00
2025-11-18 13:04:55.051032,599619081150483046,-38.00
2025-11-18 13:04:55.051032,599619081150483046,-24.00
2025-11-18 13:04:55.051032,599619081150483046,-24.00
2025-11-18 13:04:55.051032,599619081150483046,-36.00
2025-11-18 13:04:55.051032,599619081150483046,-48.00
2025-11-18 13:04:55.051032,599619081150483046,-53.00
2025-11-18 13:04:55.051032,599619081150483046,-60.00
2025-11-18 13:04:55.051032,599619081150483046,-67.00
2025-11-18 13:04:55.051032,599619081150483046,-58.00
2025-11-18 13:04:55.051032,599619081150483046,-36.00
2025-11-18 13:04:55.051032,599619081150483046,-31.00
2025-11-18 13:04:55.051032,599619081150483046,-36.00
2025-11-18 13:04:55.051032,599619081150483046,-31.00
2025-11-18 13:04:55.051032,599619081150483046,-33.00
2025-11-18 13:04:55.051032,599619081150483046,-36.00
2025-11-18 13:04:55.051032,599619081150483046,-33.00
2025-11-18 13:04:55.051032,599619081150483046,-41.00
2025-11-18 13:04:55.051032,599619081150483046,-53.00
2025-11-18 13:04:55.051032,599619081150483046,-31.00
2025-11-18 13:04:55.051032,599619081150483046,12.00
2025-11-18 13:04:55.051032,599619081150483046,7.00
2025-11-18 13:04:55.051032,599619081150483046,-19.00
2025-11-18 13:04:55.051032,599619081150483046,-7.00
2025-11-18 13:04:55.051032,599619081150483046,7.00
2025-11-18 13:04:55.051032,599619081150483046,-4.00
2025-11-18 13:04:55.051032,599619081150483046,-21.00
2025-11-18 13:04:55.051032,599619081150483046,-43.00
2025-11-18 13:04:55.051032,599619081150483046,-43.00
2025-11-18 13:04:55.051032,599619081150483046,-9.00
2025-11-18 13:04:55.051032,599619081150483046,0.00
2025-11-18 13:04:55.051032,599619081150483046,-31.00
2025-11-18 13:04:55.051032,599619081150483046,-31.00
2025-11-18 13:04:55.051032,599619081150483046,-4.00
2025-11-18 13:04:55.051032,599619081150483046,-7.00
2025-11-18 13:04:55.608340,599619081711180087,-38.00
2025-11-18 13:04:55.608340,599619081711180087,-84.00
2025-11-18 13:04:55.608340,599619081711180087,-43.00
2025-11-18 13:04:55.608340,599619081711180087,266.00
2025-11-18 13:04:55.608340,599619081711180087,778.00
2025-11-18 13:04:55.608340,599619081711180087,1130.00
2025-11-18 13:04:55.608340,599619081711180087,919.00
2025-11-18 13:04:55.608340,599619081711180087,133.00
2025-11-18 13:04:55.608340,599619081711180087,-412.00
2025-11-18 13:04:55.608340,599619081711180087,-232.00
2025-11-18 13:04:55.608340,599619081711180087,-21.00
2025-11-18 13:04:55.608340,599619081711180087,-104.00
2025-11-18 13:04:55.608340,599619081711180087,-116.00
2025-11-18 13:04:55.608340,599619081711180087,-65.00
2025-11-18 13:04:55.608340,599619081711180087,-87.00
2025-11-18 13:04:55.608340,599619081711180087,-75.00
2025-11-18 13:04:55.608340,599619081711180087,-26.00
2025-11-18 13:04:55.608340,599619081711180087,-41.00
2025-11-18 13:04:55.608340,599619081711180087,-60.00
2025-11-18 13:04:55.608340,599619081711180087,-38.00
2025-11-18 13:04:55.608340,599619081711180087,-29.00
2025-11-18 13:04:55.608340,599619081711180087,-31.00
2025-11-18 13:04:55.608340,599619081711180087,-26.00
2025-11-18 13:04:55.608340,599619081711180087,-33.00
2025-11-18 13:04:55.608340,599619081711180087,-55.00
2025-11-18 13:04:55.608340,599619081711180087,-21.00
2025-11-18 13:04:55.608340,599619081711180087,43.00
2025-11-18 13:04:55.608340,599619081711180087,53.00
2025-11-18 13:04:55.608340,599619081711180087,31.00
2025-11-18 13:04:55.608340,599619081711180087,38.00
2025-11-18 13:04:55.608340,599619081711180087,50.00
2025-11-18 13:04:55.608340,599619081711180087,50.00
2025-11-18 13:04:55.608340,599619081711180087,48.00
2025-11-18 13:04:55.608340,599619081711180087,58.00
2025-11-18 13:04:55.608340,599619081711180087,87.00
2025-11-18 13:04:55.608340,599619081711180087,143.00
2025-11-18 13:04:55.608340,599619081711180087,189.00
2025-11-18 13:04:55.608340,599619081711180087,189.00
2025-11-18 13:04:55.608340,599619081711180087,191.00
2025-11-18 13:04:55.608340,599619081711180087,215.00
2025-11-18 13:04:55.608340,599619081711180087,213.00
2025-11-18 13:04:55.608340,599619081711180087,191.00
2025-11-18 13:04:55.608340,599619081711180087,172.00
2025-11-18 13:04:55.608340,599619081711180087,140.00
2025-11-18 13:04:55.608340,599619081711180087,111.00
2025-11-18 13:04:55.608340,599619081711180087,67.00
2025-11-18 13:04:55.608340,599619081711180087,-2.00
2025-11-18 13:04:55.608340,599619081711180087,-60.00
2025-11-18 13:04:55.608340,599619081711180087,-94.00
2025-11-18 13:04:55.608340,599619081711180087,-130.00
2025-11-18 13:04:55.608340,599619081711180087,-143.00
2025-11-18 13:04:55.608340,599619081711180087,-138.00
2025-11-18 13:04:55.608340,599619081711180087,-155.00
2025-11-18 13:04:55.608340,599619081711180087,-155.00
2025-11-18 13:04:55.608340,599619081711180087,-123.00
2025-11-18 13:04:55.608340,599619081711180087,-126.00
2025-11-18 13:04:55.608340,599619081711180087,-150.00
2025-11-18 13:04:55.608340,599619081711180087,-118.00
2025-11-18 13:04:55.608340,599619081711180087,-87.00
2025-11-18 13:04:55.608340,599619081711180087,-118.00
2025-11-18 13:04:55.608340,599619081711180087,-155.00
2025-11-18 13:04:55.608340,599619081711180087,-135.00
2025-11-18 13:04:55.608340,599619081711180087,-89.00
2025-11-18 13:04:55.608340,599619081711180087,-72.00
2025-11-18 13:04:55.608340,599619081711180087,-97.00
2025-11-18 13:04:55.608340,599619081711180087,-123.00
2025-11-18 13:04:55.608340,599619081711180087,-113.00
2025-11-18 13:04:55.608340,599619081711180087,-77.00
2025-11-18 13:04:55.608340,599619081711180087,-75.00
2025-11-18 13:04:55.608340,599619081711180087,-99.00
2025-11-18 13:04:55.608340,599619081711180087,-106.00
2025-11-18 13:04:55.608340,599619081711180087,-92.00
2025-11-18 13:04:55.608340,599619081711180087,-80.00
2025-11-18 13:04:56.147495,599619082271877128,-82.00
2025-11-18 13:04:56.147495,599619082271877128,-84.00
2025-11-18 13:04:56.147495,599619082271877128,-75.00
2025-11-18 13:04:56.147495,599619082271877128,-60.00
2025-11-18 13:04:56.147495,599619082271877128,-55.00
2025-11-18 13:04:56.147495,599619082271877128,-72.00
2025-11-18 13:04:56.147495,599619082271877128,-87.00
2025-11-18 13:04:56.147495,599619082271877128,-82.00
2025-11-18 13:04:56.147495,599619082271877128,-77.00
2025-11-18 13:04:56.147495,599619082271877128,-77.00
2025-11-18 13:04:56.147495,599619082271877128,-60.00
2025-11-18 13:04:56.147495,599619082271877128,-41.00
2025-11-18 13:04:56.147495,599619082271877128,-41.00
2025-11-18 13:04:56.147495,599619082271877128,-58.00
2025-11-18 13:04:56.147495,599619082271877128,-60.00
2025-11-18 13:04:56.147495,599619082271877128,-53.00
2025-11-18 13:04:56.147495,599619082271877128,-63.00
2025-11-18 13:04:56.147495,599619082271877128,-67.00
2025-11-18 13:04:56.147495,599619082271877128,-46.00
2025-11-18 13:04:56.147495,599619082271877128,-43.00
2025-11-18 13:04:56.147495,599619082271877128,-65.00
2025-11-18 13:04:56.147495,599619082271877128,-65.00
2025-11-18 13:04:56.147495,599619082271877128,-41.00
2025-11-18 13:04:56.147495,599619082271877128,-26.00
2025-11-18 13:04:56.147495,599619082271877128,-43.00
2025-11-18 13:04:56.147495,599619082271877128,-53.00
2025-11-18 13:04:56.147495,599619082271877128,-33.00
2025-11-18 13:04:56.147495,599619082271877128,-24.00
2025-11-18 13:04:56.147495,599619082271877128,-46.00
2025-11-18 13:04:56.147495,599619082271877128,-55.00
2025-11-18 13:04:56.147495,599619082271877128,-43.00
2025-11-18 13:04:56.147495,599619082271877128,-36.00
2025-11-18 13:04:56.147495,599619082271877128,-41.00
2025-11-18 13:04:56.147495,599619082271877128,-41.00
2025-11-18 13:04:56.147495,599619082271877128,-36.00
2025-11-18 13:04:56.147495,599619082271877128,-29.00
2025-11-18 13:04:56.147495,599619082271877128,-24.00
2025-11-18 13:04:56.147495,599619082271877128,-24.00
2025-11-18 13:04:56.147495,599619082271877128,-31.00
2025-11-18 13:04:56.147495,599619082271877128,-26.00
2025-11-18 13:04:56.147495,599619082271877128,-21.00
2025-11-18 13:04:56.147495,599619082271877128,-19.00
2025-11-18 13:04:56.147495,599619082271877128,-26.00
2025-11-18 13:04:56.147495,599619082271877128,-26.00
2025-11-18 13:04:56.147495,599619082271877128,-24.00
2025-11-18 13:04:56.147495,599619082271877128,-24.00
2025-11-18 13:04:56.147495,599619082271877128,-4.00
2025-11-18 13:04:56.147495,599619082271877128,21.00
2025-11-18 13:04:56.147495,599619082271877128,14.00
2025-11-18 13:04:56.147495,599619082271877128,-12.00
2025-11-18 13:04:56.147495,599619082271877128,-19.00
2025-11-18 13:04:56.147495,599619082271877128,-21.00
2025-11-18 13:04:56.147495,599619082271877128,-33.00
2025-11-18 13:04:56.147495,599619082271877128,-41.00
2025-11-18 13:04:56.147495,599619082271877128,-31.00
2025-11-18 13:04:56.147495,599619082271877128,-24.00
2025-11-18 13:04:56.147495,599619082271877128,-36.00
2025-11-18 13:04:56.147495,599619082271877128,-67.00
2025-11-18 13:04:56.147495,599619082271877128,-82.00
2025-11-18 13:04:56.147495,599619082271877128,70.00
2025-11-18 13:04:56.147495,599619082271877128,485.00
2025-11-18 13:04:56.147495,599619082271877128,948.00
2025-11-18 13:04:56.147495,599619082271877128,1042.00
2025-11-18 13:04:56.147495,599619082271877128,504.00
2025-11-18 13:04:56.147495,599619082271877128,-247.00
2025-11-18 13:04:56.147495,599619082271877128,-385.00
2025-11-18 13:04:56.147495,599619082271877128,-82.00
2025-11-18 13:04:56.147495,599619082271877128,-46.00
2025-11-18 13:04:56.147495,599619082271877128,-140.00
2025-11-18 13:04:56.147495,599619082271877128,-75.00
2025-11-18 13:04:56.147495,599619082271877128,-26.00
2025-11-18 13:04:56.147495,599619082271877128,-63.00
2025-11-18 13:04:56.147495,599619082271877128,-67.00
2025-11-18 13:04:56.689446,599619082832574169,-48.00
2025-11-18 13:04:56.689446,599619082832574169,-53.00
2025-11-18 13:04:56.689446,599619082832574169,-50.00
2025-11-18 13:04:56.689446,599619082832574169,-29.00
2025-11-18 13:04:56.689446,599619082832574169,0.00
2025-11-18 13:04:56.689446,599619082832574169,14.00
2025-11-18 13:04:56.689446,599619082832574169,9.00
2025-11-18 13:04:56.689446,599619082832574169,9.00
2025-11-18 13:04:56.689446,599619082832574169,16.00
2025-11-18 13:04:56.689446,599619082832574169,29.00
2025-11-18 13:04:56.689446,599619082832574169,26.00
2025-11-18 13:04:56.689446,599619082832574169,24.00
2025-11-18 13:04:56.689446,599619082832574169,36.00
2025-11-18 13:04:56.689446,599619082832574169,55.00
2025-11-18 13:04:56.689446,599619082832574169,67.00
2025-11-18 13:04:56.689446,599619082832574169,77.00
2025-11-18 13:04:56.689446,599619082832574169,97.00
2025-11-18 13:04:56.689446,599619082832574169,126.00
2025-11-18 13:04:56.689446,599619082832574169,143.00
2025-11-18 13:04:56.689446,599619082832574169,143.00
2025-11-18 13:04:56.689446,599619082832574169,150.00
2025-11-18 13:04:56.689446,599619082832574169,167.00
2025-11-18 13:04:56.689446,599619082832574169,177.00
2025-11-18 13:04:56.689446,599619082832574169,186.00
2025-11-18 13:04:56.689446,599619082832574169,206.00
2025-11-18 13:04:56.689446,599619082832574169,206.00
2025-11-18 13:04:56.689446,599619082832574169,184.00
2025-11-18 13:04:56.689446,599619082832574169,152.00
2025-11-18 13:04:56.689446,599619082832574169,97.00
2025-11-18 13:04:56.689446,599619082832574169,21.00
2025-11-18 13:04:56.689446,599619082832574169,-41.00
2025-11-18 13:04:56.689446,599619082832574169,-87.00
2025-11-18 13:04:56.689446,599619082832574169,-130.00
2025-11-18 13:04:56.689446,599619082832574169,-164.00
2025-11-18 13:04:56.689446,599619082832574169,-169.00
2025-11-18 13:04:56.689446,599619082832574169,-145.00
2025-11-18 13:04:56.689446,599619082832574169,-126.00
2025-11-18 13:04:56.689446,599619082832574169,-123.00
2025-11-18 13:04:56.689446,599619082832574169,-128.00
2025-11-18 13:04:56.689446,599619082832574169,-130.00
2025-11-18 13:04:56.689446,599619082832574169,-133.00
2025-11-18 13:04:56.689446,599619082832574169,-133.00
2025-11-18 13:04:56.689446,599619082832574169,-135.00
2025-11-18 13:04:56.689446,599619082832574169,-138.00
2025-11-18 13:04:56.689446,599619082832574169,-121.00
2025-11-18 13:04:56.689446,599619082832574169,-99.00
2025-11-18 13:04:56.689446,599619082832574169,-106.00
2025-11-18 13:04:56.689446,599619082832574169,-106.00
2025-11-18 13:04:56.689446,599619082832574169,-77.00
2025-11-18 13:04:56.689446,599619082832574169,-67.00
2025-11-18 13:04:56.689446,599619082832574169,-84.00
2025-11-18 13:04:56.689446,599619082832574169,-94.00
2025-11-18 13:04:56.689446,599619082832574169,-101.00
2025-11-18 13:04:56.689446,599619082832574169,-113.00
2025-11-18 13:04:56.689446,599619082832574169,-113.00
2025-11-18 13:04:56.689446,599619082832574169,-94.00
2025-11-18 13:04:56.689446,599619082832574169,-70.00
2025-11-18 13:04:56.689446,599619082832574169,-75.00
2025-11-18 13:04:56.689446,599619082832574169,-89.00
2025-11-18 13:04:56.689446,599619082832574169,-80.00
2025-11-18 13:04:56.689446,599619082832574169,-77.00
2025-11-18 13:04:56.689446,599619082832574169,-80.00
2025-11-18 13:04:56.689446,599619082832574169,-75.00
2025-11-18 13:04:56.689446,599619082832574169,-87.00
2025-11-18 13:04:56.689446,599619082832574169,-99.00
2025-11-18 13:04:56.689446,599619082832574169,-89.00
2025-11-18 13:04:56.689446,599619082832574169,-70.00
2025-11-18 13:04:56.689446,599619082832574169,-65.00
2025-11-18 13:04:56.689446,599619082832574169,-80.00
2025-11-18 13:04:56.689446,599619082832574169,-82.00
2025-11-18 13:04:56.689446,599619082832574169,-65.00
2025-11-18 13:04:56.689446,599619082832574169,-53.00
2025-11-18 13:04:56.689446,599619082832574169,-58.00
2025-11-18 13:04:57.258249,599619083393271210,-67.00
2025-11-18 13:04:57.258249,599619083393271210,-55.00
2025-11-18 13:04:57.258249,599619083393271210,-36.00
2025-11-18 13:04:57.258249,599619083393271210,-48.00
2025-11-18 13:04:57.258249,599619083393271210,-55.00
2025-11-18 13:04:57.258249,599619083393271210,-43.00
2025-11-18 13:04:57.258249,599619083393271210,-46.00
2025-11-18 13:04:57.258249,599619083393271210,-58.00
2025-11-18 13:04:57.258249,599619083393271210,-43.00
2025-11-18 13:04:57.258249,599619083393271210,-24.00
2025-11-18 13:04:57.258249,599619083393271210,-19.00
2025-11-18 13:04:57.258249,599619083393271210,-21.00
2025-11-18 13:04:57.258249,599619083393271210,-24.00
2025-11-18 13:04:57.258249,599619083393271210,-29.00
2025-11-18 13:04:57.258249,599619083393271210,-33.00
2025-11-18 13:04:57.258249,599619083393271210,-33.00
2025-11-18 13:04:57.258249,599619083393271210,-31.00
2025-11-18 13:04:57.258249,599619083393271210,-36.00
2025-11-18 13:04:57.258249,599619083393271210,-31.00
2025-11-18 13:04:57.258249,599619083393271210,2.00
2025-11-18 13:04:57.258249,599619083393271210,19.00
2025-11-18 13:04:57.258249,599619083393271210,7.00
2025-11-18 13:04:57.258249,599619083393271210,-4.00
2025-11-18 13:04:57.258249,599619083393271210,-12.00
2025-11-18 13:04:57.258249,599619083393271210,-21.00
2025-11-18 13:04:57.258249,599619083393271210,-31.00
2025-11-18 13:04:57.258249,599619083393271210,-46.00
2025-11-18 13:04:57.258249,599619083393271210,-38.00
2025-11-18 13:04:57.258249,599619083393271210,-29.00
2025-11-18 13:04:57.258249,599619083393271210,-31.00
2025-11-18 13:04:57.258249,599619083393271210,-14.00
2025-11-18 13:04:57.258249,599619083393271210,2.00
2025-11-18 13:04:57.258249,599619083393271210,-21.00
2025-11-18 13:04:57.258249,599619083393271210,-60.00
2025-11-18 13:04:57.258249,599619083393271210,-65.00
2025-11-18 13:04:57.258249,599619083393271210,104.00
2025-11-18 13:04:57.258249,599619083393271210,560.00
2025-11-18 13:04:57.258249,599619083393271210,1086.00
2025-11-18 13:04:57.258249,599619083393271210,1147.00
2025-11-18 13:04:57.258249,599619083393271210,458.00
2025-11-18 13:04:57.258249,599619083393271210,-324.00
2025-11-18 13:04:57.258249,599619083393271210,-366.00
2025-11-18 13:04:57.258249,599619083393271210,-58.00
2025-11-18 13:04:57.258249,599619083393271210,-43.00
2025-11-18 13:04:57.258249,599619083393271210,-97.00
2025-11-18 13:04:57.258249,599619083393271210,-50.00
2025-11-18 13:04:57.258249,599619083393271210,-43.00
2025-11-18 13:04:57.258249,599619083393271210,-46.00
2025-11-18 13:04:57.258249,599619083393271210,-4.00
2025-11-18 13:04:57.258249,599619083393271210,14.00
2025-11-18 13:04:57.258249,599619083393271210,2.00
2025-11-18 13:04:57.258249,599619083393271210,-2.00
2025-11-18 13:04:57.258249,599619083393271210,-2.00
2025-11-18 13:04:57.258249,599619083393271210,-2.00
2025-11-18 13:04:57.258249,599619083393271210,-9.00
2025-11-18 13:04:57.258249,599619083393271210,-24.00
2025-11-18 13:04:57.258249,599619083393271210,-31.00
2025-11-18 13:04:57.258249,599619083393271210,-21.00
2025-11-18 13:04:57.258249,599619083393271210,-21.00
2025-11-18 13:04:57.258249,599619083393271210,-29.00
2025-11-18 13:04:57.258249,599619083393271210,-16.00
2025-11-18 13:04:57.258249,599619083393271210,21.00
2025-11-18 13:04:57.258249,599619083393271210,43.00
2025-11-18 13:04:57.258249,599619083393271210,31.00
2025-11-18 13:04:57.258249,599619083393271210,21.00
2025-11-18 13:04:57.258249,599619083393271210,38.00
2025-11-18 13:04:57.258249,599619083393271210,63.00
2025-11-18 13:04:57.258249,599619083393271210,80.00
2025-11-18 13:04:57.258249,599619083393271210,94.00
2025-11-18 13:04:57.258249,599619083393271210,130.00
2025-11-18 13:04:57.258249,599619083393271210,177.00
2025-11-18 13:04:57.258249,599619083393271210,181.00
2025-11-18 13:04:57.258249,599619083393271210,162.00
2025-11-18 13:04:57.857687,599619083953968253,169.00
2025-11-18 13:04:57.857687,599619083953968253,172.00
2025-11-18 13:04:57.857687,599619083953968253,130.00
2025-11-18 13:04:57.857687,599619083953968253,75.00
2025-11-18 13:04:57.857687,599619083953968253,2.00
2025-11-18 13:04:57.857687,599619083953968253,-87.00
2025-11-18 13:04:57.857687,599619083953968253,-162.00
2025-11-18 13:04:57.857687,599619083953968253,-213.00
2025-11-18 13:04:57.857687,599619083953968253,-240.00
2025-11-18 13:04:57.857687,599619083953968253,-244.00
2025-11-18 13:04:57.857687,599619083953968253,-240.00
2025-11-18 13:04:57.857687,599619083953968253,-235.00
2025-11-18 13:04:57.857687,599619083953968253,-225.00
2025-11-18 13:04:57.857687,599619083953968253,-201.00
2025-11-18 13:04:57.857687,599619083953968253,-191.00
2025-11-18 13:04:57.857687,599619083953968253,-203.00
2025-11-18 13:04:57.857687,599619083953968253,-210.00
2025-11-18 13:04:57.857687,599619083953968253,-186.00
2025-11-18 13:04:57.857687,599619083953968253,-150.00
2025-11-18 13:04:57.857687,599619083953968253,-143.00
2025-11-18 13:04:57.857687,599619083953968253,-169.00
2025-11-18 13:04:57.857687,599619083953968253,-174.00
2025-11-18 13:04:57.857687,599619083953968253,-147.00
2025-11-18 13:04:57.857687,599619083953968253,-133.00
2025-11-18 13:04:57.857687,599619083953968253,-140.00
2025-11-18 13:04:57.857687,599619083953968253,-150.00
2025-11-18 13:04:57.857687,599619083953968253,-152.00
2025-11-18 13:04:57.857687,599619083953968253,-160.00
2025-11-18 13:04:57.857687,599619083953968253,-174.00
2025-11-18 13:04:57.857687,599619083953968253,-172.00
2025-11-18 13:04:57.857687,599619083953968253,-162.00
2025-11-18 13:04:57.857687,599619083953968253,-169.00
2025-11-18 13:04:57.857687,599619083953968253,-189.00
2025-11-18 13:04:57.857687,599619083953968253,-181.00
2025-11-18 13:04:57.857687,599619083953968253,-162.00
2025-11-18 13:04:57.857687,599619083953968253,-162.00
2025-11-18 13:04:57.857687,599619083953968253,-164.00
2025-11-18 13:04:57.857687,599619083953968253,-155.00
2025-11-18 13:04:57.857687,599619083953968253,-167.00
2025-11-18 13:04:57.857687,599619083953968253,-189.00
2025-11-18 13:04:57.857687,599619083953968253,-194.00
2025-11-18 13:04:57.857687,599619083953968253,-191.00
2025-11-18 13:04:57.857687,599619083953968253,-186.00
2025-11-18 13:04:57.857687,599619083953968253,-191.00
2025-11-18 13:04:57.857687,599619083953968253,-203.00
2025-11-18 13:04:57.857687,599619083953968253,-194.00
2025-11-18 13:04:57.857687,599619083953968253,-167.00
2025-11-18 13:04:57.857687,599619083953968253,-164.00
2025-11-18 13:04:57.857687,599619083953968253,-186.00
2025-11-18 13:04:57.857687,599619083953968253,-189.00
2025-11-18 13:04:57.857687,599619083953968253,-181.00
2025-11-18 13:04:57.857687,599619083953968253,-186.00
2025-11-18 13:04:57.857687,599619083953968253,-194.00
2025-11-18 13:04:57.857687,599619083953968253,-201.00
2025-11-18 13:04:57.857687,599619083953968253,-208.00
2025-11-18 13:04:57.857687,599619083953968253,-203.00
2025-11-18 13:04:57.857687,599619083953968253,-184.00
2025-11-18 13:04:57.857687,599619083953968253,-169.00
2025-11-18 13:04:57.857687,599619083953968253,-164.00
2025-11-18 13:04:57.857687,599619083953968253,-160.00
2025-11-18 13:04:57.857687,599619083953968253,-157.00
2025-11-18 13:04:57.857687,599619083953968253,-155.00
2025-11-18 13:04:57.857687,599619083953968253,-157.00
2025-11-18 13:04:57.857687,599619083953968253,-162.00
2025-11-18 13:04:57.857687,599619083953968253,-172.00
2025-11-18 13:04:57.857687,599619083953968253,-186.00
2025-11-18 13:04:57.857687,599619083953968253,-198.00
2025-11-18 13:04:57.857687,599619083953968253,-198.00
2025-11-18 13:04:57.857687,599619083953968253,-189.00
2025-11-18 13:04:57.857687,599619083953968253,-174.00
2025-11-18 13:04:57.857687,599619083953968253,-174.00
2025-11-18 13:04:57.857687,599619083953968253,-184.00
2025-11-18 13:04:57.857687,599619083953968253,-174.00
2025-11-18 13:04:58.427600,599619084514675466,-169.00
2025-11-18 13:04:58.427600,599619084514675466,-215.00
2025-11-18 13:04:58.427600,599619084514675466,-198.00
2025-11-18 13:04:58.427600,599619084514675466,84.00
2025-11-18 13:04:58.427600,599619084514675466,640.00
2025-11-18 13:04:58.427600,599619084514675466,1105.00
2025-11-18 13:04:58.427600,599619084514675466,938.00
2025-11-18 13:04:58.427600,599619084514675466,43.00
2025-11-18 13:04:58.427600,599619084514675466,-652.00
2025-11-18 13:04:58.427600,599619084514675466,-472.00
2025-11-18 13:04:58.427600,599619084514675466,-162.00
2025-11-18 13:04:58.427600,599619084514675466,-247.00
2025-11-18 13:04:58.427600,599619084514675466,-295.00
2025-11-18 13:04:58.427600,599619084514675466,-201.00
2025-11-18 13:04:58.427600,599619084514675466,-198.00
2025-11-18 13:04:58.427600,599619084514675466,-244.00
2025-11-18 13:04:58.427600,599619084514675466,-225.00
2025-11-18 13:04:58.427600,599619084514675466,-181.00
2025-11-18 13:04:58.427600,599619084514675466,-164.00
2025-11-18 13:04:58.427600,599619084514675466,-177.00
2025-11-18 13:04:58.427600,599619084514675466,-177.00
2025-11-18 13:04:58.427600,599619084514675466,-140.00
2025-11-18 13:04:58.427600,599619084514675466,-116.00
2025-11-18 13:04:58.427600,599619084514675466,-126.00
2025-11-18 13:04:58.427600,599619084514675466,-123.00
2025-11-18 13:04:58.427600,599619084514675466,-101.00
2025-11-18 13:04:58.427600,599619084514675466,-101.00
2025-11-18 13:04:58.427600,599619084514675466,-109.00
2025-11-18 13:04:58.427600,599619084514675466,-80.00
2025-11-18 13:04:58.427600,599619084514675466,-36.00
2025-11-18 13:04:58.427600,599619084514675466,-24.00
2025-11-18 13:04:58.427600,599619084514675466,-26.00
2025-11-18 13:04:58.427600,599619084514675466,-16.00
2025-11-18 13:04:58.427600,599619084514675466,16.00
2025-11-18 13:04:58.427600,599619084514675466,67.00
2025-11-18 13:04:58.427600,599619084514675466,89.00
2025-11-18 13:04:58.427600,599619084514675466,94.00
2025-11-18 13:04:58.427600,599619084514675466,118.00
2025-11-18 13:04:58.427600,599619084514675466,133.00
2025-11-18 13:04:58.427600,599619084514675466,147.00
2025-11-18 13:04:58.427600,599619084514675466,172.00
2025-11-18 13:04:58.427600,599619084514675466,179.00
2025-11-18 13:04:58.427600,599619084514675466,164.00
2025-11-18 13:04:58.427600,599619084514675466,126.00
2025-11-18 13:04:58.427600,599619084514675466,46.00
2025-11-18 13:04:58.427600,599619084514675466,-43.00
2025-11-18 13:04:58.427600,599619084514675466,-106.00
2025-11-18 13:04:58.427600,599619084514675466,-155.00
2025-11-18 13:04:58.427600,599619084514675466,-198.00
2025-11-18 13:04:58.427600,599619084514675466,-225.00
2025-11-18 13:04:58.427600,599619084514675466,-230.00
2025-11-18 13:04:58.427600,599619084514675466,-230.00
2025-11-18 13:04:58.427600,599619084514675466,-235.00
2025-11-18 13:04:58.427600,599619084514675466,-215.00
2025-11-18 13:04:58.427600,599619084514675466,-179.00
2025-11-18 13:04:58.427600,599619084514675466,-172.00
2025-11-18 13:04:58.427600,599619084514675466,-186.00
2025-11-18 13:04:58.427600,599619084514675466,-184.00
2025-11-18 13:04:58.427600,599619084514675466,-179.00
2025-11-18 13:04:58.427600,599619084514675466,-181.00
2025-11-18 13:04:58.427600,599619084514675466,-174.00
2025-11-18 13:04:58.427600,599619084514675466,-169.00
2025-11-18 13:04:58.427600,599619084514675466,-172.00
2025-11-18 13:04:58.427600,599619084514675466,-140.00
2025-11-18 13:04:58.427600,599619084514675466,-97.00
2025-11-18 13:04:58.427600,599619084514675466,-106.00
2025-11-18 13:04:58.427600,599619084514675466,-133.00
2025-11-18 13:04:58.427600,599619084514675466,-128.00
2025-11-18 13:04:58.427600,599619084514675466,-128.00
2025-11-18 13:04:58.427600,599619084514675466,-140.00
2025-11-18 13:04:58.427600,599619084514675466,-135.00
2025-11-18 13:04:58.427600,599619084514675466,-128.00
2025-11-18 13:04:58.427600,599619084514675466,-116.00
2025-11-18 13:04:58.968691,599619085075392853,-92.00
2025-11-18 13:04:58.968691,599619085075392853,-87.00
2025-11-18 13:04:58.968691,599619085075392853,-104.00
2025-11-18 13:04:58.968691,599619085075392853,-113.00
2025-11-18 13:04:58.968691,599619085075392853,-111.00
2025-11-18 13:04:58.968691,599619085075392853,-113.00
2025-11-18 13:04:58.968691,599619085075392853,-116.00
2025-11-18 13:04:58.968691,599619085075392853,-113.00
2025-11-18 13:04:58.968691,599619085075392853,-109.00
2025-11-18 13:04:58.968691,599619085075392853,-106.00
2025-11-18 13:04:58.968691,599619085075392853,-109.00
2025-11-18 13:04:58.968691,599619085075392853,-109.00
2025-11-18 13:04:58.968691,599619085075392853,-104.00
2025-11-18 13:04:58.968691,599619085075392853,-106.00
2025-11-18 13:04:58.968691,599619085075392853,-99.00
2025-11-18 13:04:58.968691,599619085075392853,-94.00
2025-11-18 13:04:58.968691,599619085075392853,-109.00
2025-11-18 13:04:58.968691,599619085075392853,-123.00
2025-11-18 13:04:58.968691,599619085075392853,-121.00
2025-11-18 13:04:58.968691,599619085075392853,-106.00
2025-11-18 13:04:58.968691,599619085075392853,-97.00
2025-11-18 13:04:58.968691,599619085075392853,-97.00
2025-11-18 13:04:58.968691,599619085075392853,-87.00
2025-11-18 13:04:58.968691,599619085075392853,-92.00
2025-11-18 13:04:58.968691,599619085075392853,-111.00
2025-11-18 13:04:58.968691,599619085075392853,-101.00
2025-11-18 13:04:58.968691,599619085075392853,-87.00
2025-11-18 13:04:58.968691,599619085075392853,-101.00
2025-11-18 13:04:58.968691,599619085075392853,-101.00
2025-11-18 13:04:58.968691,599619085075392853,-84.00
2025-11-18 13:04:58.968691,599619085075392853,-72.00
2025-11-18 13:04:58.968691,599619085075392853,-77.00
2025-11-18 13:04:58.968691,599619085075392853,-97.00
2025-11-18 13:04:58.968691,599619085075392853,-101.00
2025-11-18 13:04:58.968691,599619085075392853,-82.00
2025-11-18 13:04:58.968691,599619085075392853,-60.00
2025-11-18 13:04:58.968691,599619085075392853,-50.00
2025-11-18 13:04:58.968691,599619085075392853,-53.00
2025-11-18 13:04:58.968691,599619085075392853,-53.00
2025-11-18 13:04:58.968691,599619085075392853,-50.00
2025-11-18 13:04:58.968691,599619085075392853,-58.00
2025-11-18 13:04:58.968691,599619085075392853,-70.00
2025-11-18 13:04:58.968691,599619085075392853,-75.00
2025-11-18 13:04:58.968691,599619085075392853,-50.00
2025-11-18 13:04:58.968691,599619085075392853,-19.00
2025-11-18 13:04:58.968691,599619085075392853,-16.00
2025-11-18 13:04:58.968691,599619085075392853,-36.00
2025-11-18 13:04:58.968691,599619085075392853,-50.00
2025-11-18 13:04:58.968691,599619085075392853,-50.00
2025-11-18 13:04:58.968691,599619085075392853,-53.00
2025-11-18 13:04:58.968691,599619085075392853,-77.00
2025-11-18 13:04:58.968691,599619085075392853,-84.00
2025-11-18 13:04:58.968691,599619085075392853,-55.00
2025-11-18 13:04:58.968691,599619085075392853,-41.00
2025-11-18 13:04:58.968691,599619085075392853,-53.00
2025-11-18 13:04:58.968691,599619085075392853,-80.00
2025-11-18 13:04:58.968691,599619085075392853,-118.00
2025-11-18 13:04:58.968691,599619085075392853,-60.00
2025-11-18 13:04:58.968691,599619085075392853,261.00
2025-11-18 13:04:58.968691,599619085075392853,793.00
2025-11-18 13:04:58.968691,599619085075392853,1185.00
2025-11-18 13:04:58.968691,599619085075392853,955.00
2025-11-18 13:04:58.968691,599619085075392853,70.00
2025-11-18 13:04:58.968691,599619085075392853,-514.00
2025-11-18 13:04:58.968691,599619085075392853,-266.00
2025-11-18 13:04:58.968691,599619085075392853,-21.00
2025-11-18 13:04:58.968691,599619085075392853,-145.00
2025-11-18 13:04:58.968691,599619085075392853,-167.00
2025-11-18 13:04:58.968691,599619085075392853,-80.00
2025-11-18 13:04:58.968691,599619085075392853,-75.00
2025-11-18 13:04:58.968691,599619085075392853,-80.00
2025-11-18 13:04:58.968691,599619085075392853,-67.00
2025-11-18 13:04:58.968691,599619085075392853,-72.00
2025-11-18 13:04:59.507561,599619085636089894,-82.00
2025-11-18 13:04:59.507561,599619085636089894,-75.00
2025-11-18 13:04:59.507561,599619085636089894,-60.00
2025-11-18 13:04:59.507561,599619085636089894,-36.00
2025-11-18 13:04:59.507561,599619085636089894,-19.00
2025-11-18 13:04:59.507561,599619085636089894,-16.00
2025-11-18 13:04:59.507561,599619085636089894,-14.00
2025-11-18 13:04:59.507561,599619085636089894,-21.00
2025-11-18 13:04:59.507561,599619085636089894,-29.00
2025-11-18 13:04:59.507561,599619085636089894,-19.00
2025-11-18 13:04:59.507561,599619085636089894,21.00
2025-11-18 13:04:59.507561,599619085636089894,55.00
2025-11-18 13:04:59.507561,599619085636089894,50.00
2025-11-18 13:04:59.507561,599619085636089894,43.00
2025-11-18 13:04:59.507561,599619085636089894,67.00
2025-11-18 13:04:59.507561,599619085636089894,109.00
2025-11-18 13:04:59.507561,599619085636089894,133.00
2025-11-18 13:04:59.507561,599619085636089894,145.00
2025-11-18 13:04:59.507561,599619085636089894,164.00
2025-11-18 13:04:59.507561,599619085636089894,174.00
2025-11-18 13:04:59.507561,599619085636089894,191.00
2025-11-18 13:04:59.507561,599619085636089894,240.00
2025-11-18 13:04:59.507561,599619085636089894,266.00
2025-11-18 13:04:59.507561,599619085636089894,232.00
2025-11-18 13:04:59.507561,599619085636089894,203.00
