Timestamp,Device Timestamp (ns),ECG Value (uV)
2025-11-18 12:45:37.857316,599617923895502220,-38.00
2025-11-18 12:45:37.857316,599617923895502220,-41.00
2025-11-18 12:45:37.857316,599617923895502220,-38.00
2025-11-18 12:45:37.857316,599617923895502220,-26.00
2025-11-18 12:45:37.857316,599617923895502220,-24.00
2025-11-18 12:45:37.857316,599617923895502220,-31.00
2025-11-18 12:45:37.857316,599617923895502220,-26.00
2025-11-18 12:45:37.857316,599617923895502220,-24.00
2025-11-18 12:45:37.857316,599617923895502220,-29.00
2025-11-18 12:45:37.857316,599617923895502220,-38.00
2025-11-18 12:45:37.857316,599617923895502220,-43.00
2025-11-18 12:45:37.857316,599617923895502220,-48.00
2025-11-18 12:45:37.857316,599617923895502220,-50.00
2025-11-18 12:45:37.857316,599617923895502220,-53.00
2025-11-18 12:45:37.857316,599617923895502220,-53.00
2025-11-18 12:45:37.857316,599617923895502220,-53.00
2025-11-18 12:45:37.857316,599617923895502220,-46.00
2025-11-18 12:45:37.857316,599617923895502220,-48.00
2025-11-18 12:45:37.857316,599617923895502220,-80.00
2025-11-18 12:45:37.857316,599617923895502220,-121.00
2025-11-18 12:45:37.857316,599617923895502220,-48.00
2025-11-18 12:45:37.857316,599617923895502220,305.00
2025-11-18 12:45:37.857316,599617923895502220,853.00
2025-11-18 12:45:37.857316,599617923895502220,1176.00
2025-11-18 12:45:37.857316,599617923895502220,824.00
2025-11-18 12:45:37.857316,599617923895502220,-53.00
2025-11-18 12:45:37.857316,599617923895502220,-492.00
2025-11-18 12:45:37.857316,599617923895502220,-208.00
2025-11-18 12:45:37.857316,599617923895502220,-48.00
2025-11-18 12:45:37.857316,599617923895502220,-177.00
2025-11-18 12:45:37.857316,599617923895502220,-155.00
2025-11-18 12:45:37.857316,599617923895502220,-80.00
2025-11-18 12:45:37.857316,599617923895502220,-109.00
2025-11-18 12:45:37.857316,599617923895502220,-113.00
2025-11-18 12:45:37.857316,599617923895502220,-77.00
2025-11-18 12:45:37.857316,599617923895502220,-72.00
2025-11-18 12:45:37.857316,599617923895502220,-72.00
2025-11-18 12:45:37.857316,599617923895502220,-60.00
2025-11-18 12:45:37.857316,599617923895502220,-55.00
2025-11-18 12:45:37.857316,599617923895502220,-50.00
2025-11-18 12:45:37.857316,599617923895502220,-43.00
2025-11-18 12:45:37.857316,599617923895502220,-41.00
2025-11-18 12:45:37.857316,599617923895502220,-29.00
2025-11-18 12:45:37.857316,599617923895502220,-16.00
2025-11-18 12:45:37.857316,599617923895502220,-9.00
2025-11-18 12:45:37.857316,599617923895502220,-2.00
2025-11-18 12:45:37.857316,599617923895502220,9.00
2025-11-18 12:45:37.857316,599617923895502220,21.00
2025-11-18 12:45:37.857316,599617923895502220,31.00
2025-11-18 12:45:37.857316,599617923895502220,43.00
2025-11-18 12:45:37.857316,599617923895502220,60.00
2025-11-18 12:45:37.857316,599617923895502220,77.00
2025-11-18 12:45:37.857316,599617923895502220,97.00
2025-11-18 12:45:37.857316,599617923895502220,118.00
2025-11-18 12:45:37.857316,599617923895502220,143.00
2025-11-18 12:45:37.857316,599617923895502220,164.00
2025-11-18 12:45:37.857316,599617923895502220,179.00
2025-11-18 12:45:37.857316,599617923895502220,189.00
2025-11-18 12:45:37.857316,599617923895502220,191.00
2025-11-18 12:45:37.857316,599617923895502220,191.00
2025-11-18 12:45:37.857316,599617923895502220,184.00
2025-11-18 12:45:37.857316,599617923895502220,157.00
2025-11-18 12:45:37.857316,599617923895502220,101.00
2025-11-18 12:45:37.857316,599617923895502220,41.00
2025-11-18 12:45:37.857316,599617923895502220,-9.00
2025-11-18 12:45:37.857316,599617923895502220,-60.00
2025-11-18 12:45:37.857316,599617923895502220,-109.00
2025-11-18 12:45:37.857316,599617923895502220,-140.00
2025-11-18 12:45:37.857316,599617923895502220,-152.00
2025-11-18 12:45:37.857316,599617923895502220,-160.00
2025-11-18 12:45:37.857316,599617923895502220,-164.00
2025-11-18 12:45:37.857316,599617923895502220,-167.00
2025-11-18 12:45:37.857316,599617923895502220,-155.00
2025-11-18 12:45:38.371104,599617924456168743,-145.00
2025-11-18 12:45:38.371104,599617924456168743,-140.00
2025-11-18 12:45:38.371104,599617924456168743,-140.00
2025-11-18 12:45:38.371104,599617924456168743,-135.00
2025-11-18 12:45:38.371104,599617924456168743,-128.00
2025-11-18 12:45:38.371104,599617924456168743,-123.00
2025-11-18 12:45:38.371104,599617924456168743,-118.00
2025-11-18 12:45:38.371104,599617924456168743,-111.00
2025-11-18 12:45:38.371104,599617924456168743,-104.00
2025-11-18 12:45:38.371104,599617924456168743,-104.00
2025-11-18 12:45:38.371104,599617924456168743,-101.00
2025-11-18 12:45:38.371104,599617924456168743,-99.00
2025-11-18 12:45:38.371104,599617924456168743,-99.00
2025-11-18 12:45:38.371104,599617924456168743,-101.00
2025-11-18 12:45:38.371104,599617924456168743,-99.00
2025-11-18 12:45:38.371104,599617924456168743,-97.00
2025-11-18 12:45:38.371104,599617924456168743,-97.00
2025-11-18 12:45:38.371104,599617924456168743,-94.00
2025-11-18 12:45:38.371104,599617924456168743,-89.00
2025-11-18 12:45:38.371104,599617924456168743,-87.00
2025-11-18 12:45:38.371104,599617924456168743,-87.00
2025-11-18 12:45:38.371104,599617924456168743,-84.00
2025-11-18 12:45:38.371104,599617924456168743,-87.00
2025-11-18 12:45:38.371104,599617924456168743,-89.00
2025-11-18 12:45:38.371104,599617924456168743,-87.00
2025-11-18 12:45:38.371104,599617924456168743,-84.00
2025-11-18 12:45:38.371104,599617924456168743,-84.00
2025-11-18 12:45:38.371104,599617924456168743,-84.00
2025-11-18 12:45:38.371104,599617924456168743,-80.00
2025-11-18 12:45:38.371104,599617924456168743,-70.00
2025-11-18 12:45:38.371104,599617924456168743,-65.00
2025-11-18 12:45:38.371104,599617924456168743,-65.00
2025-11-18 12:45:38.371104,599617924456168743,-67.00
2025-11-18 12:45:38.371104,599617924456168743,-67.00
2025-11-18 12:45:38.371104,599617924456168743,-67.00
2025-11-18 12:45:38.371104,599617924456168743,-70.00
2025-11-18 12:45:38.371104,599617924456168743,-72.00
2025-11-18 12:45:38.371104,599617924456168743,-70.00
2025-11-18 12:45:38.371104,599617924456168743,-63.00
2025-11-18 12:45:38.371104,599617924456168743,-63.00
2025-11-18 12:45:38.371104,599617924456168743,-67.00
2025-11-18 12:45:38.371104,599617924456168743,-63.00
2025-11-18 12:45:38.371104,599617924456168743,-55.00
2025-11-18 12:45:38.371104,599617924456168743,-58.00
2025-11-18 12:45:38.371104,599617924456168743,-60.00
2025-11-18 12:45:38.371104,599617924456168743,-58.00
2025-11-18 12:45:38.371104,599617924456168743,-58.00
2025-11-18 12:45:38.371104,599617924456168743,-55.00
2025-11-18 12:45:38.371104,599617924456168743,-55.00
2025-11-18 12:45:38.371104,599617924456168743,-58.00
2025-11-18 12:45:38.371104,599617924456168743,-58.00
2025-11-18 12:45:38.371104,599617924456168743,-53.00
2025-11-18 12:45:38.371104,599617924456168743,-55.00
2025-11-18 12:45:38.371104,599617924456168743,-50.00
2025-11-18 12:45:38.371104,599617924456168743,-48.00
2025-11-18 12:45:38.371104,599617924456168743,-50.00
2025-11-18 12:45:38.371104,599617924456168743,-53.00
2025-11-18 12:45:38.371104,599617924456168743,-50.00
2025-11-18 12:45:38.371104,599617924456168743,-50.00
2025-11-18 12:45:38.371104,599617924456168743,-53.00
2025-11-18 12:45:38.371104,599617924456168743,-53.00
2025-11-18 12:45:38.371104,599617924456168743,-48.00
2025-11-18 12:45:38.371104,599617924456168743,-46.00
2025-11-18 12:45:38.371104,599617924456168743,-43.00
2025-11-18 12:45:38.371104,599617924456168743,-41.00
2025-11-18 12:45:38.371104,599617924456168743,-41.00
2025-11-18 12:45:38.371104,599617924456168743,-38.00
2025-11-18 12:45:38.371104,599617924456168743,-33.00
2025-11-18 12:45:38.371104,599617924456168743,-31.00
2025-11-18 12:45:38.371104,599617924456168743,-29.00
2025-11-18 12:45:38.371104,599617924456168743,-24.00
2025-11-18 12:45:38.371104,599617924456168743,-26.00
2025-11-18 12:45:38.371104,599617924456168743,-38.00
2025-11-18 12:45:38.997974,599617925016865784,-46.00
2025-11-18 12:45:38.997974,599617925016865784,-48.00
2025-11-18 12:45:38.997974,599617925016865784,-50.00
2025-11-18 12:45:38.997974,599617925016865784,-46.00
2025-11-18 12:45:38.997974,599617925016865784,-46.00
2025-11-18 12:45:38.997974,599617925016865784,-53.00
2025-11-18 12:45:38.997974,599617925016865784,-50.00
2025-11-18 12:45:38.997974,599617925016865784,-41.00
2025-11-18 12:45:38.997974,599617925016865784,-53.00
2025-11-18 12:45:38.997974,599617925016865784,-104.00
2025-11-18 12:45:38.997974,599617925016865784,-121.00
2025-11-18 12:45:38.997974,599617925016865784,80.00
2025-11-18 12:45:38.997974,599617925016865784,567.00
2025-11-18 12:45:38.997974,599617925016865784,1062.00
2025-11-18 12:45:38.997974,599617925016865784,1071.00
2025-11-18 12:45:38.997974,599617925016865784,351.00
2025-11-18 12:45:38.997974,599617925016865784,-414.00
2025-11-18 12:45:38.997974,599617925016865784,-392.00
2025-11-18 12:45:38.997974,599617925016865784,-80.00
2025-11-18 12:45:38.997974,599617925016865784,-118.00
2025-11-18 12:45:38.997974,599617925016865784,-179.00
2025-11-18 12:45:38.997974,599617925016865784,-97.00
2025-11-18 12:45:38.997974,599617925016865784,-87.00
2025-11-18 12:45:38.997974,599617925016865784,-116.00
2025-11-18 12:45:38.997974,599617925016865784,-89.00
2025-11-18 12:45:38.997974,599617925016865784,-67.00
2025-11-18 12:45:38.997974,599617925016865784,-77.00
2025-11-18 12:45:38.997974,599617925016865784,-70.00
2025-11-18 12:45:38.997974,599617925016865784,-53.00
2025-11-18 12:45:38.997974,599617925016865784,-48.00
2025-11-18 12:45:38.997974,599617925016865784,-46.00
2025-11-18 12:45:38.997974,599617925016865784,-33.00
2025-11-18 12:45:38.997974,599617925016865784,-26.00
2025-11-18 12:45:38.997974,599617925016865784,-21.00
2025-11-18 12:45:38.997974,599617925016865784,-14.00
2025-11-18 12:45:38.997974,599617925016865784,-4.00
2025-11-18 12:45:38.997974,599617925016865784,7.00
2025-11-18 12:45:38.997974,599617925016865784,19.00
2025-11-18 12:45:38.997974,599617925016865784,29.00
2025-11-18 12:45:38.997974,599617925016865784,38.00
2025-11-18 12:45:38.997974,599617925016865784,58.00
2025-11-18 12:45:38.997974,599617925016865784,80.00
2025-11-18 12:45:38.997974,599617925016865784,99.00
2025-11-18 12:45:38.997974,599617925016865784,113.00
2025-11-18 12:45:38.997974,599617925016865784,130.00
2025-11-18 12:45:38.997974,599617925016865784,155.00
2025-11-18 12:45:38.997974,599617925016865784,177.00
2025-11-18 12:45:38.997974,599617925016865784,198.00
2025-11-18 12:45:38.997974,599617925016865784,213.00
2025-11-18 12:45:38.997974,599617925016865784,208.00
2025-11-18 12:45:38.997974,599617925016865784,196.00
2025-11-18 12:45:38.997974,599617925016865784,179.00
2025-11-18 12:45:38.997974,599617925016865784,138.00
2025-11-18 12:45:38.997974,599617925016865784,75.00
2025-11-18 12:45:38.997974,599617925016865784,14.00
2025-11-18 12:45:38.997974,599617925016865784,-46.00
2025-11-18 12:45:38.997974,599617925016865784,-99.00
2025-11-18 12:45:38.997974,599617925016865784,-128.00
2025-11-18 12:45:38.997974,599617925016865784,-145.00
2025-11-18 12:45:38.997974,599617925016865784,-160.00
2025-11-18 12:45:38.997974,599617925016865784,-167.00
2025-11-18 12:45:38.997974,599617925016865784,-162.00
2025-11-18 12:45:38.997974,599617925016865784,-157.00
2025-11-18 12:45:38.997974,599617925016865784,-157.00
2025-11-18 12:45:38.997974,599617925016865784,-152.00
2025-11-18 12:45:38.997974,599617925016865784,-138.00
2025-11-18 12:45:38.997974,599617925016865784,-133.00
2025-11-18 12:45:38.997974,599617925016865784,-135.00
2025-11-18 12:45:38.997974,599617925016865784,-128.00
2025-11-18 12:45:38.997974,599617925016865784,-116.00
2025-11-18 12:45:38.997974,599617925016865784,-113.00
2025-11-18 12:45:38.997974,599617925016865784,-118.00
2025-11-18 12:45:38.997974,599617925016865784,-113.00
2025-11-18 12:45:39.479125,599617925577532307,-106.00
2025-11-18 12:45:39.479125,599617925577532307,-104.00
2025-11-18 12:45:39.479125,599617925577532307,-101.00
2025-11-18 12:45:39.479125,599617925577532307,-99.00
2025-11-18 12:45:39.479125,599617925577532307,-94.00
2025-11-18 12:45:39.479125,599617925577532307,-92.00
2025-11-18 12:45:39.479125,599617925577532307,-97.00
2025-11-18 12:45:39.479125,599617925577532307,-97.00
2025-11-18 12:45:39.479125,599617925577532307,-92.00
2025-11-18 12:45:39.479125,599617925577532307,-89.00
2025-11-18 12:45:39.479125,599617925577532307,-92.00
2025-11-18 12:45:39.479125,599617925577532307,-92.00
2025-11-18 12:45:39.479125,599617925577532307,-89.00
2025-11-18 12:45:39.479125,599617925577532307,-87.00
2025-11-18 12:45:39.479125,599617925577532307,-87.00
2025-11-18 12:45:39.479125,599617925577532307,-84.00
2025-11-18 12:45:39.479125,599617925577532307,-84.00
2025-11-18 12:45:39.479125,599617925577532307,-84.00
2025-11-18 12:45:39.479125,599617925577532307,-80.00
2025-11-18 12:45:39.479125,599617925577532307,-72.00
2025-11-18 12:45:39.479125,599617925577532307,-70.00
2025-11-18 12:45:39.479125,599617925577532307,-75.00
2025-11-18 12:45:39.479125,599617925577532307,-75.00
2025-11-18 12:45:39.479125,599617925577532307,-72.00
2025-11-18 12:45:39.479125,599617925577532307,-72.00
2025-11-18 12:45:39.479125,599617925577532307,-70.00
2025-11-18 12:45:39.479125,599617925577532307,-70.00
2025-11-18 12:45:39.479125,599617925577532307,-67.00
2025-11-18 12:45:39.479125,599617925577532307,-63.00
2025-11-18 12:45:39.479125,599617925577532307,-65.00
2025-11-18 12:45:39.479125,599617925577532307,-67.00
2025-11-18 12:45:39.479125,599617925577532307,-65.00
2025-11-18 12:45:39.479125,599617925577532307,-65.00
2025-11-18 12:45:39.479125,599617925577532307,-63.00
2025-11-18 12:45:39.479125,599617925577532307,-63.00
2025-11-18 12:45:39.479125,599617925577532307,-63.00
2025-11-18 12:45:39.479125,599617925577532307,-55.00
2025-11-18 12:45:39.479125,599617925577532307,-50.00
2025-11-18 12:45:39.479125,599617925577532307,-58.00
2025-11-18 12:45:39.479125,599617925577532307,-55.00
2025-11-18 12:45:39.479125,599617925577532307,-53.00
2025-11-18 12:45:39.479125,599617925577532307,-55.00
2025-11-18 12:45:39.479125,599617925577532307,-53.00
2025-11-18 12:45:39.479125,599617925577532307,-50.00
2025-11-18 12:45:39.479125,599617925577532307,-50.00
2025-11-18 12:45:39.479125,599617925577532307,-38.00
2025-11-18 12:45:39.479125,599617925577532307,-33.00
2025-11-18 12:45:39.479125,599617925577532307,-38.00
2025-11-18 12:45:39.479125,599617925577532307,-41.00
2025-11-18 12:45:39.479125,599617925577532307,-33.00
2025-11-18 12:45:39.479125,599617925577532307,-29.00
2025-11-18 12:45:39.479125,599617925577532307,-33.00
2025-11-18 12:45:39.479125,599617925577532307,-46.00
2025-11-18 12:45:39.479125,599617925577532307,-53.00
2025-11-18 12:45:39.479125,599617925577532307,-58.00
2025-11-18 12:45:39.479125,599617925577532307,-63.00
2025-11-18 12:45:39.479125,599617925577532307,-58.00
2025-11-18 12:45:39.479125,599617925577532307,-55.00
2025-11-18 12:45:39.479125,599617925577532307,-60.00
2025-11-18 12:45:39.479125,599617925577532307,-55.00
2025-11-18 12:45:39.479125,599617925577532307,-60.00
2025-11-18 12:45:39.479125,599617925577532307,-101.00
2025-11-18 12:45:39.479125,599617925577532307,-135.00
2025-11-18 12:45:39.479125,599617925577532307,21.00
2025-11-18 12:45:39.479125,599617925577532307,487.00
2025-11-18 12:45:39.479125,599617925577532307,1035.00
2025-11-18 12:45:39.479125,599617925577532307,1183.00
2025-11-18 12:45:39.479125,599617925577532307,577.00
2025-11-18 12:45:39.479125,599617925577532307,-293.00
2025-11-18 12:45:39.479125,599617925577532307,-468.00
2025-11-18 12:45:39.479125,599617925577532307,-130.00
2025-11-18 12:45:39.479125,599617925577532307,-92.00
2025-11-18 12:45:39.479125,599617925577532307,-198.00
2025-11-18 12:45:40.055008,599617926138198830,-130.00
2025-11-18 12:45:40.055008,599617926138198830,-92.00
2025-11-18 12:45:40.055008,599617926138198830,-130.00
2025-11-18 12:45:40.055008,599617926138198830,-111.00
2025-11-18 12:45:40.055008,599617926138198830,-82.00
2025-11-18 12:45:40.055008,599617926138198830,-84.00
2025-11-18 12:45:40.055008,599617926138198830,-82.00
2025-11-18 12:45:40.055008,599617926138198830,-70.00
2025-11-18 12:45:40.055008,599617926138198830,-63.00
2025-11-18 12:45:40.055008,599617926138198830,-53.00
2025-11-18 12:45:40.055008,599617926138198830,-43.00
2025-11-18 12:45:40.055008,599617926138198830,-41.00
2025-11-18 12:45:40.055008,599617926138198830,-33.00
2025-11-18 12:45:40.055008,599617926138198830,-19.00
2025-11-18 12:45:40.055008,599617926138198830,-9.00
2025-11-18 12:45:40.055008,599617926138198830,-4.00
2025-11-18 12:45:40.055008,599617926138198830,2.00
2025-11-18 12:45:40.055008,599617926138198830,16.00
2025-11-18 12:45:40.055008,599617926138198830,31.00
2025-11-18 12:45:40.055008,599617926138198830,48.00
2025-11-18 12:45:40.055008,599617926138198830,65.00
2025-11-18 12:45:40.055008,599617926138198830,87.00
2025-11-18 12:45:40.055008,599617926138198830,109.00
2025-11-18 12:45:40.055008,599617926138198830,130.00
2025-11-18 12:45:40.055008,599617926138198830,152.00
2025-11-18 12:45:40.055008,599617926138198830,172.00
2025-11-18 12:45:40.055008,599617926138198830,189.00
2025-11-18 12:45:40.055008,599617926138198830,198.00
2025-11-18 12:45:40.055008,599617926138198830,201.00
2025-11-18 12:45:40.055008,599617926138198830,196.00
2025-11-18 12:45:40.055008,599617926138198830,169.00
2025-11-18 12:45:40.055008,599617926138198830,118.00
2025-11-18 12:45:40.055008,599617926138198830,58.00
2025-11-18 12:45:40.055008,599617926138198830,-7.00
2025-11-18 12:45:40.055008,599617926138198830,-63.00
2025-11-18 12:45:40.055008,599617926138198830,-109.00
2025-11-18 12:45:40.055008,599617926138198830,-147.00
2025-11-18 12:45:40.055008,599617926138198830,-167.00
2025-11-18 12:45:40.055008,599617926138198830,-177.00
2025-11-18 12:45:40.055008,599617926138198830,-172.00
2025-11-18 12:45:40.055008,599617926138198830,-167.00
2025-11-18 12:45:40.055008,599617926138198830,-169.00
2025-11-18 12:45:40.055008,599617926138198830,-169.00
2025-11-18 12:45:40.055008,599617926138198830,-160.00
2025-11-18 12:45:40.055008,599617926138198830,-152.00
2025-11-18 12:45:40.055008,599617926138198830,-150.00
2025-11-18 12:45:40.055008,599617926138198830,-143.00
2025-11-18 12:45:40.055008,599617926138198830,-133.00
2025-11-18 12:45:40.055008,599617926138198830,-135.00
2025-11-18 12:45:40.055008,599617926138198830,-135.00
2025-11-18 12:45:40.055008,599617926138198830,-128.00
2025-11-18 12:45:40.055008,599617926138198830,-121.00
2025-11-18 12:45:40.055008,599617926138198830,-121.00
2025-11-18 12:45:40.055008,599617926138198830,-116.00
2025-11-18 12:45:40.055008,599617926138198830,-111.00
2025-11-18 12:45:40.055008,599617926138198830,-109.00
2025-11-18 12:45:40.055008,599617926138198830,-109.00
2025-11-18 12:45:40.055008,599617926138198830,-104.00
2025-11-18 12:45:40.055008,599617926138198830,-101.00
2025-11-18 12:45:40.055008,599617926138198830,-106.00
2025-11-18 12:45:40.055008,599617926138198830,-109.00
2025-11-18 12:45:40.055008,599617926138198830,-106.00
2025-11-18 12:45:40.055008,599617926138198830,-104.00
2025-11-18 12:45:40.055008,599617926138198830,-101.00
2025-11-18 12:45:40.055008,599617926138198830,-97.00
2025-11-18 12:45:40.055008,599617926138198830,-97.00
2025-11-18 12:45:40.055008,599617926138198830,-97.00
2025-11-18 12:45:40.055008,599617926138198830,-94.00
2025-11-18 12:45:40.055008,599617926138198830,-94.00
2025-11-18 12:45:40.055008,599617926138198830,-94.00
2025-11-18 12:45:40.055008,599617926138198830,-94.00
2025-11-18 12:45:40.055008,599617926138198830,-94.00
2025-11-18 12:45:40.055008,599617926138198830,-92.00
2025-11-18 12:45:40.708316,599617926698865355,-87.00
2025-11-18 12:45:40.708316,599617926698865355,-87.00
2025-11-18 12:45:40.708316,599617926698865355,-84.00
2025-11-18 12:45:40.708316,599617926698865355,-82.00
2025-11-18 12:45:40.708316,599617926698865355,-84.00
2025-11-18 12:45:40.708316,599617926698865355,-84.00
2025-11-18 12:45:40.708316,599617926698865355,-77.00
2025-11-18 12:45:40.708316,599617926698865355,-75.00
2025-11-18 12:45:40.708316,599617926698865355,-77.00
2025-11-18 12:45:40.708316,599617926698865355,-77.00
2025-11-18 12:45:40.708316,599617926698865355,-75.00
2025-11-18 12:45:40.708316,599617926698865355,-75.00
2025-11-18 12:45:40.708316,599617926698865355,-75.00
2025-11-18 12:45:40.708316,599617926698865355,-72.00
2025-11-18 12:45:40.708316,599617926698865355,-72.00
2025-11-18 12:45:40.708316,599617926698865355,-70.00
2025-11-18 12:45:40.708316,599617926698865355,-70.00
2025-11-18 12:45:40.708316,599617926698865355,-70.00
2025-11-18 12:45:40.708316,599617926698865355,-65.00
2025-11-18 12:45:40.708316,599617926698865355,-60.00
2025-11-18 12:45:40.708316,599617926698865355,-63.00
2025-11-18 12:45:40.708316,599617926698865355,-67.00
2025-11-18 12:45:40.708316,599617926698865355,-63.00
2025-11-18 12:45:40.708316,599617926698865355,-60.00
2025-11-18 12:45:40.708316,599617926698865355,-63.00
2025-11-18 12:45:40.708316,599617926698865355,-60.00
2025-11-18 12:45:40.708316,599617926698865355,-58.00
2025-11-18 12:45:40.708316,599617926698865355,-63.00
2025-11-18 12:45:40.708316,599617926698865355,-67.00
2025-11-18 12:45:40.708316,599617926698865355,-63.00
2025-11-18 12:45:40.708316,599617926698865355,-58.00
2025-11-18 12:45:40.708316,599617926698865355,-60.00
2025-11-18 12:45:40.708316,599617926698865355,-60.00
2025-11-18 12:45:40.708316,599617926698865355,-53.00
2025-11-18 12:45:40.708316,599617926698865355,-46.00
2025-11-18 12:45:40.708316,599617926698865355,-46.00
2025-11-18 12:45:40.708316,599617926698865355,-46.00
2025-11-18 12:45:40.708316,599617926698865355,-38.00
2025-11-18 12:45:40.708316,599617926698865355,-38.00
2025-11-18 12:45:40.708316,599617926698865355,-46.00
2025-11-18 12:45:40.708316,599617926698865355,-50.00
2025-11-18 12:45:40.708316,599617926698865355,-58.00
2025-11-18 12:45:40.708316,599617926698865355,-65.00
2025-11-18 12:45:40.708316,599617926698865355,-67.00
2025-11-18 12:45:40.708316,599617926698865355,-63.00
2025-11-18 12:45:40.708316,599617926698865355,-63.00
2025-11-18 12:45:40.708316,599617926698865355,-67.00
2025-11-18 12:45:40.708316,599617926698865355,-67.00
2025-11-18 12:45:40.708316,599617926698865355,-63.00
2025-11-18 12:45:40.708316,599617926698865355,-72.00
2025-11-18 12:45:40.708316,599617926698865355,-121.00
2025-11-18 12:45:40.708316,599617926698865355,-140.00
2025-11-18 12:45:40.708316,599617926698865355,58.00
2025-11-18 12:45:40.708316,599617926698865355,552.00
2025-11-18 12:45:40.708316,599617926698865355,1076.00
2025-11-18 12:45:40.708316,599617926698865355,1134.00
2025-11-18 12:45:40.708316,599617926698865355,443.00
2025-11-18 12:45:40.708316,599617926698865355,-375.00
2025-11-18 12:45:40.708316,599617926698865355,-426.00
2025-11-18 12:45:40.708316,599617926698865355,-101.00
2025-11-18 12:45:40.708316,599617926698865355,-126.00
2025-11-18 12:45:40.708316,599617926698865355,-215.00
2025-11-18 12:45:40.708316,599617926698865355,-133.00
2025-11-18 12:45:40.708316,599617926698865355,-106.00
2025-11-18 12:45:40.708316,599617926698865355,-135.00
2025-11-18 12:45:40.708316,599617926698865355,-111.00
2025-11-18 12:45:40.708316,599617926698865355,-92.00
2025-11-18 12:45:40.708316,599617926698865355,-99.00
2025-11-18 12:45:40.708316,599617926698865355,-94.00
2025-11-18 12:45:40.708316,599617926698865355,-80.00
2025-11-18 12:45:40.708316,599617926698865355,-70.00
2025-11-18 12:45:40.708316,599617926698865355,-65.00
2025-11-18 12:45:40.708316,599617926698865355,-63.00
2025-11-18 12:45:41.188127,599617927259531878,-53.00
2025-11-18 12:45:41.188127,599617927259531878,-43.00
2025-11-18 12:45:41.188127,599617927259531878,-36.00
2025-11-18 12:45:41.188127,599617927259531878,-21.00
2025-11-18 12:45:41.188127,599617927259531878,-7.00
2025-11-18 12:45:41.188127,599617927259531878,-7.00
2025-11-18 12:45:41.188127,599617927259531878,0.00
2025-11-18 12:45:41.188127,599617927259531878,24.00
2025-11-18 12:45:41.188127,599617927259531878,41.00
2025-11-18 12:45:41.188127,599617927259531878,50.00
2025-11-18 12:45:41.188127,599617927259531878,72.00
2025-11-18 12:45:41.188127,599617927259531878,97.00
2025-11-18 12:45:41.188127,599617927259531878,118.00
2025-11-18 12:45:41.188127,599617927259531878,143.00
2025-11-18 12:45:41.188127,599617927259531878,164.00
2025-11-18 12:45:41.188127,599617927259531878,177.00
2025-11-18 12:45:41.188127,599617927259531878,189.00
2025-11-18 12:45:41.188127,599617927259531878,194.00
2025-11-18 12:45:41.188127,599617927259531878,184.00
2025-11-18 12:45:41.188127,599617927259531878,160.00
2025-11-18 12:45:41.188127,599617927259531878,118.00
2025-11-18 12:45:41.188127,599617927259531878,58.00
2025-11-18 12:45:41.188127,599617927259531878,-9.00
2025-11-18 12:45:41.188127,599617927259531878,-67.00
2025-11-18 12:45:41.188127,599617927259531878,-111.00
2025-11-18 12:45:41.188127,599617927259531878,-147.00
2025-11-18 12:45:41.188127,599617927259531878,-167.00
2025-11-18 12:45:41.188127,599617927259531878,-174.00
2025-11-18 12:45:41.188127,599617927259531878,-179.00
2025-11-18 12:45:41.188127,599617927259531878,-181.00
2025-11-18 12:45:41.188127,599617927259531878,-172.00
2025-11-18 12:45:41.188127,599617927259531878,-164.00
2025-11-18 12:45:41.188127,599617927259531878,-162.00
2025-11-18 12:45:41.188127,599617927259531878,-155.00
2025-11-18 12:45:41.188127,599617927259531878,-150.00
2025-11-18 12:45:41.188127,599617927259531878,-147.00
2025-11-18 12:45:41.188127,599617927259531878,-143.00
2025-11-18 12:45:41.188127,599617927259531878,-138.00
2025-11-18 12:45:41.188127,599617927259531878,-135.00
2025-11-18 12:45:41.188127,599617927259531878,-128.00
2025-11-18 12:45:41.188127,599617927259531878,-126.00
2025-11-18 12:45:41.188127,599617927259531878,-121.00
2025-11-18 12:45:41.188127,599617927259531878,-116.00
2025-11-18 12:45:41.188127,599617927259531878,-113.00
2025-11-18 12:45:41.188127,599617927259531878,-116.00
2025-11-18 12:45:41.188127,599617927259531878,-118.00
2025-11-18 12:45:41.188127,599617927259531878,-111.00
2025-11-18 12:45:41.188127,599617927259531878,-109.00
2025-11-18 12:45:41.188127,599617927259531878,-113.00
2025-11-18 12:45:41.188127,599617927259531878,-113.00
2025-11-18 12:45:41.188127,599617927259531878,-104.00
2025-11-18 12:45:41.188127,599617927259531878,-97.00
2025-11-18 12:45:41.188127,599617927259531878,-99.00
2025-11-18 12:45:41.188127,599617927259531878,-104.00
2025-11-18 12:45:41.188127,599617927259531878,-104.00
2025-11-18 12:45:41.188127,599617927259531878,-101.00
2025-11-18 12:45:41.188127,599617927259531878,-99.00
2025-11-18 12:45:41.188127,599617927259531878,-99.00
2025-11-18 12:45:41.188127,599617927259531878,-99.00
2025-11-18 12:45:41.188127,599617927259531878,-97.00
2025-11-18 12:45:41.188127,599617927259531878,-92.00
2025-11-18 12:45:41.188127,599617927259531878,-92.00
2025-11-18 12:45:41.188127,599617927259531878,-94.00
2025-11-18 12:45:41.188127,599617927259531878,-92.00
2025-11-18 12:45:41.188127,599617927259531878,-84.00
2025-11-18 12:45:41.188127,599617927259531878,-84.00
2025-11-18 12:45:41.188127,599617927259531878,-84.00
2025-11-18 12:45:41.188127,599617927259531878,-82.00
2025-11-18 12:45:41.188127,599617927259531878,-82.00
2025-11-18 12:45:41.188127,599617927259531878,-82.00
2025-11-18 12:45:41.188127,599617927259531878,-80.00
2025-11-18 12:45:41.188127,599617927259531878,-75.00
2025-11-18 12:45:41.188127,599617927259531878,-77.00
2025-11-18 12:45:41.758078,599617927820198401,-77.00
2025-11-18 12:45:41.758078,599617927820198401,-75.00
2025-11-18 12:45:41.758078,599617927820198401,-77.00
2025-11-18 12:45:41.758078,599617927820198401,-77.00
2025-11-18 12:45:41.758078,599617927820198401,-70.00
2025-11-18 12:45:41.758078,599617927820198401,-63.00
2025-11-18 12:45:41.758078,599617927820198401,-67.00
2025-11-18 12:45:41.758078,599617927820198401,-72.00
2025-11-18 12:45:41.758078,599617927820198401,-67.00
2025-11-18 12:45:41.758078,599617927820198401,-63.00
2025-11-18 12:45:41.758078,599617927820198401,-58.00
2025-11-18 12:45:41.758078,599617927820198401,-58.00
2025-11-18 12:45:41.758078,599617927820198401,-60.00
2025-11-18 12:45:41.758078,599617927820198401,-60.00
2025-11-18 12:45:41.758078,599617927820198401,-63.00
2025-11-18 12:45:41.758078,599617927820198401,-58.00
2025-11-18 12:45:41.758078,599617927820198401,-55.00
2025-11-18 12:45:41.758078,599617927820198401,-58.00
2025-11-18 12:45:41.758078,599617927820198401,-60.00
2025-11-18 12:45:41.758078,599617927820198401,-58.00
2025-11-18 12:45:41.758078,599617927820198401,-60.00
2025-11-18 12:45:41.758078,599617927820198401,-55.00
2025-11-18 12:45:41.758078,599617927820198401,-41.00
2025-11-18 12:45:41.758078,599617927820198401,-36.00
2025-11-18 12:45:41.758078,599617927820198401,-46.00
2025-11-18 12:45:41.758078,599617927820198401,-48.00
2025-11-18 12:45:41.758078,599617927820198401,-41.00
2025-11-18 12:45:41.758078,599617927820198401,-38.00
2025-11-18 12:45:41.758078,599617927820198401,-41.00
2025-11-18 12:45:41.758078,599617927820198401,-43.00
2025-11-18 12:45:41.758078,599617927820198401,-50.00
2025-11-18 12:45:41.758078,599617927820198401,-60.00
2025-11-18 12:45:41.758078,599617927820198401,-65.00
2025-11-18 12:45:41.758078,599617927820198401,-65.00
2025-11-18 12:45:41.758078,599617927820198401,-60.00
2025-11-18 12:45:41.758078,599617927820198401,-58.00
2025-11-18 12:45:41.758078,599617927820198401,-55.00
2025-11-18 12:45:41.758078,599617927820198401,-58.00
2025-11-18 12:45:41.758078,599617927820198401,-84.00
2025-11-18 12:45:41.758078,599617927820198401,-133.00
2025-11-18 12:45:41.758078,599617927820198401,-94.00
2025-11-18 12:45:41.758078,599617927820198401,215.00
2025-11-18 12:45:41.758078,599617927820198401,763.00
2025-11-18 12:45:41.758078,599617927820198401,1171.00
2025-11-18 12:45:41.758078,599617927820198401,957.00
2025-11-18 12:45:41.758078,599617927820198401,106.00
2025-11-18 12:45:41.758078,599617927820198401,-485.00
2025-11-18 12:45:41.758078,599617927820198401,-291.00
2025-11-18 12:45:41.758078,599617927820198401,-65.00
2025-11-18 12:45:41.758078,599617927820198401,-169.00
2025-11-18 12:45:41.758078,599617927820198401,-181.00
2025-11-18 12:45:41.758078,599617927820198401,-99.00
2025-11-18 12:45:41.758078,599617927820198401,-111.00
2025-11-18 12:45:41.758078,599617927820198401,-128.00
2025-11-18 12:45:41.758078,599617927820198401,-101.00
2025-11-18 12:45:41.758078,599617927820198401,-97.00
2025-11-18 12:45:41.758078,599617927820198401,-94.00
2025-11-18 12:45:41.758078,599617927820198401,-77.00
2025-11-18 12:45:41.758078,599617927820198401,-72.00
2025-11-18 12:45:41.758078,599617927820198401,-70.00
2025-11-18 12:45:41.758078,599617927820198401,-55.00
2025-11-18 12:45:41.758078,599617927820198401,-48.00
2025-11-18 12:45:41.758078,599617927820198401,-46.00
2025-11-18 12:45:41.758078,599617927820198401,-33.00
2025-11-18 12:45:41.758078,599617927820198401,-26.00
2025-11-18 12:45:41.758078,599617927820198401,-21.00
2025-11-18 12:45:41.758078,599617927820198401,-7.00
2025-11-18 12:45:41.758078,599617927820198401,12.00
2025-11-18 12:45:41.758078,599617927820198401,19.00
2025-11-18 12:45:41.758078,599617927820198401,26.00
2025-11-18 12:45:41.758078,599617927820198401,43.00
2025-11-18 12:45:41.758078,599617927820198401,70.00
2025-11-18 12:45:41.758078,599617927820198401,87.00
2025-11-18 12:45:42.302079,599617928380864924,104.00
2025-11-18 12:45:42.302079,599617928380864924,128.00
2025-11-18 12:45:42.302079,599617928380864924,150.00
2025-11-18 12:45:42.302079,599617928380864924,169.00
2025-11-18 12:45:42.302079,599617928380864924,186.00
2025-11-18 12:45:42.302079,599617928380864924,196.00
2025-11-18 12:45:42.302079,599617928380864924,196.00
2025-11-18 12:45:42.302079,599617928380864924,181.00
2025-11-18 12:45:42.302079,599617928380864924,145.00
2025-11-18 12:45:42.302079,599617928380864924,97.00
2025-11-18 12:45:42.302079,599617928380864924,38.00
2025-11-18 12:45:42.302079,599617928380864924,-29.00
2025-11-18 12:45:42.302079,599617928380864924,-82.00
2025-11-18 12:45:42.302079,599617928380864924,-123.00
2025-11-18 12:45:42.302079,599617928380864924,-155.00
2025-11-18 12:45:42.302079,599617928380864924,-172.00
2025-11-18 12:45:42.302079,599617928380864924,-174.00
2025-11-18 12:45:42.302079,599617928380864924,-179.00
2025-11-18 12:45:42.302079,599617928380864924,-177.00
2025-11-18 12:45:42.302079,599617928380864924,-162.00
2025-11-18 12:45:42.302079,599617928380864924,-150.00
2025-11-18 12:45:42.302079,599617928380864924,-155.00
2025-11-18 12:45:42.302079,599617928380864924,-152.00
2025-11-18 12:45:42.302079,599617928380864924,-143.00
2025-11-18 12:45:42.302079,599617928380864924,-138.00
2025-11-18 12:45:42.302079,599617928380864924,-135.00
2025-11-18 12:45:42.302079,599617928380864924,-133.00
2025-11-18 12:45:42.302079,599617928380864924,-133.00
2025-11-18 12:45:42.302079,599617928380864924,-133.00
2025-11-18 12:45:42.302079,599617928380864924,-126.00
2025-11-18 12:45:42.302079,599617928380864924,-113.00
2025-11-18 12:45:42.302079,599617928380864924,-111.00
2025-11-18 12:45:42.302079,599617928380864924,-113.00
2025-11-18 12:45:42.302079,599617928380864924,-111.00
2025-11-18 12:45:42.302079,599617928380864924,-104.00
2025-11-18 12:45:42.302079,599617928380864924,-104.00
2025-11-18 12:45:42.302079,599617928380864924,-106.00
2025-11-18 12:45:42.302079,599617928380864924,-109.00
2025-11-18 12:45:42.302079,599617928380864924,-104.00
2025-11-18 12:45:42.302079,599617928380864924,-99.00
2025-11-18 12:45:42.302079,599617928380864924,-97.00
2025-11-18 12:45:42.302079,599617928380864924,-97.00
2025-11-18 12:45:42.302079,599617928380864924,-97.00
2025-11-18 12:45:42.302079,599617928380864924,-97.00
2025-11-18 12:45:42.302079,599617928380864924,-97.00
2025-11-18 12:45:42.302079,599617928380864924,-92.00
2025-11-18 12:45:42.302079,599617928380864924,-89.00
2025-11-18 12:45:42.302079,599617928380864924,-92.00
2025-11-18 12:45:42.302079,599617928380864924,-94.00
2025-11-18 12:45:42.302079,599617928380864924,-94.00
2025-11-18 12:45:42.302079,599617928380864924,-94.00
2025-11-18 12:45:42.302079,599617928380864924,-87.00
2025-11-18 12:45:42.302079,599617928380864924,-77.00
2025-11-18 12:45:42.302079,599617928380864924,-77.00
2025-11-18 12:45:42.302079,599617928380864924,-82.00
2025-11-18 12:45:42.302079,599617928380864924,-82.00
2025-11-18 12:45:42.302079,599617928380864924,-80.00
2025-11-18 12:45:42.302079,599617928380864924,-77.00
2025-11-18 12:45:42.302079,599617928380864924,-80.00
2025-11-18 12:45:42.302079,599617928380864924,-77.00
2025-11-18 12:45:42.302079,599617928380864924,-70.00
2025-11-18 12:45:42.302079,599617928380864924,-72.00
2025-11-18 12:45:42.302079,599617928380864924,-72.00
2025-11-18 12:45:42.302079,599617928380864924,-65.00
2025-11-18 12:45:42.302079,599617928380864924,-60.00
2025-11-18 12:45:42.302079,599617928380864924,-63.00
2025-11-18 12:45:42.302079,599617928380864924,-63.00
2025-11-18 12:45:42.302079,599617928380864924,-58.00
2025-11-18 12:45:42.302079,599617928380864924,-58.00
2025-11-18 12:45:42.302079,599617928380864924,-55.00
2025-11-18 12:45:42.302079,599617928380864924,-58.00
2025-11-18 12:45:42.302079,599617928380864924,-60.00
2025-11-18 12:45:42.302079,599617928380864924,-55.00
2025-11-18 12:45:42.837577,599617928941531447,-55.00
2025-11-18 12:45:42.837577,599617928941531447,-50.00
2025-11-18 12:45:42.837577,599617928941531447,-41.00
2025-11-18 12:45:42.837577,599617928941531447,-33.00
2025-11-18 12:45:42.837577,599617928941531447,-29.00
2025-11-18 12:45:42.837577,599617928941531447,-24.00
2025-11-18 12:45:42.837577,599617928941531447,-29.00
2025-11-18 12:45:42.837577,599617928941531447,-36.00
2025-11-18 12:45:42.837577,599617928941531447,-38.00
2025-11-18 12:45:42.837577,599617928941531447,-46.00
2025-11-18 12:45:42.837577,599617928941531447,-55.00
2025-11-18 12:45:42.837577,599617928941531447,-58.00
2025-11-18 12:45:42.837577,599617928941531447,-53.00
2025-11-18 12:45:42.837577,599617928941531447,-50.00
2025-11-18 12:45:42.837577,599617928941531447,-55.00
2025-11-18 12:45:42.837577,599617928941531447,-50.00
2025-11-18 12:45:42.837577,599617928941531447,-46.00
2025-11-18 12:45:42.837577,599617928941531447,-77.00
2025-11-18 12:45:42.837577,599617928941531447,-135.00
2025-11-18 12:45:42.837577,599617928941531447,-53.00
2025-11-18 12:45:42.837577,599617928941531447,339.00
2025-11-18 12:45:42.837577,599617928941531447,916.00
2025-11-18 12:45:42.837577,599617928941531447,1234.00
2025-11-18 12:45:42.837577,599617928941531447,834.00
2025-11-18 12:45:42.837577,599617928941531447,-89.00
2025-11-18 12:45:42.837577,599617928941531447,-511.00
2025-11-18 12:45:42.837577,599617928941531447,-210.00
2025-11-18 12:45:42.837577,599617928941531447,-63.00
2025-11-18 12:45:42.837577,599617928941531447,-181.00
2025-11-18 12:45:42.837577,599617928941531447,-143.00
2025-11-18 12:45:42.837577,599617928941531447,-72.00
2025-11-18 12:45:42.837577,599617928941531447,-104.00
2025-11-18 12:45:42.837577,599617928941531447,-104.00
2025-11-18 12:45:42.837577,599617928941531447,-77.00
2025-11-18 12:45:42.837577,599617928941531447,-80.00
2025-11-18 12:45:42.837577,599617928941531447,-75.00
2025-11-18 12:45:42.837577,599617928941531447,-55.00
2025-11-18 12:45:42.837577,599617928941531447,-46.00
2025-11-18 12:45:42.837577,599617928941531447,-41.00
2025-11-18 12:45:42.837577,599617928941531447,-36.00
2025-11-18 12:45:42.837577,599617928941531447,-29.00
2025-11-18 12:45:42.837577,599617928941531447,-16.00
2025-11-18 12:45:42.837577,599617928941531447,-9.00
2025-11-18 12:45:42.837577,599617928941531447,-2.00
2025-11-18 12:45:42.837577,599617928941531447,12.00
2025-11-18 12:45:42.837577,599617928941531447,16.00
2025-11-18 12:45:42.837577,599617928941531447,26.00
2025-11-18 12:45:42.837577,599617928941531447,46.00
2025-11-18 12:45:42.837577,599617928941531447,65.00
2025-11-18 12:45:42.837577,599617928941531447,77.00
2025-11-18 12:45:42.837577,599617928941531447,94.00
2025-11-18 12:45:42.837577,599617928941531447,121.00
2025-11-18 12:45:42.837577,599617928941531447,150.00
2025-11-18 12:45:42.837577,599617928941531447,174.00
2025-11-18 12:45:42.837577,599617928941531447,196.00
2025-11-18 12:45:42.837577,599617928941531447,215.00
2025-11-18 12:45:42.837577,599617928941531447,227.00
2025-11-18 12:45:42.837577,599617928941531447,232.00
2025-11-18 12:45:42.837577,599617928941531447,227.00
2025-11-18 12:45:42.837577,599617928941531447,203.00
2025-11-18 12:45:42.837577,599617928941531447,157.00
2025-11-18 12:45:42.837577,599617928941531447,97.00
2025-11-18 12:45:42.837577,599617928941531447,33.00
2025-11-18 12:45:42.837577,599617928941531447,-26.00
2025-11-18 12:45:42.837577,599617928941531447,-82.00
2025-11-18 12:45:42.837577,599617928941531447,-118.00
2025-11-18 12:45:42.837577,599617928941531447,-143.00
2025-11-18 12:45:42.837577,599617928941531447,-152.00
2025-11-18 12:45:42.837577,599617928941531447,-150.00
2025-11-18 12:45:42.837577,599617928941531447,-150.00
2025-11-18 12:45:42.837577,599617928941531447,-150.00
2025-11-18 12:45:42.837577,599617928941531447,-147.00
2025-11-18 12:45:42.837577,599617928941531447,-140.00
2025-11-18 12:45:43.438989,599617929502197970,-133.00
2025-11-18 12:45:43.438989,599617929502197970,-121.00
2025-11-18 12:45:43.438989,599617929502197970,-118.00
2025-11-18 12:45:43.438989,599617929502197970,-121.00
2025-11-18 12:45:43.438989,599617929502197970,-118.00
2025-11-18 12:45:43.438989,599617929502197970,-113.00
2025-11-18 12:45:43.438989,599617929502197970,-106.00
2025-11-18 12:45:43.438989,599617929502197970,-101.00
2025-11-18 12:45:43.438989,599617929502197970,-101.00
2025-11-18 12:45:43.438989,599617929502197970,-99.00
2025-11-18 12:45:43.438989,599617929502197970,-94.00
2025-11-18 12:45:43.438989,599617929502197970,-92.00
2025-11-18 12:45:43.438989,599617929502197970,-92.00
2025-11-18 12:45:43.438989,599617929502197970,-84.00
2025-11-18 12:45:43.438989,599617929502197970,-82.00
2025-11-18 12:45:43.438989,599617929502197970,-92.00
2025-11-18 12:45:43.438989,599617929502197970,-94.00
2025-11-18 12:45:43.438989,599617929502197970,-94.00
2025-11-18 12:45:43.438989,599617929502197970,-94.00
2025-11-18 12:45:43.438989,599617929502197970,-92.00
2025-11-18 12:45:43.438989,599617929502197970,-87.00
2025-11-18 12:45:43.438989,599617929502197970,-87.00
2025-11-18 12:45:43.438989,599617929502197970,-87.00
2025-11-18 12:45:43.438989,599617929502197970,-84.00
2025-11-18 12:45:43.438989,599617929502197970,-82.00
2025-11-18 12:45:43.438989,599617929502197970,-80.00
2025-11-18 12:45:43.438989,599617929502197970,-84.00
2025-11-18 12:45:43.438989,599617929502197970,-89.00
2025-11-18 12:45:43.438989,599617929502197970,-87.00
2025-11-18 12:45:43.438989,599617929502197970,-82.00
2025-11-18 12:45:43.438989,599617929502197970,-80.00
2025-11-18 12:45:43.438989,599617929502197970,-82.00
2025-11-18 12:45:43.438989,599617929502197970,-77.00
2025-11-18 12:45:43.438989,599617929502197970,-75.00
2025-11-18 12:45:43.438989,599617929502197970,-77.00
2025-11-18 12:45:43.438989,599617929502197970,-77.00
2025-11-18 12:45:43.438989,599617929502197970,-72.00
2025-11-18 12:45:43.438989,599617929502197970,-72.00
2025-11-18 12:45:43.438989,599617929502197970,-75.00
2025-11-18 12:45:43.438989,599617929502197970,-72.00
2025-11-18 12:45:43.438989,599617929502197970,-67.00
2025-11-18 12:45:43.438989,599617929502197970,-65.00
2025-11-18 12:45:43.438989,599617929502197970,-65.00
2025-11-18 12:45:43.438989,599617929502197970,-67.00
2025-11-18 12:45:43.438989,599617929502197970,-67.00
2025-11-18 12:45:43.438989,599617929502197970,-63.00
2025-11-18 12:45:43.438989,599617929502197970,-58.00
2025-11-18 12:45:43.438989,599617929502197970,-55.00
2025-11-18 12:45:43.438989,599617929502197970,-55.00
2025-11-18 12:45:43.438989,599617929502197970,-65.00
2025-11-18 12:45:43.438989,599617929502197970,-70.00
2025-11-18 12:45:43.438989,599617929502197970,-55.00
2025-11-18 12:45:43.438989,599617929502197970,-36.00
2025-11-18 12:45:43.438989,599617929502197970,-36.00
2025-11-18 12:45:43.438989,599617929502197970,-43.00
2025-11-18 12:45:43.438989,599617929502197970,-43.00
2025-11-18 12:45:43.438989,599617929502197970,-41.00
2025-11-18 12:45:43.438989,599617929502197970,-41.00
2025-11-18 12:45:43.438989,599617929502197970,-48.00
2025-11-18 12:45:43.438989,599617929502197970,-53.00
2025-11-18 12:45:43.438989,599617929502197970,-63.00
2025-11-18 12:45:43.438989,599617929502197970,-67.00
2025-11-18 12:45:43.438989,599617929502197970,-63.00
2025-11-18 12:45:43.438989,599617929502197970,-60.00
2025-11-18 12:45:43.438989,599617929502197970,-67.00
2025-11-18 12:45:43.438989,599617929502197970,-75.00
2025-11-18 12:45:43.438989,599617929502197970,-70.00
2025-11-18 12:45:43.438989,599617929502197970,-72.00
2025-11-18 12:45:43.438989,599617929502197970,-113.00
2025-11-18 12:45:43.438989,599617929502197970,-152.00
2025-11-18 12:45:43.438989,599617929502197970,-21.00
2025-11-18 12:45:43.438989,599617929502197970,434.00
2025-11-18 12:45:43.438989,599617929502197970,1035.00
2025-11-18 12:45:44.011116,599617930062864495,1261.00
2025-11-18 12:45:44.011116,599617930062864495,676.00
2025-11-18 12:45:44.011116,599617930062864495,-264.00
2025-11-18 12:45:44.011116,599617930062864495,-482.00
2025-11-18 12:45:44.011116,599617930062864495,-123.00
2025-11-18 12:45:44.011116,599617930062864495,-94.00
2025-11-18 12:45:44.011116,599617930062864495,-223.00
2025-11-18 12:45:44.011116,599617930062864495,-138.00
2025-11-18 12:45:44.011116,599617930062864495,-75.00
2025-11-18 12:45:44.011116,599617930062864495,-116.00
2025-11-18 12:45:44.011116,599617930062864495,-109.00
2025-11-18 12:45:44.011116,599617930062864495,-94.00
2025-11-18 12:45:44.011116,599617930062864495,-116.00
2025-11-18 12:45:44.011116,599617930062864495,-106.00
2025-11-18 12:45:44.011116,599617930062864495,-77.00
2025-11-18 12:45:44.011116,599617930062864495,-72.00
2025-11-18 12:45:44.011116,599617930062864495,-46.00
2025-11-18 12:45:44.011116,599617930062864495,-14.00
2025-11-18 12:45:44.011116,599617930062864495,-24.00
2025-11-18 12:45:44.011116,599617930062864495,-41.00
2025-11-18 12:45:44.011116,599617930062864495,-36.00
2025-11-18 12:45:44.011116,599617930062864495,-21.00
2025-11-18 12:45:44.011116,599617930062864495,-12.00
2025-11-18 12:45:44.011116,599617930062864495,-4.00
2025-11-18 12:45:44.011116,599617930062864495,19.00
2025-11-18 12:45:44.011116,599617930062864495,41.00
2025-11-18 12:45:44.011116,599617930062864495,48.00
2025-11-18 12:45:44.011116,599617930062864495,60.00
2025-11-18 12:45:44.011116,599617930062864495,82.00
2025-11-18 12:45:44.011116,599617930062864495,104.00
2025-11-18 12:45:44.011116,599617930062864495,130.00
2025-11-18 12:45:44.011116,599617930062864495,162.00
2025-11-18 12:45:44.011116,599617930062864495,172.00
2025-11-18 12:45:44.011116,599617930062864495,177.00
2025-11-18 12:45:44.011116,599617930062864495,203.00
2025-11-18 12:45:44.011116,599617930062864495,220.00
2025-11-18 12:45:44.011116,599617930062864495,213.00
2025-11-18 12:45:44.011116,599617930062864495,186.00
2025-11-18 12:45:44.011116,599617930062864495,138.00
2025-11-18 12:45:44.011116,599617930062864495,70.00
2025-11-18 12:45:44.011116,599617930062864495,0.00
2025-11-18 12:45:44.011116,599617930062864495,-50.00
2025-11-18 12:45:44.011116,599617930062864495,-89.00
2025-11-18 12:45:44.011116,599617930062864495,-123.00
2025-11-18 12:45:44.011116,599617930062864495,-145.00
2025-11-18 12:45:44.011116,599617930062864495,-152.00
2025-11-18 12:45:44.011116,599617930062864495,-155.00
2025-11-18 12:45:44.011116,599617930062864495,-155.00
2025-11-18 12:45:44.011116,599617930062864495,-147.00
2025-11-18 12:45:44.011116,599617930062864495,-130.00
2025-11-18 12:45:44.011116,599617930062864495,-121.00
2025-11-18 12:45:44.011116,599617930062864495,-128.00
2025-11-18 12:45:44.011116,599617930062864495,-130.00
2025-11-18 12:45:44.011116,599617930062864495,-111.00
2025-11-18 12:45:44.011116,599617930062864495,-104.00
2025-11-18 12:45:44.011116,599617930062864495,-116.00
2025-11-18 12:45:44.011116,599617930062864495,-121.00
2025-11-18 12:45:44.011116,599617930062864495,-106.00
2025-11-18 12:45:44.011116,599617930062864495,-97.00
2025-11-18 12:45:44.011116,599617930062864495,-97.00
2025-11-18 12:45:44.011116,599617930062864495,-92.00
2025-11-18 12:45:44.011116,599617930062864495,-82.00
2025-11-18 12:45:44.011116,599617930062864495,-84.00
2025-11-18 12:45:44.011116,599617930062864495,-82.00
2025-11-18 12:45:44.011116,599617930062864495,-77.00
2025-11-18 12:45:44.011116,599617930062864495,-89.00
2025-11-18 12:45:44.011116,599617930062864495,-106.00
2025-11-18 12:45:44.011116,599617930062864495,-104.00
2025-11-18 12:45:44.011116,599617930062864495,-97.00
2025-11-18 12:45:44.011116,599617930062864495,-106.00
2025-11-18 12:45:44.011116,599617930062864495,-121.00
2025-11-18 12:45:44.011116,599617930062864495,-106.00
2025-11-18 12:45:44.011116,599617930062864495,-89.00
2025-11-18 12:45:44.550156,599617930623531018,-106.00
2025-11-18 12:45:44.550156,599617930623531018,-109.00
2025-11-18 12:45:44.550156,599617930623531018,-82.00
2025-11-18 12:45:44.550156,599617930623531018,-87.00
2025-11-18 12:45:44.550156,599617930623531018,-104.00
2025-11-18 12:45:44.550156,599617930623531018,-111.00
2025-11-18 12:45:44.550156,599617930623531018,-135.00
2025-11-18 12:45:44.550156,599617930623531018,-150.00
2025-11-18 12:45:44.550156,599617930623531018,-130.00
2025-11-18 12:45:44.550156,599617930623531018,-121.00
2025-11-18 12:45:44.550156,599617930623531018,-138.00
2025-11-18 12:45:44.550156,599617930623531018,-140.00
2025-11-18 12:45:44.550156,599617930623531018,-113.00
2025-11-18 12:45:44.550156,599617930623531018,-104.00
2025-11-18 12:45:44.550156,599617930623531018,-135.00
2025-11-18 12:45:44.550156,599617930623531018,-150.00
2025-11-18 12:45:44.550156,599617930623531018,-130.00
2025-11-18 12:45:44.550156,599617930623531018,-109.00
2025-11-18 12:45:44.550156,599617930623531018,-92.00
2025-11-18 12:45:44.550156,599617930623531018,-97.00
2025-11-18 12:45:44.550156,599617930623531018,-111.00
2025-11-18 12:45:44.550156,599617930623531018,-109.00
2025-11-18 12:45:44.550156,599617930623531018,-111.00
2025-11-18 12:45:44.550156,599617930623531018,-123.00
2025-11-18 12:45:44.550156,599617930623531018,-104.00
2025-11-18 12:45:44.550156,599617930623531018,-75.00
2025-11-18 12:45:44.550156,599617930623531018,-80.00
2025-11-18 12:45:44.550156,599617930623531018,-77.00
2025-11-18 12:45:44.550156,599617930623531018,-70.00
2025-11-18 12:45:44.550156,599617930623531018,-80.00
2025-11-18 12:45:44.550156,599617930623531018,-75.00
2025-11-18 12:45:44.550156,599617930623531018,-63.00
2025-11-18 12:45:44.550156,599617930623531018,-63.00
2025-11-18 12:45:44.550156,599617930623531018,-58.00
2025-11-18 12:45:44.550156,599617930623531018,-43.00
2025-11-18 12:45:44.550156,599617930623531018,-31.00
2025-11-18 12:45:44.550156,599617930623531018,-24.00
2025-11-18 12:45:44.550156,599617930623531018,-16.00
2025-11-18 12:45:44.550156,599617930623531018,-7.00
2025-11-18 12:45:44.550156,599617930623531018,4.00
2025-11-18 12:45:44.550156,599617930623531018,12.00
2025-11-18 12:45:44.550156,599617930623531018,2.00
2025-11-18 12:45:44.550156,599617930623531018,-16.00
2025-11-18 12:45:44.550156,599617930623531018,-12.00
2025-11-18 12:45:44.550156,599617930623531018,-4.00
2025-11-18 12:45:44.550156,599617930623531018,-7.00
2025-11-18 12:45:44.550156,599617930623531018,-4.00
2025-11-18 12:45:44.550156,599617930623531018,0.00
2025-11-18 12:45:44.550156,599617930623531018,2.00
2025-11-18 12:45:44.550156,599617930623531018,-2.00
2025-11-18 12:45:44.550156,599617930623531018,-26.00
2025-11-18 12:45:44.550156,599617930623531018,-84.00
2025-11-18 12:45:44.550156,599617930623531018,-58.00
2025-11-18 12:45:44.550156,599617930623531018,257.00
2025-11-18 12:45:44.550156,599617930623531018,836.00
2025-11-18 12:45:44.550156,599617930623531018,1285.00
2025-11-18 12:45:44.550156,599617930623531018,1084.00
2025-11-18 12:45:44.550156,599617930623531018,218.00
2025-11-18 12:45:44.550156,599617930623531018,-375.00
2025-11-18 12:45:44.550156,599617930623531018,-186.00
2025-11-18 12:45:44.550156,599617930623531018,19.00
2025-11-18 12:45:44.550156,599617930623531018,-89.00
2025-11-18 12:45:44.550156,599617930623531018,-97.00
2025-11-18 12:45:44.550156,599617930623531018,-21.00
2025-11-18 12:45:44.550156,599617930623531018,-46.00
2025-11-18 12:45:44.550156,599617930623531018,-48.00
2025-11-18 12:45:44.550156,599617930623531018,-4.00
2025-11-18 12:45:44.550156,599617930623531018,-9.00
2025-11-18 12:45:44.550156,599617930623531018,-29.00
2025-11-18 12:45:44.550156,599617930623531018,-12.00
2025-11-18 12:45:44.550156,599617930623531018,-2.00
2025-11-18 12:45:44.550156,599617930623531018,0.00
2025-11-18 12:45:44.550156,599617930623531018,21.00
2025-11-18 12:45:45.120339,599617931184197541,48.00
2025-11-18 12:45:45.120339,599617931184197541,55.00
2025-11-18 12:45:45.120339,599617931184197541,58.00
2025-11-18 12:45:45.120339,599617931184197541,72.00
2025-11-18 12:45:45.120339,599617931184197541,89.00
2025-11-18 12:45:45.120339,599617931184197541,82.00
2025-11-18 12:45:45.120339,599617931184197541,80.00
2025-11-18 12:45:45.120339,599617931184197541,118.00
2025-11-18 12:45:45.120339,599617931184197541,160.00
2025-11-18 12:45:45.120339,599617931184197541,167.00
2025-11-18 12:45:45.120339,599617931184197541,162.00
2025-11-18 12:45:45.120339,599617931184197541,196.00
2025-11-18 12:45:45.120339,599617931184197541,252.00
2025-11-18 12:45:45.120339,599617931184197541,266.00
2025-11-18 12:45:45.120339,599617931184197541,237.00
2025-11-18 12:45:45.120339,599617931184197541,244.00
2025-11-18 12:45:45.120339,599617931184197541,295.00
2025-11-18 12:45:45.120339,599617931184197541,320.00
2025-11-18 12:45:45.120339,599617931184197541,293.00
2025-11-18 12:45:45.120339,599617931184197541,244.00
2025-11-18 12:45:45.120339,599617931184197541,208.00
2025-11-18 12:45:45.120339,599617931184197541,172.00
2025-11-18 12:45:45.120339,599617931184197541,113.00
2025-11-18 12:45:45.120339,599617931184197541,38.00
2025-11-18 12:45:45.120339,599617931184197541,-48.00
2025-11-18 12:45:45.120339,599617931184197541,-130.00
2025-11-18 12:45:45.120339,599617931184197541,-184.00
2025-11-18 12:45:45.120339,599617931184197541,-203.00
2025-11-18 12:45:45.120339,599617931184197541,-198.00
2025-11-18 12:45:45.120339,599617931184197541,-194.00
2025-11-18 12:45:45.120339,599617931184197541,-230.00
2025-11-18 12:45:45.120339,599617931184197541,-276.00
2025-11-18 12:45:45.120339,599617931184197541,-295.00
2025-11-18 12:45:45.120339,599617931184197541,-303.00
2025-11-18 12:45:45.120339,599617931184197541,-291.00
2025-11-18 12:45:45.120339,599617931184197541,-295.00
2025-11-18 12:45:45.120339,599617931184197541,-310.00
2025-11-18 12:45:45.120339,599617931184197541,-293.00
2025-11-18 12:45:45.120339,599617931184197541,-271.00
2025-11-18 12:45:45.120339,599617931184197541,-261.00
2025-11-18 12:45:45.120339,599617931184197541,-232.00
2025-11-18 12:45:45.120339,599617931184197541,-218.00
2025-11-18 12:45:45.120339,599617931184197541,-242.00
2025-11-18 12:45:45.120339,599617931184197541,-252.00
2025-11-18 12:45:45.120339,599617931184197541,-208.00
2025-11-18 12:45:45.120339,599617931184197541,-157.00
2025-11-18 12:45:45.120339,599617931184197541,-147.00
2025-11-18 12:45:45.120339,599617931184197541,-152.00
2025-11-18 12:45:45.120339,599617931184197541,-133.00
2025-11-18 12:45:45.120339,599617931184197541,-138.00
2025-11-18 12:45:45.120339,599617931184197541,-167.00
2025-11-18 12:45:45.120339,599617931184197541,-157.00
2025-11-18 12:45:45.120339,599617931184197541,-94.00
2025-11-18 12:45:45.120339,599617931184197541,-48.00
2025-11-18 12:45:45.120339,599617931184197541,-67.00
2025-11-18 12:45:45.120339,599617931184197541,-97.00
2025-11-18 12:45:45.120339,599617931184197541,-89.00
2025-11-18 12:45:45.120339,599617931184197541,-84.00
2025-11-18 12:45:45.120339,599617931184197541,-97.00
2025-11-18 12:45:45.120339,599617931184197541,-97.00
2025-11-18 12:45:45.120339,599617931184197541,-92.00
2025-11-18 12:45:45.120339,599617931184197541,-92.00
2025-11-18 12:45:45.120339,599617931184197541,-94.00
2025-11-18 12:45:45.120339,599617931184197541,-97.00
2025-11-18 12:45:45.120339,599617931184197541,-94.00
2025-11-18 12:45:45.120339,599617931184197541,-92.00
2025-11-18 12:45:45.120339,599617931184197541,-97.00
2025-11-18 12:45:45.120339,599617931184197541,-84.00
2025-11-18 12:45:45.120339,599617931184197541,-65.00
2025-11-18 12:45:45.120339,599617931184197541,-75.00
2025-11-18 12:45:45.120339,599617931184197541,-94.00
2025-11-18 12:45:45.120339,599617931184197541,-70.00
2025-11-18 12:45:45.120339,599617931184197541,-50.00
2025-11-18 12:45:45.658621,599617931744864064,-65.00
2025-11-18 12:45:45.658621,599617931744864064,-63.00
2025-11-18 12:45:45.658621,599617931744864064,-53.00
2025-11-18 12:45:45.658621,599617931744864064,-55.00
2025-11-18 12:45:45.658621,599617931744864064,-55.00
2025-11-18 12:45:45.658621,599617931744864064,-58.00
2025-11-18 12:45:45.658621,599617931744864064,-67.00
2025-11-18 12:45:45.658621,599617931744864064,-75.00
2025-11-18 12:45:45.658621,599617931744864064,-87.00
2025-11-18 12:45:45.658621,599617931744864064,-72.00
2025-11-18 12:45:45.658621,599617931744864064,-53.00
2025-11-18 12:45:45.658621,599617931744864064,-80.00
2025-11-18 12:45:45.658621,599617931744864064,-101.00
2025-11-18 12:45:45.658621,599617931744864064,-87.00
2025-11-18 12:45:45.658621,599617931744864064,-87.00
2025-11-18 12:45:45.658621,599617931744864064,-111.00
2025-11-18 12:45:45.658621,599617931744864064,-118.00
2025-11-18 12:45:45.658621,599617931744864064,-111.00
2025-11-18 12:45:45.658621,599617931744864064,-111.00
2025-11-18 12:45:45.658621,599617931744864064,-106.00
2025-11-18 12:45:45.658621,599617931744864064,-101.00
2025-11-18 12:45:45.658621,599617931744864064,-113.00
2025-11-18 12:45:45.658621,599617931744864064,-130.00
2025-11-18 12:45:45.658621,599617931744864064,-130.00
2025-11-18 12:45:45.658621,599617931744864064,-121.00
2025-11-18 12:45:45.658621,599617931744864064,-133.00
2025-11-18 12:45:45.658621,599617931744864064,-150.00
2025-11-18 12:45:45.658621,599617931744864064,-140.00
2025-11-18 12:45:45.658621,599617931744864064,-118.00
2025-11-18 12:45:45.658621,599617931744864064,-113.00
2025-11-18 12:45:45.658621,599617931744864064,-106.00
2025-11-18 12:45:45.658621,599617931744864064,-101.00
2025-11-18 12:45:45.658621,599617931744864064,-143.00
2025-11-18 12:45:45.658621,599617931744864064,-213.00
2025-11-18 12:45:45.658621,599617931744864064,-157.00
2025-11-18 12:45:45.658621,599617931744864064,196.00
2025-11-18 12:45:45.658621,599617931744864064,749.00
2025-11-18 12:45:45.658621,599617931744864064,1069.00
2025-11-18 12:45:45.658621,599617931744864064,727.00
2025-11-18 12:45:45.658621,599617931744864064,-77.00
2025-11-18 12:45:45.658621,599617931744864064,-443.00
2025-11-18 12:45:45.658621,599617931744864064,-174.00
2025-11-18 12:45:45.658621,599617931744864064,-36.00
2025-11-18 12:45:45.658621,599617931744864064,-147.00
2025-11-18 12:45:45.658621,599617931744864064,-133.00
2025-11-18 12:45:45.658621,599617931744864064,-70.00
2025-11-18 12:45:45.658621,599617931744864064,-87.00
2025-11-18 12:45:45.658621,599617931744864064,-94.00
2025-11-18 12:45:45.658621,599617931744864064,-80.00
2025-11-18 12:45:45.658621,599617931744864064,-75.00
2025-11-18 12:45:45.658621,599617931744864064,-70.00
2025-11-18 12:45:45.658621,599617931744864064,-60.00
2025-11-18 12:45:45.658621,599617931744864064,-50.00
2025-11-18 12:45:45.658621,599617931744864064,-43.00
2025-11-18 12:45:45.658621,599617931744864064,-43.00
2025-11-18 12:45:45.658621,599617931744864064,-46.00
2025-11-18 12:45:45.658621,599617931744864064,-29.00
2025-11-18 12:45:45.658621,599617931744864064,-2.00
2025-11-18 12:45:45.658621,599617931744864064,-2.00
2025-11-18 12:45:45.658621,599617931744864064,-7.00
2025-11-18 12:45:45.658621,599617931744864064,14.00
2025-11-18 12:45:45.658621,599617931744864064,29.00
2025-11-18 12:45:45.658621,599617931744864064,19.00
2025-11-18 12:45:45.658621,599617931744864064,26.00
2025-11-18 12:45:45.658621,599617931744864064,53.00
2025-11-18 12:45:45.658621,599617931744864064,63.00
2025-11-18 12:45:45.658621,599617931744864064,72.00
2025-11-18 12:45:45.658621,599617931744864064,106.00
2025-11-18 12:45:45.658621,599617931744864064,138.00
2025-11-18 12:45:45.658621,599617931744864064,140.00
2025-11-18 12:45:45.658621,599617931744864064,155.00
2025-11-18 12:45:45.658621,599617931744864064,184.00
2025-11-18 12:45:45.658621,599617931744864064,184.00
2025-11-18 12:45:46.227364,599617932305530587,167.00
2025-11-18 12:45:46.227364,599617932305530587,160.00
2025-11-18 12:45:46.227364,599617932305530587,135.00
2025-11-18 12:45:46.227364,599617932305530587,84.00
2025-11-18 12:45:46.227364,599617932305530587,31.00
2025-11-18 12:45:46.227364,599617932305530587,-21.00
2025-11-18 12:45:46.227364,599617932305530587,-77.00
2025-11-18 12:45:46.227364,599617932305530587,-113.00
2025-11-18 12:45:46.227364,599617932305530587,-133.00
2025-11-18 12:45:46.227364,599617932305530587,-143.00
2025-11-18 12:45:46.227364,599617932305530587,-147.00
2025-11-18 12:45:46.227364,599617932305530587,-145.00
2025-11-18 12:45:46.227364,599617932305530587,-138.00
2025-11-18 12:45:46.227364,599617932305530587,-130.00
2025-11-18 12:45:46.227364,599617932305530587,-126.00
2025-11-18 12:45:46.227364,599617932305530587,-116.00
2025-11-18 12:45:46.227364,599617932305530587,-111.00
2025-11-18 12:45:46.227364,599617932305530587,-113.00
2025-11-18 12:45:46.227364,599617932305530587,-109.00
2025-11-18 12:45:46.227364,599617932305530587,-104.00
2025-11-18 12:45:46.227364,599617932305530587,-109.00
2025-11-18 12:45:46.227364,599617932305530587,-109.00
2025-11-18 12:45:46.227364,599617932305530587,-97.00
2025-11-18 12:45:46.227364,599617932305530587,-87.00
2025-11-18 12:45:46.227364,599617932305530587,-82.00
2025-11-18 12:45:46.227364,599617932305530587,-70.00
2025-11-18 12:45:46.227364,599617932305530587,-58.00
2025-11-18 12:45:46.227364,599617932305530587,-55.00
2025-11-18 12:45:46.227364,599617932305530587,-58.00
2025-11-18 12:45:46.227364,599617932305530587,-58.00
2025-11-18 12:45:46.227364,599617932305530587,-60.00
2025-11-18 12:45:46.227364,599617932305530587,-55.00
2025-11-18 12:45:46.227364,599617932305530587,-50.00
2025-11-18 12:45:46.227364,599617932305530587,-63.00
2025-11-18 12:45:46.227364,599617932305530587,-70.00
2025-11-18 12:45:46.227364,599617932305530587,-60.00
2025-11-18 12:45:46.227364,599617932305530587,-58.00
2025-11-18 12:45:46.227364,599617932305530587,-53.00
2025-11-18 12:45:46.227364,599617932305530587,-46.00
2025-11-18 12:45:46.227364,599617932305530587,-43.00
2025-11-18 12:45:46.227364,599617932305530587,-53.00
2025-11-18 12:45:46.227364,599617932305530587,-55.00
2025-11-18 12:45:46.227364,599617932305530587,-38.00
2025-11-18 12:45:46.227364,599617932305530587,-36.00
2025-11-18 12:45:46.227364,599617932305530587,-48.00
2025-11-18 12:45:46.227364,599617932305530587,-48.00
2025-11-18 12:45:46.227364,599617932305530587,-33.00
2025-11-18 12:45:46.227364,599617932305530587,-19.00
2025-11-18 12:45:46.227364,599617932305530587,-9.00
2025-11-18 12:45:46.227364,599617932305530587,-9.00
2025-11-18 12:45:46.227364,599617932305530587,-9.00
2025-11-18 12:45:46.227364,599617932305530587,-9.00
2025-11-18 12:45:46.227364,599617932305530587,-9.00
2025-11-18 12:45:46.227364,599617932305530587,-4.00
2025-11-18 12:45:46.227364,599617932305530587,-2.00
2025-11-18 12:45:46.227364,599617932305530587,-14.00
2025-11-18 12:45:46.227364,599617932305530587,-16.00
2025-11-18 12:45:46.227364,599617932305530587,-4.00
2025-11-18 12:45:46.227364,599617932305530587,4.00
2025-11-18 12:45:46.227364,599617932305530587,2.00
2025-11-18 12:45:46.227364,599617932305530587,2.00
2025-11-18 12:45:46.227364,599617932305530587,7.00
2025-11-18 12:45:46.227364,599617932305530587,12.00
2025-11-18 12:45:46.227364,599617932305530587,16.00
2025-11-18 12:45:46.227364,599617932305530587,14.00
2025-11-18 12:45:46.227364,599617932305530587,14.00
2025-11-18 12:45:46.227364,599617932305530587,9.00
2025-11-18 12:45:46.227364,599617932305530587,-12.00
2025-11-18 12:45:46.227364,599617932305530587,-26.00
2025-11-18 12:45:46.227364,599617932305530587,-21.00
2025-11-18 12:45:46.227364,599617932305530587,-31.00
2025-11-18 12:45:46.227364,599617932305530587,-38.00
2025-11-18 12:45:46.227364,599617932305530587,-19.00
2025-11-18 12:45:46.767835,599617932866197110,-4.00
2025-11-18 12:45:46.767835,599617932866197110,-24.00
2025-11-18 12:45:46.767835,599617932866197110,-50.00
2025-11-18 12:45:46.767835,599617932866197110,-72.00
2025-11-18 12:45:46.767835,599617932866197110,-50.00
2025-11-18 12:45:46.767835,599617932866197110,198.00
2025-11-18 12:45:46.767835,599617932866197110,717.00
2025-11-18 12:45:46.767835,599617932866197110,1127.00
2025-11-18 12:45:46.767835,599617932866197110,897.00
2025-11-18 12:45:46.767835,599617932866197110,75.00
2025-11-18 12:45:46.767835,599617932866197110,-434.00
2025-11-18 12:45:46.767835,599617932866197110,-227.00
2025-11-18 12:45:46.767835,599617932866197110,-21.00
2025-11-18 12:45:46.767835,599617932866197110,-94.00
2025-11-18 12:45:46.767835,599617932866197110,-97.00
2025-11-18 12:45:46.767835,599617932866197110,-46.00
2025-11-18 12:45:46.767835,599617932866197110,-70.00
2025-11-18 12:45:46.767835,599617932866197110,-80.00
2025-11-18 12:45:46.767835,599617932866197110,-60.00
2025-11-18 12:45:46.767835,599617932866197110,-75.00
2025-11-18 12:45:46.767835,599617932866197110,-97.00
2025-11-18 12:45:46.767835,599617932866197110,-101.00
2025-11-18 12:45:46.767835,599617932866197110,-101.00
2025-11-18 12:45:46.767835,599617932866197110,-101.00
2025-11-18 12:45:46.767835,599617932866197110,-77.00
2025-11-18 12:45:46.767835,599617932866197110,-26.00
2025-11-18 12:45:46.767835,599617932866197110,-14.00
2025-11-18 12:45:46.767835,599617932866197110,-36.00
2025-11-18 12:45:46.767835,599617932866197110,-26.00
2025-11-18 12:45:46.767835,599617932866197110,-16.00
2025-11-18 12:45:46.767835,599617932866197110,-19.00
2025-11-18 12:45:46.767835,599617932866197110,-2.00
2025-11-18 12:45:46.767835,599617932866197110,12.00
2025-11-18 12:45:46.767835,599617932866197110,21.00
2025-11-18 12:45:46.767835,599617932866197110,48.00
2025-11-18 12:45:46.767835,599617932866197110,75.00
2025-11-18 12:45:46.767835,599617932866197110,97.00
2025-11-18 12:45:46.767835,599617932866197110,128.00
2025-11-18 12:45:46.767835,599617932866197110,164.00
2025-11-18 12:45:46.767835,599617932866197110,194.00
2025-11-18 12:45:46.767835,599617932866197110,201.00
2025-11-18 12:45:46.767835,599617932866197110,203.00
2025-11-18 12:45:46.767835,599617932866197110,225.00
2025-11-18 12:45:46.767835,599617932866197110,227.00
2025-11-18 12:45:46.767835,599617932866197110,194.00
2025-11-18 12:45:46.767835,599617932866197110,147.00
2025-11-18 12:45:46.767835,599617932866197110,99.00
2025-11-18 12:45:46.767835,599617932866197110,38.00
2025-11-18 12:45:46.767835,599617932866197110,-16.00
2025-11-18 12:45:46.767835,599617932866197110,-65.00
2025-11-18 12:45:46.767835,599617932866197110,-106.00
2025-11-18 12:45:46.767835,599617932866197110,-123.00
2025-11-18 12:45:46.767835,599617932866197110,-116.00
2025-11-18 12:45:46.767835,599617932866197110,-94.00
2025-11-18 12:45:46.767835,599617932866197110,-77.00
2025-11-18 12:45:46.767835,599617932866197110,-67.00
2025-11-18 12:45:46.767835,599617932866197110,-50.00
2025-11-18 12:45:46.767835,599617932866197110,-26.00
2025-11-18 12:45:46.767835,599617932866197110,-16.00
2025-11-18 12:45:46.767835,599617932866197110,-24.00
2025-11-18 12:45:46.767835,599617932866197110,-38.00
2025-11-18 12:45:46.767835,599617932866197110,-43.00
2025-11-18 12:45:46.767835,599617932866197110,-46.00
2025-11-18 12:45:46.767835,599617932866197110,-55.00
2025-11-18 12:45:46.767835,599617932866197110,-58.00
2025-11-18 12:45:46.767835,599617932866197110,-63.00
2025-11-18 12:45:46.767835,599617932866197110,-82.00
2025-11-18 12:45:46.767835,599617932866197110,-92.00
2025-11-18 12:45:46.767835,599617932866197110,-99.00
2025-11-18 12:45:46.767835,599617932866197110,-113.00
2025-11-18 12:45:46.767835,599617932866197110,-123.00
2025-11-18 12:45:46.767835,599617932866197110,-140.00
2025-11-18 12:45:46.767835,599617932866197110,-143.00
2025-11-18 12:45:47.369896,599617933426863635,-118.00
2025-11-18 12:45:47.369896,599617933426863635,-89.00
2025-11-18 12:45:47.369896,599617933426863635,-77.00
2025-11-18 12:45:47.369896,599617933426863635,-84.00
2025-11-18 12:45:47.369896,599617933426863635,-101.00
2025-11-18 12:45:47.369896,599617933426863635,-116.00
2025-11-18 12:45:47.369896,599617933426863635,-128.00
2025-11-18 12:45:47.369896,599617933426863635,-152.00
2025-11-18 12:45:47.369896,599617933426863635,-164.00
2025-11-18 12:45:47.369896,599617933426863635,-147.00
2025-11-18 12:45:47.369896,599617933426863635,-99.00
2025-11-18 12:45:47.369896,599617933426863635,-60.00
2025-11-18 12:45:47.369896,599617933426863635,-82.00
2025-11-18 12:45:47.369896,599617933426863635,-135.00
2025-11-18 12:45:47.369896,599617933426863635,-164.00
2025-11-18 12:45:47.369896,599617933426863635,-174.00
2025-11-18 12:45:47.369896,599617933426863635,-181.00
2025-11-18 12:45:47.369896,599617933426863635,-181.00
2025-11-18 12:45:47.369896,599617933426863635,-160.00
2025-11-18 12:45:47.369896,599617933426863635,-111.00
2025-11-18 12:45:47.369896,599617933426863635,-80.00
2025-11-18 12:45:47.369896,599617933426863635,-89.00
2025-11-18 12:45:47.369896,599617933426863635,-101.00
2025-11-18 12:45:47.369896,599617933426863635,-87.00
2025-11-18 12:45:47.369896,599617933426863635,-70.00
2025-11-18 12:45:47.369896,599617933426863635,-84.00
2025-11-18 12:45:47.369896,599617933426863635,-104.00
2025-11-18 12:45:47.369896,599617933426863635,-101.00
2025-11-18 12:45:47.369896,599617933426863635,-101.00
2025-11-18 12:45:47.369896,599617933426863635,-92.00
2025-11-18 12:45:47.369896,599617933426863635,-53.00
2025-11-18 12:45:47.369896,599617933426863635,-41.00
2025-11-18 12:45:47.369896,599617933426863635,-72.00
2025-11-18 12:45:47.369896,599617933426863635,-89.00
2025-11-18 12:45:47.369896,599617933426863635,-87.00
2025-11-18 12:45:47.369896,599617933426863635,-94.00
2025-11-18 12:45:47.369896,599617933426863635,-94.00
2025-11-18 12:45:47.369896,599617933426863635,-94.00
2025-11-18 12:45:47.369896,599617933426863635,-126.00
2025-11-18 12:45:47.369896,599617933426863635,-145.00
2025-11-18 12:45:47.369896,599617933426863635,16.00
2025-11-18 12:45:47.369896,599617933426863635,451.00
2025-11-18 12:45:47.369896,599617933426863635,943.00
2025-11-18 12:45:47.369896,599617933426863635,1086.00
2025-11-18 12:45:47.369896,599617933426863635,560.00
2025-11-18 12:45:47.369896,599617933426863635,-242.00
2025-11-18 12:45:47.369896,599617933426863635,-434.00
2025-11-18 12:45:47.369896,599617933426863635,-140.00
2025-11-18 12:45:47.369896,599617933426863635,-67.00
2025-11-18 12:45:47.369896,599617933426863635,-121.00
2025-11-18 12:45:47.369896,599617933426863635,-65.00
2025-11-18 12:45:47.369896,599617933426863635,-48.00
2025-11-18 12:45:47.369896,599617933426863635,-72.00
2025-11-18 12:45:47.369896,599617933426863635,-60.00
2025-11-18 12:45:47.369896,599617933426863635,-75.00
2025-11-18 12:45:47.369896,599617933426863635,-111.00
2025-11-18 12:45:47.369896,599617933426863635,-99.00
2025-11-18 12:45:47.369896,599617933426863635,-46.00
2025-11-18 12:45:47.369896,599617933426863635,-12.00
2025-11-18 12:45:47.369896,599617933426863635,-19.00
2025-11-18 12:45:47.369896,599617933426863635,4.00
2025-11-18 12:45:47.369896,599617933426863635,53.00
2025-11-18 12:45:47.369896,599617933426863635,24.00
2025-11-18 12:45:47.369896,599617933426863635,-24.00
2025-11-18 12:45:47.369896,599617933426863635,14.00
2025-11-18 12:45:47.369896,599617933426863635,53.00
2025-11-18 12:45:47.369896,599617933426863635,63.00
2025-11-18 12:45:47.369896,599617933426863635,106.00
2025-11-18 12:45:47.369896,599617933426863635,121.00
2025-11-18 12:45:47.369896,599617933426863635,104.00
2025-11-18 12:45:47.369896,599617933426863635,143.00
2025-11-18 12:45:47.369896,599617933426863635,174.00
2025-11-18 12:45:47.369896,599617933426863635,162.00
2025-11-18 12:45:47.909218,599617933987530158,169.00
2025-11-18 12:45:47.909218,599617933987530158,206.00
2025-11-18 12:45:47.909218,599617933987530158,244.00
2025-11-18 12:45:47.909218,599617933987530158,247.00
2025-11-18 12:45:47.909218,599617933987530158,252.00
2025-11-18 12:45:47.909218,599617933987530158,315.00
2025-11-18 12:45:47.909218,599617933987530158,305.00
2025-11-18 12:45:47.909218,599617933987530158,179.00
2025-11-18 12:45:47.909218,599617933987530158,113.00
2025-11-18 12:45:47.909218,599617933987530158,113.00
2025-11-18 12:45:47.909218,599617933987530158,60.00
2025-11-18 12:45:47.909218,599617933987530158,-14.00
2025-11-18 12:45:47.909218,599617933987530158,-16.00
2025-11-18 12:45:47.909218,599617933987530158,-9.00
2025-11-18 12:45:47.909218,599617933987530158,-67.00
2025-11-18 12:45:47.909218,599617933987530158,-77.00
2025-11-18 12:45:47.909218,599617933987530158,-29.00
2025-11-18 12:45:47.909218,599617933987530158,-63.00
2025-11-18 12:45:47.909218,599617933987530158,-133.00
2025-11-18 12:45:47.909218,599617933987530158,-138.00
2025-11-18 12:45:47.909218,599617933987530158,-113.00
2025-11-18 12:45:47.909218,599617933987530158,-104.00
2025-11-18 12:45:47.909218,599617933987530158,-55.00
2025-11-18 12:45:47.909218,599617933987530158,-19.00
2025-11-18 12:45:47.909218,599617933987530158,-58.00
2025-11-18 12:45:47.909218,599617933987530158,-63.00
2025-11-18 12:45:47.909218,599617933987530158,-21.00
2025-11-18 12:45:47.909218,599617933987530158,-43.00
2025-11-18 12:45:47.909218,599617933987530158,-77.00
2025-11-18 12:45:47.909218,599617933987530158,-94.00
2025-11-18 12:45:47.909218,599617933987530158,-99.00
2025-11-18 12:45:47.909218,599617933987530158,-46.00
2025-11-18 12:45:47.909218,599617933987530158,-58.00
2025-11-18 12:45:47.909218,599617933987530158,-126.00
2025-11-18 12:45:47.909218,599617933987530158,-77.00
2025-11-18 12:45:47.909218,599617933987530158,-60.00
2025-11-18 12:45:47.909218,599617933987530158,-138.00
2025-11-18 12:45:47.909218,599617933987530158,-116.00
2025-11-18 12:45:47.909218,599617933987530158,-63.00
2025-11-18 12:45:47.909218,599617933987530158,-94.00
2025-11-18 12:45:47.909218,599617933987530158,-121.00
2025-11-18 12:45:47.909218,599617933987530158,-126.00
2025-11-18 12:45:47.909218,599617933987530158,-128.00
2025-11-18 12:45:47.909218,599617933987530158,-113.00
2025-11-18 12:45:47.909218,599617933987530158,-99.00
2025-11-18 12:45:47.909218,599617933987530158,-111.00
2025-11-18 12:45:47.909218,599617933987530158,-126.00
2025-11-18 12:45:47.909218,599617933987530158,-128.00
2025-11-18 12:45:47.909218,599617933987530158,-128.00
2025-11-18 12:45:47.909218,599617933987530158,-140.00
2025-11-18 12:45:47.909218,599617933987530158,-155.00
2025-11-18 12:45:47.909218,599617933987530158,-143.00
2025-11-18 12:45:47.909218,599617933987530158,-150.00
2025-11-18 12:45:47.909218,599617933987530158,-194.00
2025-11-18 12:45:47.909218,599617933987530158,-179.00
2025-11-18 12:45:47.909218,599617933987530158,-111.00
2025-11-18 12:45:47.909218,599617933987530158,-106.00
2025-11-18 12:45:47.909218,599617933987530158,-138.00
2025-11-18 12:45:47.909218,599617933987530158,-104.00
2025-11-18 12:45:47.909218,599617933987530158,-84.00
2025-11-18 12:45:47.909218,599617933987530158,-135.00
2025-11-18 12:45:47.909218,599617933987530158,-135.00
2025-11-18 12:45:47.909218,599617933987530158,-97.00
2025-11-18 12:45:47.909218,599617933987530158,-116.00
2025-11-18 12:45:47.909218,599617933987530158,-113.00
2025-11-18 12:45:47.909218,599617933987530158,-77.00
2025-11-18 12:45:47.909218,599617933987530158,-89.00
2025-11-18 12:45:47.909218,599617933987530158,-111.00
2025-11-18 12:45:47.909218,599617933987530158,-109.00
2025-11-18 12:45:47.909218,599617933987530158,-104.00
2025-11-18 12:45:47.909218,599617933987530158,-116.00
2025-11-18 12:45:47.909218,599617933987530158,-118.00
2025-11-18 12:45:47.909218,599617933987530158,-106.00
2025-11-18 12:45:48.477995,599617934548227199,-101.00
2025-11-18 12:45:48.477995,599617934548227199,-111.00
2025-11-18 12:45:48.477995,599617934548227199,-147.00
2025-11-18 12:45:48.477995,599617934548227199,-206.00
2025-11-18 12:45:48.477995,599617934548227199,-133.00
2025-11-18 12:45:48.477995,599617934548227199,257.00
2025-11-18 12:45:48.477995,599617934548227199,812.00
2025-11-18 12:45:48.477995,599617934548227199,1098.00
2025-11-18 12:45:48.477995,599617934548227199,700.00
2025-11-18 12:45:48.477995,599617934548227199,-152.00
2025-11-18 12:45:48.477995,599617934548227199,-502.00
2025-11-18 12:45:48.477995,599617934548227199,-215.00
2025-11-18 12:45:48.477995,599617934548227199,-104.00
2025-11-18 12:45:48.477995,599617934548227199,-223.00
2025-11-18 12:45:48.477995,599617934548227199,-203.00
2025-11-18 12:45:48.477995,599617934548227199,-152.00
2025-11-18 12:45:48.477995,599617934548227199,-155.00
2025-11-18 12:45:48.477995,599617934548227199,-133.00
2025-11-18 12:45:48.477995,599617934548227199,-109.00
2025-11-18 12:45:48.477995,599617934548227199,-104.00
2025-11-18 12:45:48.477995,599617934548227199,-94.00
2025-11-18 12:45:48.477995,599617934548227199,-92.00
2025-11-18 12:45:48.477995,599617934548227199,-87.00
2025-11-18 12:45:48.477995,599617934548227199,-84.00
2025-11-18 12:45:48.477995,599617934548227199,-84.00
2025-11-18 12:45:48.477995,599617934548227199,-75.00
2025-11-18 12:45:48.477995,599617934548227199,-58.00
2025-11-18 12:45:48.477995,599617934548227199,-38.00
2025-11-18 12:45:48.477995,599617934548227199,-26.00
2025-11-18 12:45:48.477995,599617934548227199,-24.00
2025-11-18 12:45:48.477995,599617934548227199,-12.00
2025-11-18 12:45:48.477995,599617934548227199,7.00
2025-11-18 12:45:48.477995,599617934548227199,26.00
2025-11-18 12:45:48.477995,599617934548227199,46.00
2025-11-18 12:45:48.477995,599617934548227199,58.00
2025-11-18 12:45:48.477995,599617934548227199,70.00
2025-11-18 12:45:48.477995,599617934548227199,89.00
2025-11-18 12:45:48.477995,599617934548227199,118.00
2025-11-18 12:45:48.477995,599617934548227199,133.00
2025-11-18 12:45:48.477995,599617934548227199,147.00
2025-11-18 12:45:48.477995,599617934548227199,184.00
2025-11-18 12:45:48.477995,599617934548227199,208.00
2025-11-18 12:45:48.477995,599617934548227199,203.00
2025-11-18 12:45:48.477995,599617934548227199,191.00
2025-11-18 12:45:48.477995,599617934548227199,172.00
2025-11-18 12:45:48.477995,599617934548227199,118.00
2025-11-18 12:45:48.477995,599617934548227199,50.00
2025-11-18 12:45:48.477995,599617934548227199,-12.00
2025-11-18 12:45:48.477995,599617934548227199,-67.00
2025-11-18 12:45:48.477995,599617934548227199,-109.00
2025-11-18 12:45:48.477995,599617934548227199,-121.00
2025-11-18 12:45:48.477995,599617934548227199,-126.00
2025-11-18 12:45:48.477995,599617934548227199,-147.00
2025-11-18 12:45:48.477995,599617934548227199,-155.00
2025-11-18 12:45:48.477995,599617934548227199,-130.00
2025-11-18 12:45:48.477995,599617934548227199,-113.00
2025-11-18 12:45:48.477995,599617934548227199,-126.00
2025-11-18 12:45:48.477995,599617934548227199,-126.00
2025-11-18 12:45:48.477995,599617934548227199,-106.00
2025-11-18 12:45:48.477995,599617934548227199,-101.00
2025-11-18 12:45:48.477995,599617934548227199,-101.00
2025-11-18 12:45:48.477995,599617934548227199,-94.00
2025-11-18 12:45:48.477995,599617934548227199,-97.00
2025-11-18 12:45:48.477995,599617934548227199,-101.00
2025-11-18 12:45:48.477995,599617934548227199,-97.00
2025-11-18 12:45:48.477995,599617934548227199,-89.00
2025-11-18 12:45:48.477995,599617934548227199,-80.00
2025-11-18 12:45:48.477995,599617934548227199,-72.00
2025-11-18 12:45:48.477995,599617934548227199,-67.00
2025-11-18 12:45:48.477995,599617934548227199,-65.00
2025-11-18 12:45:48.477995,599617934548227199,-77.00
2025-11-18 12:45:48.477995,599617934548227199,-94.00
2025-11-18 12:45:48.477995,599617934548227199,-92.00
2025-11-18 12:45:49.018349,599617935108893722,-77.00
2025-11-18 12:45:49.018349,599617935108893722,-72.00
2025-11-18 12:45:49.018349,599617935108893722,-75.00
2025-11-18 12:45:49.018349,599617935108893722,-75.00
2025-11-18 12:45:49.018349,599617935108893722,-70.00
2025-11-18 12:45:49.018349,599617935108893722,-58.00
2025-11-18 12:45:49.018349,599617935108893722,-58.00
2025-11-18 12:45:49.018349,599617935108893722,-77.00
2025-11-18 12:45:49.018349,599617935108893722,-84.00
2025-11-18 12:45:49.018349,599617935108893722,-72.00
2025-11-18 12:45:49.018349,599617935108893722,-63.00
2025-11-18 12:45:49.018349,599617935108893722,-58.00
2025-11-18 12:45:49.018349,599617935108893722,-65.00
2025-11-18 12:45:49.018349,599617935108893722,-77.00
2025-11-18 12:45:49.018349,599617935108893722,-65.00
2025-11-18 12:45:49.018349,599617935108893722,-50.00
2025-11-18 12:45:49.018349,599617935108893722,-53.00
2025-11-18 12:45:49.018349,599617935108893722,-53.00
2025-11-18 12:45:49.018349,599617935108893722,-46.00
2025-11-18 12:45:49.018349,599617935108893722,-46.00
2025-11-18 12:45:49.018349,599617935108893722,-53.00
2025-11-18 12:45:49.018349,599617935108893722,-55.00
2025-11-18 12:45:49.018349,599617935108893722,-48.00
2025-11-18 12:45:49.018349,599617935108893722,-46.00
2025-11-18 12:45:49.018349,599617935108893722,-48.00
2025-11-18 12:45:49.018349,599617935108893722,-53.00
2025-11-18 12:45:49.018349,599617935108893722,-53.00
2025-11-18 12:45:49.018349,599617935108893722,-41.00
2025-11-18 12:45:49.018349,599617935108893722,-29.00
2025-11-18 12:45:49.018349,599617935108893722,-29.00
2025-11-18 12:45:49.018349,599617935108893722,-41.00
2025-11-18 12:45:49.018349,599617935108893722,-43.00
2025-11-18 12:45:49.018349,599617935108893722,-31.00
2025-11-18 12:45:49.018349,599617935108893722,-19.00
2025-11-18 12:45:49.018349,599617935108893722,-24.00
2025-11-18 12:45:49.018349,599617935108893722,-41.00
2025-11-18 12:45:49.018349,599617935108893722,-38.00
2025-11-18 12:45:49.018349,599617935108893722,-31.00
2025-11-18 12:45:49.018349,599617935108893722,-48.00
2025-11-18 12:45:49.018349,599617935108893722,-60.00
2025-11-18 12:45:49.018349,599617935108893722,-38.00
2025-11-18 12:45:49.018349,599617935108893722,-21.00
2025-11-18 12:45:49.018349,599617935108893722,-36.00
2025-11-18 12:45:49.018349,599617935108893722,-43.00
2025-11-18 12:45:49.018349,599617935108893722,-43.00
2025-11-18 12:45:49.018349,599617935108893722,-84.00
2025-11-18 12:45:49.018349,599617935108893722,-143.00
2025-11-18 12:45:49.018349,599617935108893722,-41.00
2025-11-18 12:45:49.018349,599617935108893722,373.00
2025-11-18 12:45:49.018349,599617935108893722,945.00
2025-11-18 12:45:49.018349,599617935108893722,1214.00
2025-11-18 12:45:49.018349,599617935108893722,751.00
2025-11-18 12:45:49.018349,599617935108893722,-138.00
2025-11-18 12:45:49.018349,599617935108893722,-458.00
2025-11-18 12:45:49.018349,599617935108893722,-162.00
2025-11-18 12:45:49.018349,599617935108893722,-65.00
2025-11-18 12:45:49.018349,599617935108893722,-177.00
2025-11-18 12:45:49.018349,599617935108893722,-140.00
2025-11-18 12:45:49.018349,599617935108893722,-89.00
2025-11-18 12:45:49.018349,599617935108893722,-118.00
2025-11-18 12:45:49.018349,599617935108893722,-111.00
2025-11-18 12:45:49.018349,599617935108893722,-84.00
2025-11-18 12:45:49.018349,599617935108893722,-84.00
2025-11-18 12:45:49.018349,599617935108893722,-82.00
2025-11-18 12:45:49.018349,599617935108893722,-70.00
2025-11-18 12:45:49.018349,599617935108893722,-63.00
2025-11-18 12:45:49.018349,599617935108893722,-50.00
2025-11-18 12:45:49.018349,599617935108893722,-29.00
2025-11-18 12:45:49.018349,599617935108893722,-26.00
2025-11-18 12:45:49.018349,599617935108893722,-31.00
2025-11-18 12:45:49.018349,599617935108893722,-26.00
2025-11-18 12:45:49.018349,599617935108893722,-12.00
2025-11-18 12:45:49.018349,599617935108893722,0.00
2025-11-18 12:45:49.586441,599617935669560245,4.00
2025-11-18 12:45:49.586441,599617935669560245,4.00
2025-11-18 12:45:49.586441,599617935669560245,29.00
2025-11-18 12:45:49.586441,599617935669560245,55.00
2025-11-18 12:45:49.586441,599617935669560245,65.00
2025-11-18 12:45:49.586441,599617935669560245,82.00
2025-11-18 12:45:49.586441,599617935669560245,109.00
2025-11-18 12:45:49.586441,599617935669560245,128.00
2025-11-18 12:45:49.586441,599617935669560245,147.00
2025-11-18 12:45:49.586441,599617935669560245,164.00
2025-11-18 12:45:49.586441,599617935669560245,179.00
2025-11-18 12:45:49.586441,599617935669560245,191.00
2025-11-18 12:45:49.586441,599617935669560245,194.00
2025-11-18 12:45:49.586441,599617935669560245,184.00
2025-11-18 12:45:49.586441,599617935669560245,164.00
2025-11-18 12:45:49.586441,599617935669560245,123.00
2025-11-18 12:45:49.586441,599617935669560245,63.00
2025-11-18 12:45:49.586441,599617935669560245,2.00
2025-11-18 12:45:49.586441,599617935669560245,-55.00
2025-11-18 12:45:49.586441,599617935669560245,-97.00
2025-11-18 12:45:49.586441,599617935669560245,-123.00
2025-11-18 12:45:49.586441,599617935669560245,-140.00
2025-11-18 12:45:49.586441,599617935669560245,-147.00
2025-11-18 12:45:49.586441,599617935669560245,-145.00
2025-11-18 12:45:49.586441,599617935669560245,-145.00
2025-11-18 12:45:49.586441,599617935669560245,-140.00
2025-11-18 12:45:49.586441,599617935669560245,-135.00
2025-11-18 12:45:49.586441,599617935669560245,-126.00
2025-11-18 12:45:49.586441,599617935669560245,-121.00
2025-11-18 12:45:49.586441,599617935669560245,-116.00
2025-11-18 12:45:49.586441,599617935669560245,-111.00
2025-11-18 12:45:49.586441,599617935669560245,-109.00
2025-11-18 12:45:49.586441,599617935669560245,-101.00
2025-11-18 12:45:49.586441,599617935669560245,-92.00
2025-11-18 12:45:49.586441,599617935669560245,-92.00
2025-11-18 12:45:49.586441,599617935669560245,-101.00
2025-11-18 12:45:49.586441,599617935669560245,-104.00
2025-11-18 12:45:49.586441,599617935669560245,-87.00
2025-11-18 12:45:49.586441,599617935669560245,-82.00
2025-11-18 12:45:49.586441,599617935669560245,-89.00
2025-11-18 12:45:49.586441,599617935669560245,-87.00
2025-11-18 12:45:49.586441,599617935669560245,-82.00
2025-11-18 12:45:49.586441,599617935669560245,-87.00
2025-11-18 12:45:49.586441,599617935669560245,-84.00
2025-11-18 12:45:49.586441,599617935669560245,-82.00
2025-11-18 12:45:49.586441,599617935669560245,-87.00
2025-11-18 12:45:49.586441,599617935669560245,-84.00
2025-11-18 12:45:49.586441,599617935669560245,-77.00
2025-11-18 12:45:49.586441,599617935669560245,-77.00
2025-11-18 12:45:49.586441,599617935669560245,-80.00
2025-11-18 12:45:49.586441,599617935669560245,-77.00
2025-11-18 12:45:49.586441,599617935669560245,-75.00
2025-11-18 12:45:49.586441,599617935669560245,-80.00
2025-11-18 12:45:49.586441,599617935669560245,-82.00
2025-11-18 12:45:49.586441,599617935669560245,-75.00
2025-11-18 12:45:49.586441,599617935669560245,-72.00
2025-11-18 12:45:49.586441,599617935669560245,-77.00
2025-11-18 12:45:49.586441,599617935669560245,-77.00
2025-11-18 12:45:49.586441,599617935669560245,-65.00
2025-11-18 12:45:49.586441,599617935669560245,-60.00
2025-11-18 12:45:49.586441,599617935669560245,-65.00
2025-11-18 12:45:49.586441,599617935669560245,-60.00
2025-11-18 12:45:49.586441,599617935669560245,-58.00
2025-11-18 12:45:49.586441,599617935669560245,-67.00
2025-11-18 12:45:49.586441,599617935669560245,-77.00
2025-11-18 12:45:49.586441,599617935669560245,-70.00
2025-11-18 12:45:49.586441,599617935669560245,-63.00
2025-11-18 12:45:49.586441,599617935669560245,-58.00
2025-11-18 12:45:49.586441,599617935669560245,-58.00
2025-11-18 12:45:49.586441,599617935669560245,-55.00
2025-11-18 12:45:49.586441,599617935669560245,-50.00
2025-11-18 12:45:49.586441,599617935669560245,-55.00
2025-11-18 12:45:49.586441,599617935669560245,-65.00
2025-11-18 12:45:50.127873,599617936230226768,-67.00
2025-11-18 12:45:50.127873,599617936230226768,-58.00
2025-11-18 12:45:50.127873,599617936230226768,-48.00
2025-11-18 12:45:50.127873,599617936230226768,-48.00
2025-11-18 12:45:50.127873,599617936230226768,-53.00
2025-11-18 12:45:50.127873,599617936230226768,-46.00
2025-11-18 12:45:50.127873,599617936230226768,-46.00
2025-11-18 12:45:50.127873,599617936230226768,-48.00
2025-11-18 12:45:50.127873,599617936230226768,-36.00
2025-11-18 12:45:50.127873,599617936230226768,-26.00
2025-11-18 12:45:50.127873,599617936230226768,-46.00
2025-11-18 12:45:50.127873,599617936230226768,-60.00
2025-11-18 12:45:50.127873,599617936230226768,-55.00
2025-11-18 12:45:50.127873,599617936230226768,-55.00
2025-11-18 12:45:50.127873,599617936230226768,-58.00
2025-11-18 12:45:50.127873,599617936230226768,-58.00
2025-11-18 12:45:50.127873,599617936230226768,-65.00
2025-11-18 12:45:50.127873,599617936230226768,-72.00
2025-11-18 12:45:50.127873,599617936230226768,-65.00
2025-11-18 12:45:50.127873,599617936230226768,-67.00
2025-11-18 12:45:50.127873,599617936230226768,-106.00
2025-11-18 12:45:50.127873,599617936230226768,-155.00
2025-11-18 12:45:50.127873,599617936230226768,-29.00
2025-11-18 12:45:50.127873,599617936230226768,429.00
2025-11-18 12:45:50.127873,599617936230226768,1018.00
2025-11-18 12:45:50.127873,599617936230226768,1214.00
2025-11-18 12:45:50.127873,599617936230226768,652.00
2025-11-18 12:45:50.127873,599617936230226768,-227.00
2025-11-18 12:45:50.127873,599617936230226768,-460.00
2025-11-18 12:45:50.127873,599617936230226768,-152.00
2025-11-18 12:45:50.127873,599617936230226768,-99.00
2025-11-18 12:45:50.127873,599617936230226768,-201.00
2025-11-18 12:45:50.127873,599617936230226768,-143.00
2025-11-18 12:45:50.127873,599617936230226768,-109.00
2025-11-18 12:45:50.127873,599617936230226768,-143.00
2025-11-18 12:45:50.127873,599617936230226768,-123.00
2025-11-18 12:45:50.127873,599617936230226768,-92.00
2025-11-18 12:45:50.127873,599617936230226768,-94.00
2025-11-18 12:45:50.127873,599617936230226768,-89.00
2025-11-18 12:45:50.127873,599617936230226768,-75.00
2025-11-18 12:45:50.127873,599617936230226768,-70.00
2025-11-18 12:45:50.127873,599617936230226768,-70.00
2025-11-18 12:45:50.127873,599617936230226768,-67.00
2025-11-18 12:45:50.127873,599617936230226768,-58.00
2025-11-18 12:45:50.127873,599617936230226768,-43.00
2025-11-18 12:45:50.127873,599617936230226768,-29.00
2025-11-18 12:45:50.127873,599617936230226768,-16.00
2025-11-18 12:45:50.127873,599617936230226768,-12.00
2025-11-18 12:45:50.127873,599617936230226768,-2.00
2025-11-18 12:45:50.127873,599617936230226768,9.00
2025-11-18 12:45:50.127873,599617936230226768,21.00
2025-11-18 12:45:50.127873,599617936230226768,33.00
2025-11-18 12:45:50.127873,599617936230226768,48.00
2025-11-18 12:45:50.127873,599617936230226768,63.00
2025-11-18 12:45:50.127873,599617936230226768,84.00
2025-11-18 12:45:50.127873,599617936230226768,111.00
2025-11-18 12:45:50.127873,599617936230226768,135.00
2025-11-18 12:45:50.127873,599617936230226768,152.00
2025-11-18 12:45:50.127873,599617936230226768,164.00
2025-11-18 12:45:50.127873,599617936230226768,174.00
2025-11-18 12:45:50.127873,599617936230226768,181.00
2025-11-18 12:45:50.127873,599617936230226768,172.00
2025-11-18 12:45:50.127873,599617936230226768,150.00
2025-11-18 12:45:50.127873,599617936230226768,113.00
2025-11-18 12:45:50.127873,599617936230226768,60.00
2025-11-18 12:45:50.127873,599617936230226768,-2.00
2025-11-18 12:45:50.127873,599617936230226768,-58.00
2025-11-18 12:45:50.127873,599617936230226768,-101.00
2025-11-18 12:45:50.127873,599617936230226768,-135.00
2025-11-18 12:45:50.127873,599617936230226768,-152.00
2025-11-18 12:45:50.127873,599617936230226768,-145.00
2025-11-18 12:45:50.127873,599617936230226768,-143.00
2025-11-18 12:45:50.127873,599617936230226768,-150.00
2025-11-18 12:45:50.789839,599617936790867861,-147.00
2025-11-18 12:45:50.789839,599617936790867861,-135.00
2025-11-18 12:45:50.789839,599617936790867861,-133.00
2025-11-18 12:45:50.789839,599617936790867861,-133.00
2025-11-18 12:45:50.789839,599617936790867861,-126.00
2025-11-18 12:45:50.789839,599617936790867861,-121.00
2025-11-18 12:45:50.789839,599617936790867861,-123.00
2025-11-18 12:45:50.789839,599617936790867861,-116.00
2025-11-18 12:45:50.789839,599617936790867861,-106.00
2025-11-18 12:45:50.789839,599617936790867861,-101.00
2025-11-18 12:45:50.789839,599617936790867861,-101.00
2025-11-18 12:45:50.789839,599617936790867861,-99.00
2025-11-18 12:45:50.789839,599617936790867861,-99.00
2025-11-18 12:45:50.789839,599617936790867861,-101.00
2025-11-18 12:45:50.789839,599617936790867861,-99.00
2025-11-18 12:45:50.789839,599617936790867861,-99.00
2025-11-18 12:45:50.789839,599617936790867861,-104.00
2025-11-18 12:45:50.789839,599617936790867861,-104.00
2025-11-18 12:45:50.789839,599617936790867861,-94.00
2025-11-18 12:45:50.789839,599617936790867861,-84.00
2025-11-18 12:45:50.789839,599617936790867861,-87.00
2025-11-18 12:45:50.789839,599617936790867861,-89.00
2025-11-18 12:45:50.789839,599617936790867861,-84.00
2025-11-18 12:45:50.789839,599617936790867861,-84.00
2025-11-18 12:45:50.789839,599617936790867861,-89.00
2025-11-18 12:45:50.789839,599617936790867861,-87.00
2025-11-18 12:45:50.789839,599617936790867861,-77.00
2025-11-18 12:45:50.789839,599617936790867861,-80.00
2025-11-18 12:45:50.789839,599617936790867861,-84.00
2025-11-18 12:45:50.789839,599617936790867861,-84.00
2025-11-18 12:45:50.789839,599617936790867861,-87.00
2025-11-18 12:45:50.789839,599617936790867861,-82.00
2025-11-18 12:45:50.789839,599617936790867861,-75.00
2025-11-18 12:45:50.789839,599617936790867861,-72.00
2025-11-18 12:45:50.789839,599617936790867861,-72.00
2025-11-18 12:45:50.789839,599617936790867861,-67.00
2025-11-18 12:45:50.789839,599617936790867861,-67.00
2025-11-18 12:45:50.789839,599617936790867861,-75.00
2025-11-18 12:45:50.789839,599617936790867861,-72.00
2025-11-18 12:45:50.789839,599617936790867861,-63.00
2025-11-18 12:45:50.789839,599617936790867861,-60.00
2025-11-18 12:45:50.789839,599617936790867861,-63.00
2025-11-18 12:45:50.789839,599617936790867861,-63.00
2025-11-18 12:45:50.789839,599617936790867861,-65.00
2025-11-18 12:45:50.789839,599617936790867861,-72.00
2025-11-18 12:45:50.789839,599617936790867861,-72.00
2025-11-18 12:45:50.789839,599617936790867861,-58.00
2025-11-18 12:45:50.789839,599617936790867861,-50.00
2025-11-18 12:45:50.789839,599617936790867861,-55.00
2025-11-18 12:45:50.789839,599617936790867861,-58.00
2025-11-18 12:45:50.789839,599617936790867861,-55.00
2025-11-18 12:45:50.789839,599617936790867861,-55.00
2025-11-18 12:45:50.789839,599617936790867861,-53.00
2025-11-18 12:45:50.789839,599617936790867861,-50.00
2025-11-18 12:45:50.789839,599617936790867861,-63.00
2025-11-18 12:45:50.789839,599617936790867861,-65.00
2025-11-18 12:45:50.789839,599617936790867861,-46.00
2025-11-18 12:45:50.789839,599617936790867861,-31.00
2025-11-18 12:45:50.789839,599617936790867861,-31.00
2025-11-18 12:45:50.789839,599617936790867861,-33.00
2025-11-18 12:45:50.789839,599617936790867861,-33.00
2025-11-18 12:45:50.789839,599617936790867861,-36.00
2025-11-18 12:45:50.789839,599617936790867861,-43.00
2025-11-18 12:45:50.789839,599617936790867861,-53.00
2025-11-18 12:45:50.789839,599617936790867861,-58.00
2025-11-18 12:45:50.789839,599617936790867861,-60.00
2025-11-18 12:45:50.789839,599617936790867861,-55.00
2025-11-18 12:45:50.789839,599617936790867861,-46.00
2025-11-18 12:45:50.789839,599617936790867861,-46.00
2025-11-18 12:45:50.789839,599617936790867861,-50.00
2025-11-18 12:45:50.789839,599617936790867861,-60.00
2025-11-18 12:45:50.789839,599617936790867861,-111.00
2025-11-18 12:45:50.789839,599617936790867861,-147.00
2025-11-18 12:45:51.300751,599617937351559816,55.00
2025-11-18 12:45:51.300751,599617937351559816,582.00
2025-11-18 12:45:51.300751,599617937351559816,1117.00
2025-11-18 12:45:51.300751,599617937351559816,1132.00
2025-11-18 12:45:51.300751,599617937351559816,407.00
2025-11-18 12:45:51.300751,599617937351559816,-368.00
2025-11-18 12:45:51.300751,599617937351559816,-383.00
2025-11-18 12:45:51.300751,599617937351559816,-94.00
2025-11-18 12:45:51.300751,599617937351559816,-130.00
2025-11-18 12:45:51.300751,599617937351559816,-201.00
2025-11-18 12:45:51.300751,599617937351559816,-121.00
2025-11-18 12:45:51.300751,599617937351559816,-99.00
2025-11-18 12:45:51.300751,599617937351559816,-123.00
2025-11-18 12:45:51.300751,599617937351559816,-99.00
2025-11-18 12:45:51.300751,599617937351559816,-80.00
2025-11-18 12:45:51.300751,599617937351559816,-87.00
2025-11-18 12:45:51.300751,599617937351559816,-80.00
2025-11-18 12:45:51.300751,599617937351559816,-67.00
2025-11-18 12:45:51.300751,599617937351559816,-63.00
2025-11-18 12:45:51.300751,599617937351559816,-58.00
2025-11-18 12:45:51.300751,599617937351559816,-48.00
2025-11-18 12:45:51.300751,599617937351559816,-41.00
2025-11-18 12:45:51.300751,599617937351559816,-33.00
2025-11-18 12:45:51.300751,599617937351559816,-21.00
2025-11-18 12:45:51.300751,599617937351559816,-4.00
2025-11-18 12:45:51.300751,599617937351559816,4.00
2025-11-18 12:45:51.300751,599617937351559816,12.00
2025-11-18 12:45:51.300751,599617937351559816,19.00
2025-11-18 12:45:51.300751,599617937351559816,33.00
2025-11-18 12:45:51.300751,599617937351559816,48.00
2025-11-18 12:45:51.300751,599617937351559816,63.00
2025-11-18 12:45:51.300751,599617937351559816,80.00
2025-11-18 12:45:51.300751,599617937351559816,99.00
2025-11-18 12:45:51.300751,599617937351559816,118.00
2025-11-18 12:45:51.300751,599617937351559816,138.00
2025-11-18 12:45:51.300751,599617937351559816,157.00
2025-11-18 12:45:51.300751,599617937351559816,174.00
2025-11-18 12:45:51.300751,599617937351559816,184.00
2025-11-18 12:45:51.300751,599617937351559816,181.00
2025-11-18 12:45:51.300751,599617937351559816,172.00
2025-11-18 12:45:51.300751,599617937351559816,152.00
2025-11-18 12:45:51.300751,599617937351559816,106.00
2025-11-18 12:45:51.300751,599617937351559816,50.00
2025-11-18 12:45:51.300751,599617937351559816,0.00
2025-11-18 12:45:51.300751,599617937351559816,-48.00
2025-11-18 12:45:51.300751,599617937351559816,-92.00
2025-11-18 12:45:51.300751,599617937351559816,-123.00
2025-11-18 12:45:51.300751,599617937351559816,-145.00
2025-11-18 12:45:51.300751,599617937351559816,-155.00
2025-11-18 12:45:51.300751,599617937351559816,-152.00
2025-11-18 12:45:51.300751,599617937351559816,-145.00
2025-11-18 12:45:51.300751,599617937351559816,-143.00
2025-11-18 12:45:51.300751,599617937351559816,-138.00
2025-11-18 12:45:51.300751,599617937351559816,-135.00
2025-11-18 12:45:51.300751,599617937351559816,-130.00
2025-11-18 12:45:51.300751,599617937351559816,-123.00
2025-11-18 12:45:51.300751,599617937351559816,-113.00
2025-11-18 12:45:51.300751,599617937351559816,-109.00
2025-11-18 12:45:51.300751,599617937351559816,-109.00
2025-11-18 12:45:51.300751,599617937351559816,-113.00
2025-11-18 12:45:51.300751,599617937351559816,-109.00
2025-11-18 12:45:51.300751,599617937351559816,-97.00
2025-11-18 12:45:51.300751,599617937351559816,-97.00
2025-11-18 12:45:51.300751,599617937351559816,-101.00
2025-11-18 12:45:51.300751,599617937351559816,-97.00
2025-11-18 12:45:51.300751,599617937351559816,-97.00
2025-11-18 12:45:51.300751,599617937351559816,-101.00
2025-11-18 12:45:51.300751,599617937351559816,-99.00
2025-11-18 12:45:51.300751,599617937351559816,-94.00
2025-11-18 12:45:51.300751,599617937351559816,-97.00
2025-11-18 12:45:51.300751,599617937351559816,-97.00
2025-11-18 12:45:51.300751,599617937351559816,-94.00
2025-11-18 12:45:51.300751,599617937351559816,-94.00
2025-11-18 12:45:51.837456,599617937912226339,-94.00
2025-11-18 12:45:51.837456,599617937912226339,-84.00
2025-11-18 12:45:51.837456,599617937912226339,-77.00
2025-11-18 12:45:51.837456,599617937912226339,-80.00
2025-11-18 12:45:51.837456,599617937912226339,-82.00
2025-11-18 12:45:51.837456,599617937912226339,-80.00
2025-11-18 12:45:51.837456,599617937912226339,-82.00
2025-11-18 12:45:51.837456,599617937912226339,-82.00
2025-11-18 12:45:51.837456,599617937912226339,-80.00
2025-11-18 12:45:51.837456,599617937912226339,-72.00
2025-11-18 12:45:51.837456,599617937912226339,-70.00
2025-11-18 12:45:51.837456,599617937912226339,-72.00
2025-11-18 12:45:51.837456,599617937912226339,-72.00
2025-11-18 12:45:51.837456,599617937912226339,-70.00
2025-11-18 12:45:51.837456,599617937912226339,-72.00
2025-11-18 12:45:51.837456,599617937912226339,-77.00
2025-11-18 12:45:51.837456,599617937912226339,-75.00
2025-11-18 12:45:51.837456,599617937912226339,-65.00
2025-11-18 12:45:51.837456,599617937912226339,-63.00
2025-11-18 12:45:51.837456,599617937912226339,-67.00
2025-11-18 12:45:51.837456,599617937912226339,-72.00
2025-11-18 12:45:51.837456,599617937912226339,-65.00
2025-11-18 12:45:51.837456,599617937912226339,-60.00
2025-11-18 12:45:51.837456,599617937912226339,-60.00
2025-11-18 12:45:51.837456,599617937912226339,-63.00
2025-11-18 12:45:51.837456,599617937912226339,-65.00
2025-11-18 12:45:51.837456,599617937912226339,-63.00
2025-11-18 12:45:51.837456,599617937912226339,-63.00
2025-11-18 12:45:51.837456,599617937912226339,-65.00
2025-11-18 12:45:51.837456,599617937912226339,-63.00
2025-11-18 12:45:51.837456,599617937912226339,-63.00
2025-11-18 12:45:51.837456,599617937912226339,-60.00
2025-11-18 12:45:51.837456,599617937912226339,-60.00
2025-11-18 12:45:51.837456,599617937912226339,-63.00
2025-11-18 12:45:51.837456,599617937912226339,-63.00
2025-11-18 12:45:51.837456,599617937912226339,-55.00
2025-11-18 12:45:51.837456,599617937912226339,-46.00
2025-11-18 12:45:51.837456,599617937912226339,-43.00
2025-11-18 12:45:51.837456,599617937912226339,-43.00
2025-11-18 12:45:51.837456,599617937912226339,-38.00
2025-11-18 12:45:51.837456,599617937912226339,-38.00
2025-11-18 12:45:51.837456,599617937912226339,-43.00
2025-11-18 12:45:51.837456,599617937912226339,-48.00
2025-11-18 12:45:51.837456,599617937912226339,-53.00
2025-11-18 12:45:51.837456,599617937912226339,-60.00
2025-11-18 12:45:51.837456,599617937912226339,-55.00
2025-11-18 12:45:51.837456,599617937912226339,-53.00
2025-11-18 12:45:51.837456,599617937912226339,-60.00
2025-11-18 12:45:51.837456,599617937912226339,-60.00
2025-11-18 12:45:51.837456,599617937912226339,-53.00
2025-11-18 12:45:51.837456,599617937912226339,-65.00
2025-11-18 12:45:51.837456,599617937912226339,-101.00
2025-11-18 12:45:51.837456,599617937912226339,-147.00
2025-11-18 12:45:51.837456,599617937912226339,-65.00
2025-11-18 12:45:51.837456,599617937912226339,332.00
2025-11-18 12:45:51.837456,599617937912226339,928.00
2025-11-18 12:45:51.837456,599617937912226339,1234.00
2025-11-18 12:45:51.837456,599617937912226339,785.00
2025-11-18 12:45:51.837456,599617937912226339,-128.00
2025-11-18 12:45:51.837456,599617937912226339,-485.00
2025-11-18 12:45:51.837456,599617937912226339,-189.00
2025-11-18 12:45:51.837456,599617937912226339,-80.00
2025-11-18 12:45:51.837456,599617937912226339,-186.00
2025-11-18 12:45:51.837456,599617937912226339,-150.00
2025-11-18 12:45:51.837456,599617937912226339,-101.00
2025-11-18 12:45:51.837456,599617937912226339,-123.00
2025-11-18 12:45:51.837456,599617937912226339,-106.00
2025-11-18 12:45:51.837456,599617937912226339,-77.00
2025-11-18 12:45:51.837456,599617937912226339,-84.00
2025-11-18 12:45:51.837456,599617937912226339,-84.00
2025-11-18 12:45:51.837456,599617937912226339,-70.00
2025-11-18 12:45:51.837456,599617937912226339,-63.00
2025-11-18 12:45:51.837456,599617937912226339,-58.00
2025-11-18 12:45:52.380366,599617938472872518,-48.00
2025-11-18 12:45:52.380366,599617938472872518,-38.00
2025-11-18 12:45:52.380366,599617938472872518,-33.00
2025-11-18 12:45:52.380366,599617938472872518,-21.00
2025-11-18 12:45:52.380366,599617938472872518,-9.00
2025-11-18 12:45:52.380366,599617938472872518,-2.00
2025-11-18 12:45:52.380366,599617938472872518,4.00
2025-11-18 12:45:52.380366,599617938472872518,19.00
2025-11-18 12:45:52.380366,599617938472872518,29.00
2025-11-18 12:45:52.380366,599617938472872518,41.00
2025-11-18 12:45:52.380366,599617938472872518,60.00
2025-11-18 12:45:52.380366,599617938472872518,80.00
2025-11-18 12:45:52.380366,599617938472872518,99.00
2025-11-18 12:45:52.380366,599617938472872518,123.00
2025-11-18 12:45:52.380366,599617938472872518,145.00
2025-11-18 12:45:52.380366,599617938472872518,160.00
2025-11-18 12:45:52.380366,599617938472872518,174.00
2025-11-18 12:45:52.380366,599617938472872518,186.00
2025-11-18 12:45:52.380366,599617938472872518,189.00
2025-11-18 12:45:52.380366,599617938472872518,186.00
2025-11-18 12:45:52.380366,599617938472872518,174.00
2025-11-18 12:45:52.380366,599617938472872518,140.00
2025-11-18 12:45:52.380366,599617938472872518,87.00
2025-11-18 12:45:52.380366,599617938472872518,26.00
2025-11-18 12:45:52.380366,599617938472872518,-31.00
2025-11-18 12:45:52.380366,599617938472872518,-77.00
2025-11-18 12:45:52.380366,599617938472872518,-113.00
2025-11-18 12:45:52.380366,599617938472872518,-138.00
2025-11-18 12:45:52.380366,599617938472872518,-147.00
2025-11-18 12:45:52.380366,599617938472872518,-150.00
2025-11-18 12:45:52.380366,599617938472872518,-152.00
2025-11-18 12:45:52.380366,599617938472872518,-150.00
2025-11-18 12:45:52.380366,599617938472872518,-147.00
2025-11-18 12:45:52.380366,599617938472872518,-143.00
2025-11-18 12:45:52.380366,599617938472872518,-135.00
2025-11-18 12:45:52.380366,599617938472872518,-126.00
2025-11-18 12:45:52.380366,599617938472872518,-116.00
2025-11-18 12:45:52.380366,599617938472872518,-116.00
2025-11-18 12:45:52.380366,599617938472872518,-118.00
2025-11-18 12:45:52.380366,599617938472872518,-113.00
2025-11-18 12:45:52.380366,599617938472872518,-101.00
2025-11-18 12:45:52.380366,599617938472872518,-99.00
2025-11-18 12:45:52.380366,599617938472872518,-104.00
2025-11-18 12:45:52.380366,599617938472872518,-104.00
2025-11-18 12:45:52.380366,599617938472872518,-99.00
2025-11-18 12:45:52.380366,599617938472872518,-94.00
2025-11-18 12:45:52.380366,599617938472872518,-92.00
2025-11-18 12:45:52.380366,599617938472872518,-92.00
2025-11-18 12:45:52.380366,599617938472872518,-94.00
2025-11-18 12:45:52.380366,599617938472872518,-94.00
2025-11-18 12:45:52.380366,599617938472872518,-94.00
2025-11-18 12:45:52.380366,599617938472872518,-94.00
2025-11-18 12:45:52.380366,599617938472872518,-94.00
2025-11-18 12:45:52.380366,599617938472872518,-89.00
2025-11-18 12:45:52.380366,599617938472872518,-87.00
2025-11-18 12:45:52.380366,599617938472872518,-89.00
2025-11-18 12:45:52.380366,599617938472872518,-92.00
2025-11-18 12:45:52.380366,599617938472872518,-89.00
2025-11-18 12:45:52.380366,599617938472872518,-82.00
2025-11-18 12:45:52.380366,599617938472872518,-77.00
2025-11-18 12:45:52.380366,599617938472872518,-75.00
2025-11-18 12:45:52.380366,599617938472872518,-75.00
2025-11-18 12:45:52.380366,599617938472872518,-77.00
2025-11-18 12:45:52.380366,599617938472872518,-75.00
2025-11-18 12:45:52.380366,599617938472872518,-72.00
2025-11-18 12:45:52.380366,599617938472872518,-72.00
2025-11-18 12:45:52.380366,599617938472872518,-72.00
2025-11-18 12:45:52.380366,599617938472872518,-75.00
2025-11-18 12:45:52.380366,599617938472872518,-72.00
2025-11-18 12:45:52.380366,599617938472872518,-63.00
2025-11-18 12:45:52.380366,599617938472872518,-60.00
2025-11-18 12:45:52.380366,599617938472872518,-67.00
2025-11-18 12:45:52.380366,599617938472872518,-65.00
2025-11-18 12:45:52.952433,599617939033528867,-60.00
2025-11-18 12:45:52.952433,599617939033528867,-60.00
2025-11-18 12:45:52.952433,599617939033528867,-60.00
2025-11-18 12:45:52.952433,599617939033528867,-60.00
2025-11-18 12:45:52.952433,599617939033528867,-63.00
2025-11-18 12:45:52.952433,599617939033528867,-60.00
2025-11-18 12:45:52.952433,599617939033528867,-58.00
2025-11-18 12:45:52.952433,599617939033528867,-58.00
2025-11-18 12:45:52.952433,599617939033528867,-58.00
2025-11-18 12:45:52.952433,599617939033528867,-58.00
2025-11-18 12:45:52.952433,599617939033528867,-55.00
2025-11-18 12:45:52.952433,599617939033528867,-55.00
2025-11-18 12:45:52.952433,599617939033528867,-50.00
2025-11-18 12:45:52.952433,599617939033528867,-43.00
2025-11-18 12:45:52.952433,599617939033528867,-41.00
2025-11-18 12:45:52.952433,599617939033528867,-36.00
2025-11-18 12:45:52.952433,599617939033528867,-29.00
2025-11-18 12:45:52.952433,599617939033528867,-31.00
2025-11-18 12:45:52.952433,599617939033528867,-41.00
2025-11-18 12:45:52.952433,599617939033528867,-48.00
2025-11-18 12:45:52.952433,599617939033528867,-55.00
2025-11-18 12:45:52.952433,599617939033528867,-53.00
2025-11-18 12:45:52.952433,599617939033528867,-50.00
2025-11-18 12:45:52.952433,599617939033528867,-53.00
2025-11-18 12:45:52.952433,599617939033528867,-55.00
2025-11-18 12:45:52.952433,599617939033528867,-50.00
2025-11-18 12:45:52.952433,599617939033528867,-46.00
2025-11-18 12:45:52.952433,599617939033528867,-75.00
2025-11-18 12:45:52.952433,599617939033528867,-135.00
2025-11-18 12:45:52.952433,599617939033528867,-99.00
2025-11-18 12:45:52.952433,599617939033528867,230.00
2025-11-18 12:45:52.952433,599617939033528867,817.00
2025-11-18 12:45:52.952433,599617939033528867,1244.00
2025-11-18 12:45:52.952433,599617939033528867,994.00
2025-11-18 12:45:52.952433,599617939033528867,101.00
2025-11-18 12:45:52.952433,599617939033528867,-472.00
2025-11-18 12:45:52.952433,599617939033528867,-266.00
2025-11-18 12:45:52.952433,599617939033528867,-67.00
2025-11-18 12:45:52.952433,599617939033528867,-177.00
2025-11-18 12:45:52.952433,599617939033528867,-174.00
2025-11-18 12:45:52.952433,599617939033528867,-92.00
2025-11-18 12:45:52.952433,599617939033528867,-106.00
2025-11-18 12:45:52.952433,599617939033528867,-121.00
2025-11-18 12:45:52.952433,599617939033528867,-94.00
2025-11-18 12:45:52.952433,599617939033528867,-84.00
2025-11-18 12:45:52.952433,599617939033528867,-87.00
2025-11-18 12:45:52.952433,599617939033528867,-77.00
2025-11-18 12:45:52.952433,599617939033528867,-70.00
2025-11-18 12:45:52.952433,599617939033528867,-63.00
2025-11-18 12:45:52.952433,599617939033528867,-50.00
2025-11-18 12:45:52.952433,599617939033528867,-41.00
2025-11-18 12:45:52.952433,599617939033528867,-33.00
2025-11-18 12:45:52.952433,599617939033528867,-24.00
2025-11-18 12:45:52.952433,599617939033528867,-14.00
2025-11-18 12:45:52.952433,599617939033528867,-2.00
2025-11-18 12:45:52.952433,599617939033528867,4.00
2025-11-18 12:45:52.952433,599617939033528867,12.00
2025-11-18 12:45:52.952433,599617939033528867,16.00
2025-11-18 12:45:52.952433,599617939033528867,33.00
2025-11-18 12:45:52.952433,599617939033528867,58.00
2025-11-18 12:45:52.952433,599617939033528867,77.00
2025-11-18 12:45:52.952433,599617939033528867,89.00
2025-11-18 12:45:52.952433,599617939033528867,109.00
2025-11-18 12:45:52.952433,599617939033528867,133.00
2025-11-18 12:45:52.952433,599617939033528867,155.00
2025-11-18 12:45:52.952433,599617939033528867,169.00
2025-11-18 12:45:52.952433,599617939033528867,179.00
2025-11-18 12:45:52.952433,599617939033528867,186.00
2025-11-18 12:45:52.952433,599617939033528867,181.00
2025-11-18 12:45:52.952433,599617939033528867,160.00
2025-11-18 12:45:52.952433,599617939033528867,130.00
2025-11-18 12:45:52.952433,599617939033528867,92.00
2025-11-18 12:45:52.952433,599617939033528867,33.00
2025-11-18 12:45:53.552406,599617939594195390,-31.00
2025-11-18 12:45:53.552406,599617939594195390,-80.00
2025-11-18 12:45:53.552406,599617939594195390,-116.00
2025-11-18 12:45:53.552406,599617939594195390,-143.00
2025-11-18 12:45:53.552406,599617939594195390,-155.00
2025-11-18 12:45:53.552406,599617939594195390,-157.00
2025-11-18 12:45:53.552406,599617939594195390,-162.00
2025-11-18 12:45:53.552406,599617939594195390,-160.00
2025-11-18 12:45:53.552406,599617939594195390,-150.00
2025-11-18 12:45:53.552406,599617939594195390,-138.00
2025-11-18 12:45:53.552406,599617939594195390,-130.00
2025-11-18 12:45:53.552406,599617939594195390,-126.00
2025-11-18 12:45:53.552406,599617939594195390,-121.00
2025-11-18 12:45:53.552406,599617939594195390,-116.00
2025-11-18 12:45:53.552406,599617939594195390,-113.00
2025-11-18 12:45:53.552406,599617939594195390,-113.00
2025-11-18 12:45:53.552406,599617939594195390,-113.00
2025-11-18 12:45:53.552406,599617939594195390,-111.00
2025-11-18 12:45:53.552406,599617939594195390,-104.00
2025-11-18 12:45:53.552406,599617939594195390,-94.00
2025-11-18 12:45:53.552406,599617939594195390,-97.00
2025-11-18 12:45:53.552406,599617939594195390,-106.00
2025-11-18 12:45:53.552406,599617939594195390,-109.00
2025-11-18 12:45:53.552406,599617939594195390,-97.00
2025-11-18 12:45:53.552406,599617939594195390,-89.00
2025-11-18 12:45:53.552406,599617939594195390,-94.00
2025-11-18 12:45:53.552406,599617939594195390,-97.00
2025-11-18 12:45:53.552406,599617939594195390,-94.00
2025-11-18 12:45:53.552406,599617939594195390,-92.00
2025-11-18 12:45:53.552406,599617939594195390,-94.00
2025-11-18 12:45:53.552406,599617939594195390,-89.00
2025-11-18 12:45:53.552406,599617939594195390,-82.00
2025-11-18 12:45:53.552406,599617939594195390,-87.00
2025-11-18 12:45:53.552406,599617939594195390,-94.00
2025-11-18 12:45:53.552406,599617939594195390,-92.00
2025-11-18 12:45:53.552406,599617939594195390,-84.00
2025-11-18 12:45:53.552406,599617939594195390,-84.00
2025-11-18 12:45:53.552406,599617939594195390,-82.00
2025-11-18 12:45:53.552406,599617939594195390,-80.00
2025-11-18 12:45:53.552406,599617939594195390,-80.00
2025-11-18 12:45:53.552406,599617939594195390,-77.00
2025-11-18 12:45:53.552406,599617939594195390,-75.00
2025-11-18 12:45:53.552406,599617939594195390,-77.00
2025-11-18 12:45:53.552406,599617939594195390,-77.00
2025-11-18 12:45:53.552406,599617939594195390,-75.00
2025-11-18 12:45:53.552406,599617939594195390,-75.00
2025-11-18 12:45:53.552406,599617939594195390,-72.00
2025-11-18 12:45:53.552406,599617939594195390,-67.00
2025-11-18 12:45:53.552406,599617939594195390,-65.00
2025-11-18 12:45:53.552406,599617939594195390,-63.00
2025-11-18 12:45:53.552406,599617939594195390,-60.00
2025-11-18 12:45:53.552406,599617939594195390,-60.00
2025-11-18 12:45:53.552406,599617939594195390,-65.00
2025-11-18 12:45:53.552406,599617939594195390,-65.00
2025-11-18 12:45:53.552406,599617939594195390,-63.00
2025-11-18 12:45:53.552406,599617939594195390,-60.00
2025-11-18 12:45:53.552406,599617939594195390,-58.00
2025-11-18 12:45:53.552406,599617939594195390,-55.00
2025-11-18 12:45:53.552406,599617939594195390,-58.00
2025-11-18 12:45:53.552406,599617939594195390,-55.00
2025-11-18 12:45:53.552406,599617939594195390,-58.00
2025-11-18 12:45:53.552406,599617939594195390,-58.00
2025-11-18 12:45:53.552406,599617939594195390,-50.00
2025-11-18 12:45:53.552406,599617939594195390,-53.00
2025-11-18 12:45:53.552406,599617939594195390,-55.00
2025-11-18 12:45:53.552406,599617939594195390,-48.00
2025-11-18 12:45:53.552406,599617939594195390,-48.00
2025-11-18 12:45:53.552406,599617939594195390,-55.00
2025-11-18 12:45:53.552406,599617939594195390,-50.00
2025-11-18 12:45:53.552406,599617939594195390,-38.00
2025-11-18 12:45:53.552406,599617939594195390,-36.00
2025-11-18 12:45:53.552406,599617939594195390,-41.00
2025-11-18 12:45:53.552406,599617939594195390,-36.00
2025-11-18 12:45:54.120653,599617940154861915,-24.00
2025-11-18 12:45:54.120653,599617940154861915,-26.00
2025-11-18 12:45:54.120653,599617940154861915,-38.00
2025-11-18 12:45:54.120653,599617940154861915,-38.00
2025-11-18 12:45:54.120653,599617940154861915,-41.00
2025-11-18 12:45:54.120653,599617940154861915,-53.00
2025-11-18 12:45:54.120653,599617940154861915,-50.00
2025-11-18 12:45:54.120653,599617940154861915,-38.00
2025-11-18 12:45:54.120653,599617940154861915,-41.00
2025-11-18 12:45:54.120653,599617940154861915,-43.00
2025-11-18 12:45:54.120653,599617940154861915,-41.00
2025-11-18 12:45:54.120653,599617940154861915,-60.00
2025-11-18 12:45:54.120653,599617940154861915,-116.00
2025-11-18 12:45:54.120653,599617940154861915,-123.00
2025-11-18 12:45:54.120653,599617940154861915,128.00
2025-11-18 12:45:54.120653,599617940154861915,679.00
2025-11-18 12:45:54.120653,599617940154861915,1185.00
2025-11-18 12:45:54.120653,599617940154861915,1115.00
2025-11-18 12:45:54.120653,599617940154861915,312.00
2025-11-18 12:45:54.120653,599617940154861915,-412.00
2025-11-18 12:45:54.120653,599617940154861915,-334.00
2025-11-18 12:45:54.120653,599617940154861915,-65.00
2025-11-18 12:45:54.120653,599617940154861915,-135.00
2025-11-18 12:45:54.120653,599617940154861915,-179.00
2025-11-18 12:45:54.120653,599617940154861915,-99.00
2025-11-18 12:45:54.120653,599617940154861915,-101.00
2025-11-18 12:45:54.120653,599617940154861915,-121.00
2025-11-18 12:45:54.120653,599617940154861915,-87.00
2025-11-18 12:45:54.120653,599617940154861915,-72.00
2025-11-18 12:45:54.120653,599617940154861915,-77.00
2025-11-18 12:45:54.120653,599617940154861915,-65.00
2025-11-18 12:45:54.120653,599617940154861915,-55.00
2025-11-18 12:45:54.120653,599617940154861915,-53.00
2025-11-18 12:45:54.120653,599617940154861915,-46.00
2025-11-18 12:45:54.120653,599617940154861915,-38.00
2025-11-18 12:45:54.120653,599617940154861915,-36.00
2025-11-18 12:45:54.120653,599617940154861915,-29.00
2025-11-18 12:45:54.120653,599617940154861915,-9.00
2025-11-18 12:45:54.120653,599617940154861915,0.00
2025-11-18 12:45:54.120653,599617940154861915,0.00
2025-11-18 12:45:54.120653,599617940154861915,14.00
2025-11-18 12:45:54.120653,599617940154861915,33.00
2025-11-18 12:45:54.120653,599617940154861915,43.00
2025-11-18 12:45:54.120653,599617940154861915,53.00
2025-11-18 12:45:54.120653,599617940154861915,72.00
2025-11-18 12:45:54.120653,599617940154861915,92.00
2025-11-18 12:45:54.120653,599617940154861915,109.00
2025-11-18 12:45:54.120653,599617940154861915,128.00
2025-11-18 12:45:54.120653,599617940154861915,150.00
2025-11-18 12:45:54.120653,599617940154861915,162.00
2025-11-18 12:45:54.120653,599617940154861915,174.00
2025-11-18 12:45:54.120653,599617940154861915,186.00
2025-11-18 12:45:54.120653,599617940154861915,194.00
2025-11-18 12:45:54.120653,599617940154861915,184.00
2025-11-18 12:45:54.120653,599617940154861915,155.00
2025-11-18 12:45:54.120653,599617940154861915,111.00
2025-11-18 12:45:54.120653,599617940154861915,60.00
2025-11-18 12:45:54.120653,599617940154861915,0.00
2025-11-18 12:45:54.120653,599617940154861915,-58.00
2025-11-18 12:45:54.120653,599617940154861915,-99.00
2025-11-18 12:45:54.120653,599617940154861915,-121.00
2025-11-18 12:45:54.120653,599617940154861915,-140.00
2025-11-18 12:45:54.120653,599617940154861915,-157.00
2025-11-18 12:45:54.120653,599617940154861915,-160.00
2025-11-18 12:45:54.120653,599617940154861915,-150.00
2025-11-18 12:45:54.120653,599617940154861915,-145.00
2025-11-18 12:45:54.120653,599617940154861915,-145.00
2025-11-18 12:45:54.120653,599617940154861915,-135.00
2025-11-18 12:45:54.120653,599617940154861915,-123.00
2025-11-18 12:45:54.120653,599617940154861915,-121.00
2025-11-18 12:45:54.120653,599617940154861915,-116.00
2025-11-18 12:45:54.120653,599617940154861915,-113.00
2025-11-18 12:45:54.120653,599617940154861915,-111.00
2025-11-18 12:45:54.661461,599617940715528438,-106.00
2025-11-18 12:45:54.661461,599617940715528438,-104.00
2025-11-18 12:45:54.661461,599617940715528438,-104.00
2025-11-18 12:45:54.661461,599617940715528438,-99.00
2025-11-18 12:45:54.661461,599617940715528438,-99.00
2025-11-18 12:45:54.661461,599617940715528438,-97.00
2025-11-18 12:45:54.661461,599617940715528438,-97.00
2025-11-18 12:45:54.661461,599617940715528438,-97.00
2025-11-18 12:45:54.661461,599617940715528438,-92.00
2025-11-18 12:45:54.661461,599617940715528438,-87.00
2025-11-18 12:45:54.661461,599617940715528438,-87.00
2025-11-18 12:45:54.661461,599617940715528438,-87.00
2025-11-18 12:45:54.661461,599617940715528438,-89.00
2025-11-18 12:45:54.661461,599617940715528438,-92.00
2025-11-18 12:45:54.661461,599617940715528438,-89.00
2025-11-18 12:45:54.661461,599617940715528438,-89.00
2025-11-18 12:45:54.661461,599617940715528438,-84.00
2025-11-18 12:45:54.661461,599617940715528438,-77.00
2025-11-18 12:45:54.661461,599617940715528438,-77.00
2025-11-18 12:45:54.661461,599617940715528438,-77.00
2025-11-18 12:45:54.661461,599617940715528438,-77.00
2025-11-18 12:45:54.661461,599617940715528438,-77.00
2025-11-18 12:45:54.661461,599617940715528438,-75.00
2025-11-18 12:45:54.661461,599617940715528438,-72.00
