Timestamp,Device Timestamp (ns),ECG Value (uV)
2025-11-18 12:55:14.753610,599618500829625107,38.00
2025-11-18 12:55:14.753610,599618500829625107,53.00
2025-11-18 12:55:14.753610,599618500829625107,48.00
2025-11-18 12:55:14.753610,599618500829625107,63.00
2025-11-18 12:55:14.753610,599618500829625107,87.00
2025-11-18 12:55:14.753610,599618500829625107,101.00
2025-11-18 12:55:14.753610,599618500829625107,118.00
2025-11-18 12:55:14.753610,599618500829625107,150.00
2025-11-18 12:55:14.753610,599618500829625107,169.00
2025-11-18 12:55:14.753610,599618500829625107,174.00
2025-11-18 12:55:14.753610,599618500829625107,179.00
2025-11-18 12:55:14.753610,599618500829625107,186.00
2025-11-18 12:55:14.753610,599618500829625107,196.00
2025-11-18 12:55:14.753610,599618500829625107,203.00
2025-11-18 12:55:14.753610,599618500829625107,198.00
2025-11-18 12:55:14.753610,599618500829625107,179.00
2025-11-18 12:55:14.753610,599618500829625107,143.00
2025-11-18 12:55:14.753610,599618500829625107,97.00
2025-11-18 12:55:14.753610,599618500829625107,38.00
2025-11-18 12:55:14.753610,599618500829625107,-26.00
2025-11-18 12:55:14.753610,599618500829625107,-70.00
2025-11-18 12:55:14.753610,599618500829625107,-99.00
2025-11-18 12:55:14.753610,599618500829625107,-126.00
2025-11-18 12:55:14.753610,599618500829625107,-145.00
2025-11-18 12:55:14.753610,599618500829625107,-152.00
2025-11-18 12:55:14.753610,599618500829625107,-147.00
2025-11-18 12:55:14.753610,599618500829625107,-140.00
2025-11-18 12:55:14.753610,599618500829625107,-138.00
2025-11-18 12:55:14.753610,599618500829625107,-145.00
2025-11-18 12:55:14.753610,599618500829625107,-143.00
2025-11-18 12:55:14.753610,599618500829625107,-130.00
2025-11-18 12:55:14.753610,599618500829625107,-130.00
2025-11-18 12:55:14.753610,599618500829625107,-130.00
2025-11-18 12:55:14.753610,599618500829625107,-126.00
2025-11-18 12:55:14.753610,599618500829625107,-126.00
2025-11-18 12:55:14.753610,599618500829625107,-121.00
2025-11-18 12:55:14.753610,599618500829625107,-116.00
2025-11-18 12:55:14.753610,599618500829625107,-123.00
2025-11-18 12:55:14.753610,599618500829625107,-128.00
2025-11-18 12:55:14.753610,599618500829625107,-126.00
2025-11-18 12:55:14.753610,599618500829625107,-126.00
2025-11-18 12:55:14.753610,599618500829625107,-135.00
2025-11-18 12:55:14.753610,599618500829625107,-128.00
2025-11-18 12:55:14.753610,599618500829625107,-118.00
2025-11-18 12:55:14.753610,599618500829625107,-123.00
2025-11-18 12:55:14.753610,599618500829625107,-121.00
2025-11-18 12:55:14.753610,599618500829625107,-111.00
2025-11-18 12:55:14.753610,599618500829625107,-113.00
2025-11-18 12:55:14.753610,599618500829625107,-116.00
2025-11-18 12:55:14.753610,599618500829625107,-111.00
2025-11-18 12:55:14.753610,599618500829625107,-121.00
2025-11-18 12:55:14.753610,599618500829625107,-123.00
2025-11-18 12:55:14.753610,599618500829625107,-109.00
2025-11-18 12:55:14.753610,599618500829625107,-97.00
2025-11-18 12:55:14.753610,599618500829625107,-106.00
2025-11-18 12:55:14.753610,599618500829625107,-109.00
2025-11-18 12:55:14.753610,599618500829625107,-94.00
2025-11-18 12:55:14.753610,599618500829625107,-89.00
2025-11-18 12:55:14.753610,599618500829625107,-94.00
2025-11-18 12:55:14.753610,599618500829625107,-94.00
2025-11-18 12:55:14.753610,599618500829625107,-92.00
2025-11-18 12:55:14.753610,599618500829625107,-92.00
2025-11-18 12:55:14.753610,599618500829625107,-75.00
2025-11-18 12:55:14.753610,599618500829625107,-50.00
2025-11-18 12:55:14.753610,599618500829625107,-63.00
2025-11-18 12:55:14.753610,599618500829625107,-87.00
2025-11-18 12:55:14.753610,599618500829625107,-65.00
2025-11-18 12:55:14.753610,599618500829625107,-43.00
2025-11-18 12:55:14.753610,599618500829625107,-48.00
2025-11-18 12:55:14.753610,599618500829625107,-43.00
2025-11-18 12:55:14.753610,599618500829625107,-31.00
2025-11-18 12:55:14.753610,599618500829625107,-31.00
2025-11-18 12:55:14.753610,599618500829625107,-33.00
2025-11-18 12:55:15.262282,599618501390291630,-41.00
2025-11-18 12:55:15.262282,599618501390291630,-60.00
2025-11-18 12:55:15.262282,599618501390291630,-65.00
2025-11-18 12:55:15.262282,599618501390291630,-46.00
2025-11-18 12:55:15.262282,599618501390291630,-31.00
2025-11-18 12:55:15.262282,599618501390291630,-36.00
2025-11-18 12:55:15.262282,599618501390291630,-58.00
2025-11-18 12:55:15.262282,599618501390291630,-70.00
2025-11-18 12:55:15.262282,599618501390291630,-55.00
2025-11-18 12:55:15.262282,599618501390291630,-55.00
2025-11-18 12:55:15.262282,599618501390291630,-67.00
2025-11-18 12:55:15.262282,599618501390291630,-63.00
2025-11-18 12:55:15.262282,599618501390291630,-50.00
2025-11-18 12:55:15.262282,599618501390291630,-58.00
2025-11-18 12:55:15.262282,599618501390291630,-65.00
2025-11-18 12:55:15.262282,599618501390291630,-60.00
2025-11-18 12:55:15.262282,599618501390291630,-50.00
2025-11-18 12:55:15.262282,599618501390291630,-43.00
2025-11-18 12:55:15.262282,599618501390291630,-46.00
2025-11-18 12:55:15.262282,599618501390291630,-50.00
2025-11-18 12:55:15.262282,599618501390291630,-46.00
2025-11-18 12:55:15.262282,599618501390291630,-33.00
2025-11-18 12:55:15.262282,599618501390291630,-41.00
2025-11-18 12:55:15.262282,599618501390291630,-60.00
2025-11-18 12:55:15.262282,599618501390291630,-67.00
2025-11-18 12:55:15.262282,599618501390291630,-70.00
2025-11-18 12:55:15.262282,599618501390291630,-77.00
2025-11-18 12:55:15.262282,599618501390291630,-82.00
2025-11-18 12:55:15.262282,599618501390291630,-80.00
2025-11-18 12:55:15.262282,599618501390291630,-72.00
2025-11-18 12:55:15.262282,599618501390291630,-63.00
2025-11-18 12:55:15.262282,599618501390291630,-77.00
2025-11-18 12:55:15.262282,599618501390291630,-140.00
2025-11-18 12:55:15.262282,599618501390291630,-150.00
2025-11-18 12:55:15.262282,599618501390291630,65.00
2025-11-18 12:55:15.262282,599618501390291630,504.00
2025-11-18 12:55:15.262282,599618501390291630,921.00
2025-11-18 12:55:15.262282,599618501390291630,921.00
2025-11-18 12:55:15.262282,599618501390291630,320.00
2025-11-18 12:55:15.262282,599618501390291630,-310.00
2025-11-18 12:55:15.262282,599618501390291630,-300.00
2025-11-18 12:55:15.262282,599618501390291630,-55.00
2025-11-18 12:55:15.262282,599618501390291630,-87.00
2025-11-18 12:55:15.262282,599618501390291630,-147.00
2025-11-18 12:55:15.262282,599618501390291630,-101.00
2025-11-18 12:55:15.262282,599618501390291630,-106.00
2025-11-18 12:55:15.262282,599618501390291630,-123.00
2025-11-18 12:55:15.262282,599618501390291630,-104.00
2025-11-18 12:55:15.262282,599618501390291630,-99.00
2025-11-18 12:55:15.262282,599618501390291630,-97.00
2025-11-18 12:55:15.262282,599618501390291630,-75.00
2025-11-18 12:55:15.262282,599618501390291630,-75.00
2025-11-18 12:55:15.262282,599618501390291630,-84.00
2025-11-18 12:55:15.262282,599618501390291630,-65.00
2025-11-18 12:55:15.262282,599618501390291630,-41.00
2025-11-18 12:55:15.262282,599618501390291630,-48.00
2025-11-18 12:55:15.262282,599618501390291630,-75.00
2025-11-18 12:55:15.262282,599618501390291630,-80.00
2025-11-18 12:55:15.262282,599618501390291630,-53.00
2025-11-18 12:55:15.262282,599618501390291630,-33.00
2025-11-18 12:55:15.262282,599618501390291630,-21.00
2025-11-18 12:55:15.262282,599618501390291630,-7.00
2025-11-18 12:55:15.262282,599618501390291630,4.00
2025-11-18 12:55:15.262282,599618501390291630,24.00
2025-11-18 12:55:15.262282,599618501390291630,41.00
2025-11-18 12:55:15.262282,599618501390291630,48.00
2025-11-18 12:55:15.262282,599618501390291630,65.00
2025-11-18 12:55:15.262282,599618501390291630,92.00
2025-11-18 12:55:15.262282,599618501390291630,118.00
2025-11-18 12:55:15.262282,599618501390291630,143.00
2025-11-18 12:55:15.262282,599618501390291630,160.00
2025-11-18 12:55:15.262282,599618501390291630,167.00
2025-11-18 12:55:15.262282,599618501390291630,169.00
2025-11-18 12:55:15.864051,599618501950988673,162.00
2025-11-18 12:55:15.864051,599618501950988673,133.00
2025-11-18 12:55:15.864051,599618501950988673,80.00
2025-11-18 12:55:15.864051,599618501950988673,26.00
2025-11-18 12:55:15.864051,599618501950988673,-16.00
2025-11-18 12:55:15.864051,599618501950988673,-58.00
2025-11-18 12:55:15.864051,599618501950988673,-92.00
2025-11-18 12:55:15.864051,599618501950988673,-113.00
2025-11-18 12:55:15.864051,599618501950988673,-121.00
2025-11-18 12:55:15.864051,599618501950988673,-121.00
2025-11-18 12:55:15.864051,599618501950988673,-116.00
2025-11-18 12:55:15.864051,599618501950988673,-113.00
2025-11-18 12:55:15.864051,599618501950988673,-113.00
2025-11-18 12:55:15.864051,599618501950988673,-109.00
2025-11-18 12:55:15.864051,599618501950988673,-101.00
2025-11-18 12:55:15.864051,599618501950988673,-99.00
2025-11-18 12:55:15.864051,599618501950988673,-99.00
2025-11-18 12:55:15.864051,599618501950988673,-97.00
2025-11-18 12:55:15.864051,599618501950988673,-94.00
2025-11-18 12:55:15.864051,599618501950988673,-97.00
2025-11-18 12:55:15.864051,599618501950988673,-97.00
2025-11-18 12:55:15.864051,599618501950988673,-92.00
2025-11-18 12:55:15.864051,599618501950988673,-92.00
2025-11-18 12:55:15.864051,599618501950988673,-89.00
2025-11-18 12:55:15.864051,599618501950988673,-80.00
2025-11-18 12:55:15.864051,599618501950988673,-77.00
2025-11-18 12:55:15.864051,599618501950988673,-80.00
2025-11-18 12:55:15.864051,599618501950988673,-82.00
2025-11-18 12:55:15.864051,599618501950988673,-82.00
2025-11-18 12:55:15.864051,599618501950988673,-82.00
2025-11-18 12:55:15.864051,599618501950988673,-77.00
2025-11-18 12:55:15.864051,599618501950988673,-75.00
2025-11-18 12:55:15.864051,599618501950988673,-82.00
2025-11-18 12:55:15.864051,599618501950988673,-92.00
2025-11-18 12:55:15.864051,599618501950988673,-104.00
2025-11-18 12:55:15.864051,599618501950988673,-113.00
2025-11-18 12:55:15.864051,599618501950988673,-106.00
2025-11-18 12:55:15.864051,599618501950988673,-94.00
2025-11-18 12:55:15.864051,599618501950988673,-92.00
2025-11-18 12:55:15.864051,599618501950988673,-84.00
2025-11-18 12:55:15.864051,599618501950988673,-80.00
2025-11-18 12:55:15.864051,599618501950988673,-97.00
2025-11-18 12:55:15.864051,599618501950988673,-109.00
2025-11-18 12:55:15.864051,599618501950988673,-94.00
2025-11-18 12:55:15.864051,599618501950988673,-84.00
2025-11-18 12:55:15.864051,599618501950988673,-87.00
2025-11-18 12:55:15.864051,599618501950988673,-77.00
2025-11-18 12:55:15.864051,599618501950988673,-77.00
2025-11-18 12:55:15.864051,599618501950988673,-89.00
2025-11-18 12:55:15.864051,599618501950988673,-87.00
2025-11-18 12:55:15.864051,599618501950988673,-70.00
2025-11-18 12:55:15.864051,599618501950988673,-63.00
2025-11-18 12:55:15.864051,599618501950988673,-67.00
2025-11-18 12:55:15.864051,599618501950988673,-60.00
2025-11-18 12:55:15.864051,599618501950988673,-53.00
2025-11-18 12:55:15.864051,599618501950988673,-53.00
2025-11-18 12:55:15.864051,599618501950988673,-60.00
2025-11-18 12:55:15.864051,599618501950988673,-60.00
2025-11-18 12:55:15.864051,599618501950988673,-58.00
2025-11-18 12:55:15.864051,599618501950988673,-53.00
2025-11-18 12:55:15.864051,599618501950988673,-53.00
2025-11-18 12:55:15.864051,599618501950988673,-46.00
2025-11-18 12:55:15.864051,599618501950988673,-26.00
2025-11-18 12:55:15.864051,599618501950988673,-19.00
2025-11-18 12:55:15.864051,599618501950988673,-29.00
2025-11-18 12:55:15.864051,599618501950988673,-48.00
2025-11-18 12:55:15.864051,599618501950988673,-55.00
2025-11-18 12:55:15.864051,599618501950988673,-50.00
2025-11-18 12:55:15.864051,599618501950988673,-53.00
2025-11-18 12:55:15.864051,599618501950988673,-63.00
2025-11-18 12:55:15.864051,599618501950988673,-65.00
2025-11-18 12:55:15.864051,599618501950988673,-65.00
2025-11-18 12:55:15.864051,599618501950988673,-70.00
2025-11-18 12:55:16.433590,599618502511685714,-72.00
2025-11-18 12:55:16.433590,599618502511685714,-65.00
2025-11-18 12:55:16.433590,599618502511685714,-55.00
2025-11-18 12:55:16.433590,599618502511685714,-50.00
2025-11-18 12:55:16.433590,599618502511685714,-55.00
2025-11-18 12:55:16.433590,599618502511685714,-67.00
2025-11-18 12:55:16.433590,599618502511685714,-70.00
2025-11-18 12:55:16.433590,599618502511685714,-67.00
2025-11-18 12:55:16.433590,599618502511685714,-72.00
2025-11-18 12:55:16.433590,599618502511685714,-72.00
2025-11-18 12:55:16.433590,599618502511685714,-70.00
2025-11-18 12:55:16.433590,599618502511685714,-75.00
2025-11-18 12:55:16.433590,599618502511685714,-77.00
2025-11-18 12:55:16.433590,599618502511685714,-77.00
2025-11-18 12:55:16.433590,599618502511685714,-106.00
2025-11-18 12:55:16.433590,599618502511685714,-157.00
2025-11-18 12:55:16.433590,599618502511685714,-92.00
2025-11-18 12:55:16.433590,599618502511685714,259.00
2025-11-18 12:55:16.433590,599618502511685714,788.00
2025-11-18 12:55:16.433590,599618502511685714,1093.00
2025-11-18 12:55:16.433590,599618502511685714,746.00
2025-11-18 12:55:16.433590,599618502511685714,-67.00
2025-11-18 12:55:16.433590,599618502511685714,-441.00
2025-11-18 12:55:16.433590,599618502511685714,-186.00
2025-11-18 12:55:16.433590,599618502511685714,-58.00
2025-11-18 12:55:16.433590,599618502511685714,-157.00
2025-11-18 12:55:16.433590,599618502511685714,-130.00
2025-11-18 12:55:16.433590,599618502511685714,-72.00
2025-11-18 12:55:16.433590,599618502511685714,-94.00
2025-11-18 12:55:16.433590,599618502511685714,-94.00
2025-11-18 12:55:16.433590,599618502511685714,-70.00
2025-11-18 12:55:16.433590,599618502511685714,-60.00
2025-11-18 12:55:16.433590,599618502511685714,-53.00
2025-11-18 12:55:16.433590,599618502511685714,-58.00
2025-11-18 12:55:16.433590,599618502511685714,-75.00
2025-11-18 12:55:16.433590,599618502511685714,-70.00
2025-11-18 12:55:16.433590,599618502511685714,-50.00
2025-11-18 12:55:16.433590,599618502511685714,-41.00
2025-11-18 12:55:16.433590,599618502511685714,-36.00
2025-11-18 12:55:16.433590,599618502511685714,-21.00
2025-11-18 12:55:16.433590,599618502511685714,-7.00
2025-11-18 12:55:16.433590,599618502511685714,-7.00
2025-11-18 12:55:16.433590,599618502511685714,-4.00
2025-11-18 12:55:16.433590,599618502511685714,9.00
2025-11-18 12:55:16.433590,599618502511685714,19.00
2025-11-18 12:55:16.433590,599618502511685714,21.00
2025-11-18 12:55:16.433590,599618502511685714,38.00
2025-11-18 12:55:16.433590,599618502511685714,63.00
2025-11-18 12:55:16.433590,599618502511685714,80.00
2025-11-18 12:55:16.433590,599618502511685714,104.00
2025-11-18 12:55:16.433590,599618502511685714,128.00
2025-11-18 12:55:16.433590,599618502511685714,162.00
2025-11-18 12:55:16.433590,599618502511685714,191.00
2025-11-18 12:55:16.433590,599618502511685714,181.00
2025-11-18 12:55:16.433590,599618502511685714,160.00
2025-11-18 12:55:16.433590,599618502511685714,162.00
2025-11-18 12:55:16.433590,599618502511685714,145.00
2025-11-18 12:55:16.433590,599618502511685714,87.00
2025-11-18 12:55:16.433590,599618502511685714,21.00
2025-11-18 12:55:16.433590,599618502511685714,-38.00
2025-11-18 12:55:16.433590,599618502511685714,-94.00
2025-11-18 12:55:16.433590,599618502511685714,-128.00
2025-11-18 12:55:16.433590,599618502511685714,-150.00
2025-11-18 12:55:16.433590,599618502511685714,-167.00
2025-11-18 12:55:16.433590,599618502511685714,-184.00
2025-11-18 12:55:16.433590,599618502511685714,-198.00
2025-11-18 12:55:16.433590,599618502511685714,-189.00
2025-11-18 12:55:16.433590,599618502511685714,-169.00
2025-11-18 12:55:16.433590,599618502511685714,-181.00
2025-11-18 12:55:16.433590,599618502511685714,-186.00
2025-11-18 12:55:16.433590,599618502511685714,-155.00
2025-11-18 12:55:16.433590,599618502511685714,-130.00
2025-11-18 12:55:16.433590,599618502511685714,-135.00
2025-11-18 12:55:17.035412,599618503072352237,-167.00
2025-11-18 12:55:17.035412,599618503072352237,-220.00
2025-11-18 12:55:17.035412,599618503072352237,-274.00
2025-11-18 12:55:17.035412,599618503072352237,-307.00
2025-11-18 12:55:17.035412,599618503072352237,-322.00
2025-11-18 12:55:17.035412,599618503072352237,-322.00
2025-11-18 12:55:17.035412,599618503072352237,-295.00
2025-11-18 12:55:17.035412,599618503072352237,-259.00
2025-11-18 12:55:17.035412,599618503072352237,-235.00
2025-11-18 12:55:17.035412,599618503072352237,-213.00
2025-11-18 12:55:17.035412,599618503072352237,-196.00
2025-11-18 12:55:17.035412,599618503072352237,-184.00
2025-11-18 12:55:17.035412,599618503072352237,-164.00
2025-11-18 12:55:17.035412,599618503072352237,-145.00
2025-11-18 12:55:17.035412,599618503072352237,-138.00
2025-11-18 12:55:17.035412,599618503072352237,-126.00
2025-11-18 12:55:17.035412,599618503072352237,-104.00
2025-11-18 12:55:17.035412,599618503072352237,-89.00
2025-11-18 12:55:17.035412,599618503072352237,-67.00
2025-11-18 12:55:17.035412,599618503072352237,-48.00
2025-11-18 12:55:17.035412,599618503072352237,-33.00
2025-11-18 12:55:17.035412,599618503072352237,-16.00
2025-11-18 12:55:17.035412,599618503072352237,-9.00
2025-11-18 12:55:17.035412,599618503072352237,-12.00
2025-11-18 12:55:17.035412,599618503072352237,-4.00
2025-11-18 12:55:17.035412,599618503072352237,21.00
2025-11-18 12:55:17.035412,599618503072352237,53.00
2025-11-18 12:55:17.035412,599618503072352237,67.00
2025-11-18 12:55:17.035412,599618503072352237,63.00
2025-11-18 12:55:17.035412,599618503072352237,60.00
2025-11-18 12:55:17.035412,599618503072352237,50.00
2025-11-18 12:55:17.035412,599618503072352237,31.00
2025-11-18 12:55:17.035412,599618503072352237,19.00
2025-11-18 12:55:17.035412,599618503072352237,4.00
2025-11-18 12:55:17.035412,599618503072352237,-14.00
2025-11-18 12:55:17.035412,599618503072352237,-19.00
2025-11-18 12:55:17.035412,599618503072352237,-14.00
2025-11-18 12:55:17.035412,599618503072352237,-9.00
2025-11-18 12:55:17.035412,599618503072352237,-7.00
2025-11-18 12:55:17.035412,599618503072352237,-2.00
2025-11-18 12:55:17.035412,599618503072352237,0.00
2025-11-18 12:55:17.035412,599618503072352237,-7.00
2025-11-18 12:55:17.035412,599618503072352237,-9.00
2025-11-18 12:55:17.035412,599618503072352237,4.00
2025-11-18 12:55:17.035412,599618503072352237,24.00
2025-11-18 12:55:17.035412,599618503072352237,33.00
2025-11-18 12:55:17.035412,599618503072352237,31.00
2025-11-18 12:55:17.035412,599618503072352237,26.00
2025-11-18 12:55:17.035412,599618503072352237,31.00
2025-11-18 12:55:17.035412,599618503072352237,24.00
2025-11-18 12:55:17.035412,599618503072352237,12.00
2025-11-18 12:55:17.035412,599618503072352237,2.00
2025-11-18 12:55:17.035412,599618503072352237,-7.00
2025-11-18 12:55:17.035412,599618503072352237,-9.00
2025-11-18 12:55:17.035412,599618503072352237,-2.00
2025-11-18 12:55:17.035412,599618503072352237,-7.00
2025-11-18 12:55:17.035412,599618503072352237,-26.00
2025-11-18 12:55:17.035412,599618503072352237,-43.00
2025-11-18 12:55:17.035412,599618503072352237,-48.00
2025-11-18 12:55:17.035412,599618503072352237,-72.00
2025-11-18 12:55:17.035412,599618503072352237,-58.00
2025-11-18 12:55:17.035412,599618503072352237,213.00
2025-11-18 12:55:17.035412,599618503072352237,712.00
2025-11-18 12:55:17.035412,599618503072352237,1042.00
2025-11-18 12:55:17.035412,599618503072352237,797.00
2025-11-18 12:55:17.035412,599618503072352237,53.00
2025-11-18 12:55:17.035412,599618503072352237,-414.00
2025-11-18 12:55:17.035412,599618503072352237,-240.00
2025-11-18 12:55:17.035412,599618503072352237,-48.00
2025-11-18 12:55:17.035412,599618503072352237,-128.00
2025-11-18 12:55:17.035412,599618503072352237,-152.00
2025-11-18 12:55:17.035412,599618503072352237,-99.00
2025-11-18 12:55:17.035412,599618503072352237,-111.00
2025-11-18 12:55:17.546135,599618503633049278,-118.00
2025-11-18 12:55:17.546135,599618503633049278,-89.00
2025-11-18 12:55:17.546135,599618503633049278,-82.00
2025-11-18 12:55:17.546135,599618503633049278,-84.00
2025-11-18 12:55:17.546135,599618503633049278,-80.00
2025-11-18 12:55:17.546135,599618503633049278,-72.00
2025-11-18 12:55:17.546135,599618503633049278,-58.00
2025-11-18 12:55:17.546135,599618503633049278,-46.00
2025-11-18 12:55:17.546135,599618503633049278,-48.00
2025-11-18 12:55:17.546135,599618503633049278,-55.00
2025-11-18 12:55:17.546135,599618503633049278,-53.00
2025-11-18 12:55:17.546135,599618503633049278,-43.00
2025-11-18 12:55:17.546135,599618503633049278,-29.00
2025-11-18 12:55:17.546135,599618503633049278,-19.00
2025-11-18 12:55:17.546135,599618503633049278,-19.00
2025-11-18 12:55:17.546135,599618503633049278,-7.00
2025-11-18 12:55:17.546135,599618503633049278,19.00
2025-11-18 12:55:17.546135,599618503633049278,29.00
2025-11-18 12:55:17.546135,599618503633049278,31.00
2025-11-18 12:55:17.546135,599618503633049278,58.00
2025-11-18 12:55:17.546135,599618503633049278,82.00
2025-11-18 12:55:17.546135,599618503633049278,87.00
2025-11-18 12:55:17.546135,599618503633049278,106.00
2025-11-18 12:55:17.546135,599618503633049278,133.00
2025-11-18 12:55:17.546135,599618503633049278,147.00
2025-11-18 12:55:17.546135,599618503633049278,147.00
2025-11-18 12:55:17.546135,599618503633049278,140.00
2025-11-18 12:55:17.546135,599618503633049278,118.00
2025-11-18 12:55:17.546135,599618503633049278,70.00
2025-11-18 12:55:17.546135,599618503633049278,9.00
2025-11-18 12:55:17.546135,599618503633049278,-50.00
2025-11-18 12:55:17.546135,599618503633049278,-101.00
2025-11-18 12:55:17.546135,599618503633049278,-138.00
2025-11-18 12:55:17.546135,599618503633049278,-167.00
2025-11-18 12:55:17.546135,599618503633049278,-179.00
2025-11-18 12:55:17.546135,599618503633049278,-177.00
2025-11-18 12:55:17.546135,599618503633049278,-179.00
2025-11-18 12:55:17.546135,599618503633049278,-177.00
2025-11-18 12:55:17.546135,599618503633049278,-172.00
2025-11-18 12:55:17.546135,599618503633049278,-186.00
2025-11-18 12:55:17.546135,599618503633049278,-196.00
2025-11-18 12:55:17.546135,599618503633049278,-189.00
2025-11-18 12:55:17.546135,599618503633049278,-169.00
2025-11-18 12:55:17.546135,599618503633049278,-152.00
2025-11-18 12:55:17.546135,599618503633049278,-155.00
2025-11-18 12:55:17.546135,599618503633049278,-157.00
2025-11-18 12:55:17.546135,599618503633049278,-152.00
2025-11-18 12:55:17.546135,599618503633049278,-145.00
2025-11-18 12:55:17.546135,599618503633049278,-145.00
2025-11-18 12:55:17.546135,599618503633049278,-140.00
2025-11-18 12:55:17.546135,599618503633049278,-138.00
2025-11-18 12:55:17.546135,599618503633049278,-138.00
2025-11-18 12:55:17.546135,599618503633049278,-138.00
2025-11-18 12:55:17.546135,599618503633049278,-140.00
2025-11-18 12:55:17.546135,599618503633049278,-145.00
2025-11-18 12:55:17.546135,599618503633049278,-147.00
2025-11-18 12:55:17.546135,599618503633049278,-155.00
2025-11-18 12:55:17.546135,599618503633049278,-147.00
2025-11-18 12:55:17.546135,599618503633049278,-126.00
2025-11-18 12:55:17.546135,599618503633049278,-116.00
2025-11-18 12:55:17.546135,599618503633049278,-128.00
2025-11-18 12:55:17.546135,599618503633049278,-135.00
2025-11-18 12:55:17.546135,599618503633049278,-123.00
2025-11-18 12:55:17.546135,599618503633049278,-118.00
2025-11-18 12:55:17.546135,599618503633049278,-130.00
2025-11-18 12:55:17.546135,599618503633049278,-133.00
2025-11-18 12:55:17.546135,599618503633049278,-123.00
2025-11-18 12:55:17.546135,599618503633049278,-116.00
2025-11-18 12:55:17.546135,599618503633049278,-113.00
2025-11-18 12:55:17.546135,599618503633049278,-111.00
2025-11-18 12:55:17.546135,599618503633049278,-104.00
2025-11-18 12:55:17.546135,599618503633049278,-99.00
2025-11-18 12:55:17.546135,599618503633049278,-94.00
2025-11-18 12:55:18.085819,599618504193720889,-80.00
2025-11-18 12:55:18.085819,599618504193720889,-70.00
2025-11-18 12:55:18.085819,599618504193720889,-63.00
2025-11-18 12:55:18.085819,599618504193720889,-58.00
2025-11-18 12:55:18.085819,599618504193720889,-55.00
2025-11-18 12:55:18.085819,599618504193720889,-58.00
2025-11-18 12:55:18.085819,599618504193720889,-53.00
2025-11-18 12:55:18.085819,599618504193720889,-50.00
2025-11-18 12:55:18.085819,599618504193720889,-50.00
2025-11-18 12:55:18.085819,599618504193720889,-38.00
2025-11-18 12:55:18.085819,599618504193720889,-19.00
2025-11-18 12:55:18.085819,599618504193720889,-14.00
2025-11-18 12:55:18.085819,599618504193720889,-19.00
2025-11-18 12:55:18.085819,599618504193720889,-16.00
2025-11-18 12:55:18.085819,599618504193720889,-24.00
2025-11-18 12:55:18.085819,599618504193720889,-21.00
2025-11-18 12:55:18.085819,599618504193720889,-2.00
2025-11-18 12:55:18.085819,599618504193720889,-2.00
2025-11-18 12:55:18.085819,599618504193720889,-19.00
2025-11-18 12:55:18.085819,599618504193720889,-24.00
2025-11-18 12:55:18.085819,599618504193720889,-21.00
2025-11-18 12:55:18.085819,599618504193720889,-21.00
2025-11-18 12:55:18.085819,599618504193720889,-21.00
2025-11-18 12:55:18.085819,599618504193720889,-31.00
2025-11-18 12:55:18.085819,599618504193720889,-46.00
2025-11-18 12:55:18.085819,599618504193720889,-36.00
2025-11-18 12:55:18.085819,599618504193720889,-24.00
2025-11-18 12:55:18.085819,599618504193720889,-36.00
2025-11-18 12:55:18.085819,599618504193720889,-67.00
2025-11-18 12:55:18.085819,599618504193720889,-97.00
2025-11-18 12:55:18.085819,599618504193720889,2.00
2025-11-18 12:55:18.085819,599618504193720889,356.00
2025-11-18 12:55:18.085819,599618504193720889,826.00
2025-11-18 12:55:18.085819,599618504193720889,1028.00
2025-11-18 12:55:18.085819,599618504193720889,623.00
2025-11-18 12:55:18.085819,599618504193720889,-118.00
2025-11-18 12:55:18.085819,599618504193720889,-375.00
2025-11-18 12:55:18.085819,599618504193720889,-130.00
2025-11-18 12:55:18.085819,599618504193720889,-58.00
2025-11-18 12:55:18.085819,599618504193720889,-143.00
2025-11-18 12:55:18.085819,599618504193720889,-104.00
2025-11-18 12:55:18.085819,599618504193720889,-67.00
2025-11-18 12:55:18.085819,599618504193720889,-75.00
2025-11-18 12:55:18.085819,599618504193720889,-50.00
2025-11-18 12:55:18.085819,599618504193720889,-46.00
2025-11-18 12:55:18.085819,599618504193720889,-55.00
2025-11-18 12:55:18.085819,599618504193720889,-46.00
2025-11-18 12:55:18.085819,599618504193720889,-46.00
2025-11-18 12:55:18.085819,599618504193720889,-55.00
2025-11-18 12:55:18.085819,599618504193720889,-43.00
2025-11-18 12:55:18.085819,599618504193720889,-24.00
2025-11-18 12:55:18.085819,599618504193720889,-7.00
2025-11-18 12:55:18.085819,599618504193720889,-2.00
2025-11-18 12:55:18.085819,599618504193720889,-4.00
2025-11-18 12:55:18.085819,599618504193720889,4.00
2025-11-18 12:55:18.085819,599618504193720889,14.00
2025-11-18 12:55:18.085819,599618504193720889,12.00
2025-11-18 12:55:18.085819,599618504193720889,26.00
2025-11-18 12:55:18.085819,599618504193720889,53.00
2025-11-18 12:55:18.085819,599618504193720889,60.00
2025-11-18 12:55:18.085819,599618504193720889,70.00
2025-11-18 12:55:18.085819,599618504193720889,94.00
2025-11-18 12:55:18.085819,599618504193720889,118.00
2025-11-18 12:55:18.085819,599618504193720889,138.00
2025-11-18 12:55:18.085819,599618504193720889,152.00
2025-11-18 12:55:18.085819,599618504193720889,174.00
2025-11-18 12:55:18.085819,599618504193720889,186.00
2025-11-18 12:55:18.085819,599618504193720889,179.00
2025-11-18 12:55:18.085819,599618504193720889,177.00
2025-11-18 12:55:18.085819,599618504193720889,179.00
2025-11-18 12:55:18.085819,599618504193720889,145.00
2025-11-18 12:55:18.085819,599618504193720889,87.00
2025-11-18 12:55:18.085819,599618504193720889,29.00
2025-11-18 12:55:18.624608,599618504754412842,-29.00
2025-11-18 12:55:18.624608,599618504754412842,-75.00
2025-11-18 12:55:18.624608,599618504754412842,-106.00
2025-11-18 12:55:18.624608,599618504754412842,-135.00
2025-11-18 12:55:18.624608,599618504754412842,-143.00
2025-11-18 12:55:18.624608,599618504754412842,-133.00
2025-11-18 12:55:18.624608,599618504754412842,-130.00
2025-11-18 12:55:18.624608,599618504754412842,-130.00
2025-11-18 12:55:18.624608,599618504754412842,-130.00
2025-11-18 12:55:18.624608,599618504754412842,-138.00
2025-11-18 12:55:18.624608,599618504754412842,-150.00
2025-11-18 12:55:18.624608,599618504754412842,-143.00
2025-11-18 12:55:18.624608,599618504754412842,-121.00
2025-11-18 12:55:18.624608,599618504754412842,-104.00
2025-11-18 12:55:18.624608,599618504754412842,-104.00
2025-11-18 12:55:18.624608,599618504754412842,-109.00
2025-11-18 12:55:18.624608,599618504754412842,-106.00
2025-11-18 12:55:18.624608,599618504754412842,-97.00
2025-11-18 12:55:18.624608,599618504754412842,-94.00
2025-11-18 12:55:18.624608,599618504754412842,-97.00
2025-11-18 12:55:18.624608,599618504754412842,-94.00
2025-11-18 12:55:18.624608,599618504754412842,-94.00
2025-11-18 12:55:18.624608,599618504754412842,-89.00
2025-11-18 12:55:18.624608,599618504754412842,-77.00
2025-11-18 12:55:18.624608,599618504754412842,-77.00
2025-11-18 12:55:18.624608,599618504754412842,-92.00
2025-11-18 12:55:18.624608,599618504754412842,-97.00
2025-11-18 12:55:18.624608,599618504754412842,-89.00
2025-11-18 12:55:18.624608,599618504754412842,-84.00
2025-11-18 12:55:18.624608,599618504754412842,-82.00
2025-11-18 12:55:18.624608,599618504754412842,-82.00
2025-11-18 12:55:18.624608,599618504754412842,-84.00
2025-11-18 12:55:18.624608,599618504754412842,-84.00
2025-11-18 12:55:18.624608,599618504754412842,-77.00
2025-11-18 12:55:18.624608,599618504754412842,-67.00
2025-11-18 12:55:18.624608,599618504754412842,-67.00
2025-11-18 12:55:18.624608,599618504754412842,-70.00
2025-11-18 12:55:18.624608,599618504754412842,-75.00
2025-11-18 12:55:18.624608,599618504754412842,-65.00
2025-11-18 12:55:18.624608,599618504754412842,-53.00
2025-11-18 12:55:18.624608,599618504754412842,-70.00
2025-11-18 12:55:18.624608,599618504754412842,-84.00
2025-11-18 12:55:18.624608,599618504754412842,-70.00
2025-11-18 12:55:18.624608,599618504754412842,-67.00
2025-11-18 12:55:18.624608,599618504754412842,-77.00
2025-11-18 12:55:18.624608,599618504754412842,-65.00
2025-11-18 12:55:18.624608,599618504754412842,-48.00
2025-11-18 12:55:18.624608,599618504754412842,-46.00
2025-11-18 12:55:18.624608,599618504754412842,-60.00
2025-11-18 12:55:18.624608,599618504754412842,-63.00
2025-11-18 12:55:18.624608,599618504754412842,-41.00
2025-11-18 12:55:18.624608,599618504754412842,-24.00
2025-11-18 12:55:18.624608,599618504754412842,-33.00
2025-11-18 12:55:18.624608,599618504754412842,-48.00
2025-11-18 12:55:18.624608,599618504754412842,-50.00
2025-11-18 12:55:18.624608,599618504754412842,-53.00
2025-11-18 12:55:18.624608,599618504754412842,-65.00
2025-11-18 12:55:18.624608,599618504754412842,-65.00
2025-11-18 12:55:18.624608,599618504754412842,-50.00
2025-11-18 12:55:18.624608,599618504754412842,-41.00
2025-11-18 12:55:18.624608,599618504754412842,-58.00
2025-11-18 12:55:18.624608,599618504754412842,-111.00
2025-11-18 12:55:18.624608,599618504754412842,-123.00
2025-11-18 12:55:18.624608,599618504754412842,55.00
2025-11-18 12:55:18.624608,599618504754412842,472.00
2025-11-18 12:55:18.624608,599618504754412842,892.00
2025-11-18 12:55:18.624608,599618504754412842,919.00
2025-11-18 12:55:18.624608,599618504754412842,356.00
2025-11-18 12:55:18.624608,599618504754412842,-288.00
2025-11-18 12:55:18.624608,599618504754412842,-332.00
2025-11-18 12:55:18.624608,599618504754412842,-80.00
2025-11-18 12:55:18.624608,599618504754412842,-89.00
2025-11-18 12:55:18.624608,599618504754412842,-160.00
2025-11-18 12:55:19.221433,599618505315084453,-109.00
2025-11-18 12:55:19.221433,599618505315084453,-92.00
2025-11-18 12:55:19.221433,599618505315084453,-99.00
2025-11-18 12:55:19.221433,599618505315084453,-63.00
2025-11-18 12:55:19.221433,599618505315084453,-50.00
2025-11-18 12:55:19.221433,599618505315084453,-63.00
2025-11-18 12:55:19.221433,599618505315084453,-53.00
2025-11-18 12:55:19.221433,599618505315084453,-41.00
2025-11-18 12:55:19.221433,599618505315084453,-38.00
2025-11-18 12:55:19.221433,599618505315084453,-36.00
2025-11-18 12:55:19.221433,599618505315084453,-38.00
2025-11-18 12:55:19.221433,599618505315084453,-26.00
2025-11-18 12:55:19.221433,599618505315084453,-9.00
2025-11-18 12:55:19.221433,599618505315084453,-16.00
2025-11-18 12:55:19.221433,599618505315084453,-12.00
2025-11-18 12:55:19.221433,599618505315084453,16.00
2025-11-18 12:55:19.221433,599618505315084453,31.00
2025-11-18 12:55:19.221433,599618505315084453,29.00
2025-11-18 12:55:19.221433,599618505315084453,43.00
2025-11-18 12:55:19.221433,599618505315084453,70.00
2025-11-18 12:55:19.221433,599618505315084453,82.00
2025-11-18 12:55:19.221433,599618505315084453,94.00
2025-11-18 12:55:19.221433,599618505315084453,113.00
2025-11-18 12:55:19.221433,599618505315084453,128.00
2025-11-18 12:55:19.221433,599618505315084453,145.00
2025-11-18 12:55:19.221433,599618505315084453,169.00
2025-11-18 12:55:19.221433,599618505315084453,181.00
2025-11-18 12:55:19.221433,599618505315084453,177.00
2025-11-18 12:55:19.221433,599618505315084453,172.00
2025-11-18 12:55:19.221433,599618505315084453,145.00
2025-11-18 12:55:19.221433,599618505315084453,97.00
2025-11-18 12:55:19.221433,599618505315084453,50.00
2025-11-18 12:55:19.221433,599618505315084453,4.00
2025-11-18 12:55:19.221433,599618505315084453,-43.00
2025-11-18 12:55:19.221433,599618505315084453,-82.00
2025-11-18 12:55:19.221433,599618505315084453,-99.00
2025-11-18 12:55:19.221433,599618505315084453,-113.00
2025-11-18 12:55:19.221433,599618505315084453,-133.00
2025-11-18 12:55:19.221433,599618505315084453,-145.00
2025-11-18 12:55:19.221433,599618505315084453,-138.00
2025-11-18 12:55:19.221433,599618505315084453,-128.00
2025-11-18 12:55:19.221433,599618505315084453,-123.00
2025-11-18 12:55:19.221433,599618505315084453,-121.00
2025-11-18 12:55:19.221433,599618505315084453,-121.00
2025-11-18 12:55:19.221433,599618505315084453,-113.00
2025-11-18 12:55:19.221433,599618505315084453,-104.00
2025-11-18 12:55:19.221433,599618505315084453,-101.00
2025-11-18 12:55:19.221433,599618505315084453,-94.00
2025-11-18 12:55:19.221433,599618505315084453,-89.00
2025-11-18 12:55:19.221433,599618505315084453,-94.00
2025-11-18 12:55:19.221433,599618505315084453,-94.00
2025-11-18 12:55:19.221433,599618505315084453,-89.00
2025-11-18 12:55:19.221433,599618505315084453,-92.00
2025-11-18 12:55:19.221433,599618505315084453,-101.00
2025-11-18 12:55:19.221433,599618505315084453,-101.00
2025-11-18 12:55:19.221433,599618505315084453,-82.00
2025-11-18 12:55:19.221433,599618505315084453,-60.00
2025-11-18 12:55:19.221433,599618505315084453,-70.00
2025-11-18 12:55:19.221433,599618505315084453,-82.00
2025-11-18 12:55:19.221433,599618505315084453,-77.00
2025-11-18 12:55:19.221433,599618505315084453,-75.00
2025-11-18 12:55:19.221433,599618505315084453,-82.00
2025-11-18 12:55:19.221433,599618505315084453,-87.00
2025-11-18 12:55:19.221433,599618505315084453,-94.00
2025-11-18 12:55:19.221433,599618505315084453,-106.00
2025-11-18 12:55:19.221433,599618505315084453,-111.00
2025-11-18 12:55:19.221433,599618505315084453,-111.00
2025-11-18 12:55:19.221433,599618505315084453,-111.00
2025-11-18 12:55:19.221433,599618505315084453,-101.00
2025-11-18 12:55:19.221433,599618505315084453,-77.00
2025-11-18 12:55:19.221433,599618505315084453,-72.00
2025-11-18 12:55:19.221433,599618505315084453,-92.00
2025-11-18 12:55:19.221433,599618505315084453,-99.00
2025-11-18 12:55:19.794806,599618505875776408,-99.00
2025-11-18 12:55:19.794806,599618505875776408,-109.00
2025-11-18 12:55:19.794806,599618505875776408,-106.00
2025-11-18 12:55:19.794806,599618505875776408,-89.00
2025-11-18 12:55:19.794806,599618505875776408,-94.00
2025-11-18 12:55:19.794806,599618505875776408,-111.00
2025-11-18 12:55:19.794806,599618505875776408,-99.00
2025-11-18 12:55:19.794806,599618505875776408,-77.00
2025-11-18 12:55:19.794806,599618505875776408,-82.00
2025-11-18 12:55:19.794806,599618505875776408,-92.00
2025-11-18 12:55:19.794806,599618505875776408,-92.00
2025-11-18 12:55:19.794806,599618505875776408,-84.00
2025-11-18 12:55:19.794806,599618505875776408,-80.00
2025-11-18 12:55:19.794806,599618505875776408,-77.00
2025-11-18 12:55:19.794806,599618505875776408,-80.00
2025-11-18 12:55:19.794806,599618505875776408,-77.00
2025-11-18 12:55:19.794806,599618505875776408,-70.00
2025-11-18 12:55:19.794806,599618505875776408,-67.00
2025-11-18 12:55:19.794806,599618505875776408,-77.00
2025-11-18 12:55:19.794806,599618505875776408,-84.00
2025-11-18 12:55:19.794806,599618505875776408,-75.00
2025-11-18 12:55:19.794806,599618505875776408,-63.00
2025-11-18 12:55:19.794806,599618505875776408,-65.00
2025-11-18 12:55:19.794806,599618505875776408,-80.00
2025-11-18 12:55:19.794806,599618505875776408,-80.00
2025-11-18 12:55:19.794806,599618505875776408,-72.00
2025-11-18 12:55:19.794806,599618505875776408,-87.00
2025-11-18 12:55:19.794806,599618505875776408,-123.00
2025-11-18 12:55:19.794806,599618505875776408,-162.00
2025-11-18 12:55:19.794806,599618505875776408,-77.00
2025-11-18 12:55:19.794806,599618505875776408,283.00
2025-11-18 12:55:19.794806,599618505875776408,790.00
2025-11-18 12:55:19.794806,599618505875776408,1033.00
2025-11-18 12:55:19.794806,599618505875776408,645.00
2025-11-18 12:55:19.794806,599618505875776408,-150.00
2025-11-18 12:55:19.794806,599618505875776408,-468.00
2025-11-18 12:55:19.794806,599618505875776408,-191.00
2025-11-18 12:55:19.794806,599618505875776408,-82.00
2025-11-18 12:55:19.794806,599618505875776408,-194.00
2025-11-18 12:55:19.794806,599618505875776408,-157.00
2025-11-18 12:55:19.794806,599618505875776408,-82.00
2025-11-18 12:55:19.794806,599618505875776408,-92.00
2025-11-18 12:55:19.794806,599618505875776408,-75.00
2025-11-18 12:55:19.794806,599618505875776408,-43.00
2025-11-18 12:55:19.794806,599618505875776408,-63.00
2025-11-18 12:55:19.794806,599618505875776408,-75.00
2025-11-18 12:55:19.794806,599618505875776408,-60.00
2025-11-18 12:55:19.794806,599618505875776408,-63.00
2025-11-18 12:55:19.794806,599618505875776408,-65.00
2025-11-18 12:55:19.794806,599618505875776408,-31.00
2025-11-18 12:55:19.794806,599618505875776408,-4.00
2025-11-18 12:55:19.794806,599618505875776408,-19.00
2025-11-18 12:55:19.794806,599618505875776408,-24.00
2025-11-18 12:55:19.794806,599618505875776408,12.00
2025-11-18 12:55:19.794806,599618505875776408,36.00
2025-11-18 12:55:19.794806,599618505875776408,29.00
2025-11-18 12:55:19.794806,599618505875776408,29.00
2025-11-18 12:55:19.794806,599618505875776408,36.00
2025-11-18 12:55:19.794806,599618505875776408,48.00
2025-11-18 12:55:19.794806,599618505875776408,84.00
2025-11-18 12:55:19.794806,599618505875776408,128.00
2025-11-18 12:55:19.794806,599618505875776408,138.00
2025-11-18 12:55:19.794806,599618505875776408,152.00
2025-11-18 12:55:19.794806,599618505875776408,177.00
2025-11-18 12:55:19.794806,599618505875776408,179.00
2025-11-18 12:55:19.794806,599618505875776408,194.00
2025-11-18 12:55:19.794806,599618505875776408,230.00
2025-11-18 12:55:19.794806,599618505875776408,230.00
2025-11-18 12:55:19.794806,599618505875776408,184.00
2025-11-18 12:55:19.794806,599618505875776408,145.00
2025-11-18 12:55:19.794806,599618505875776408,111.00
2025-11-18 12:55:19.794806,599618505875776408,38.00
2025-11-18 12:55:19.794806,599618505875776408,-29.00
2025-11-18 12:55:20.334313,599618506436473449,-58.00
2025-11-18 12:55:20.334313,599618506436473449,-97.00
2025-11-18 12:55:20.334313,599618506436473449,-143.00
2025-11-18 12:55:20.334313,599618506436473449,-155.00
2025-11-18 12:55:20.334313,599618506436473449,-152.00
2025-11-18 12:55:20.334313,599618506436473449,-169.00
2025-11-18 12:55:20.334313,599618506436473449,-191.00
2025-11-18 12:55:20.334313,599618506436473449,-174.00
2025-11-18 12:55:20.334313,599618506436473449,-116.00
2025-11-18 12:55:20.334313,599618506436473449,-104.00
2025-11-18 12:55:20.334313,599618506436473449,-130.00
2025-11-18 12:55:20.334313,599618506436473449,-116.00
2025-11-18 12:55:20.334313,599618506436473449,-106.00
2025-11-18 12:55:20.334313,599618506436473449,-126.00
2025-11-18 12:55:20.334313,599618506436473449,-126.00
2025-11-18 12:55:20.334313,599618506436473449,-113.00
2025-11-18 12:55:20.334313,599618506436473449,-118.00
2025-11-18 12:55:20.334313,599618506436473449,-118.00
2025-11-18 12:55:20.334313,599618506436473449,-106.00
2025-11-18 12:55:20.334313,599618506436473449,-101.00
2025-11-18 12:55:20.334313,599618506436473449,-94.00
2025-11-18 12:55:20.334313,599618506436473449,-70.00
2025-11-18 12:55:20.334313,599618506436473449,-77.00
2025-11-18 12:55:20.334313,599618506436473449,-101.00
2025-11-18 12:55:20.334313,599618506436473449,-89.00
2025-11-18 12:55:20.334313,599618506436473449,-80.00
2025-11-18 12:55:20.334313,599618506436473449,-97.00
2025-11-18 12:55:20.334313,599618506436473449,-89.00
2025-11-18 12:55:20.334313,599618506436473449,-60.00
2025-11-18 12:55:20.334313,599618506436473449,-65.00
2025-11-18 12:55:20.334313,599618506436473449,-87.00
2025-11-18 12:55:20.334313,599618506436473449,-87.00
2025-11-18 12:55:20.334313,599618506436473449,-70.00
2025-11-18 12:55:20.334313,599618506436473449,-65.00
2025-11-18 12:55:20.334313,599618506436473449,-80.00
2025-11-18 12:55:20.334313,599618506436473449,-89.00
2025-11-18 12:55:20.334313,599618506436473449,-77.00
2025-11-18 12:55:20.334313,599618506436473449,-60.00
2025-11-18 12:55:20.334313,599618506436473449,-72.00
2025-11-18 12:55:20.334313,599618506436473449,-84.00
2025-11-18 12:55:20.334313,599618506436473449,-72.00
2025-11-18 12:55:20.334313,599618506436473449,-58.00
2025-11-18 12:55:20.334313,599618506436473449,-53.00
2025-11-18 12:55:20.334313,599618506436473449,-53.00
2025-11-18 12:55:20.334313,599618506436473449,-58.00
2025-11-18 12:55:20.334313,599618506436473449,-67.00
2025-11-18 12:55:20.334313,599618506436473449,-75.00
2025-11-18 12:55:20.334313,599618506436473449,-82.00
2025-11-18 12:55:20.334313,599618506436473449,-84.00
2025-11-18 12:55:20.334313,599618506436473449,-84.00
2025-11-18 12:55:20.334313,599618506436473449,-92.00
2025-11-18 12:55:20.334313,599618506436473449,-101.00
2025-11-18 12:55:20.334313,599618506436473449,-104.00
2025-11-18 12:55:20.334313,599618506436473449,-106.00
2025-11-18 12:55:20.334313,599618506436473449,-99.00
2025-11-18 12:55:20.334313,599618506436473449,-97.00
2025-11-18 12:55:20.334313,599618506436473449,-128.00
2025-11-18 12:55:20.334313,599618506436473449,-38.00
2025-11-18 12:55:20.334313,599618506436473449,375.00
2025-11-18 12:55:20.334313,599618506436473449,957.00
2025-11-18 12:55:20.334313,599618506436473449,1161.00
2025-11-18 12:55:20.334313,599618506436473449,548.00
2025-11-18 12:55:20.334313,599618506436473449,-373.00
2025-11-18 12:55:20.334313,599618506436473449,-562.00
2025-11-18 12:55:20.334313,599618506436473449,-206.00
2025-11-18 12:55:20.334313,599618506436473449,-126.00
2025-11-18 12:55:20.334313,599618506436473449,-201.00
2025-11-18 12:55:20.334313,599618506436473449,-130.00
2025-11-18 12:55:20.334313,599618506436473449,-82.00
2025-11-18 12:55:20.334313,599618506436473449,-111.00
2025-11-18 12:55:20.334313,599618506436473449,-104.00
2025-11-18 12:55:20.334313,599618506436473449,-92.00
2025-11-18 12:55:20.334313,599618506436473449,-99.00
2025-11-18 12:55:20.907225,599618506997170490,-80.00
2025-11-18 12:55:20.907225,599618506997170490,-70.00
2025-11-18 12:55:20.907225,599618506997170490,-84.00
2025-11-18 12:55:20.907225,599618506997170490,-75.00
2025-11-18 12:55:20.907225,599618506997170490,-48.00
2025-11-18 12:55:20.907225,599618506997170490,-33.00
2025-11-18 12:55:20.907225,599618506997170490,-33.00
2025-11-18 12:55:20.907225,599618506997170490,-29.00
2025-11-18 12:55:20.907225,599618506997170490,-19.00
2025-11-18 12:55:20.907225,599618506997170490,-9.00
2025-11-18 12:55:20.907225,599618506997170490,12.00
2025-11-18 12:55:20.907225,599618506997170490,31.00
2025-11-18 12:55:20.907225,599618506997170490,36.00
2025-11-18 12:55:20.907225,599618506997170490,48.00
2025-11-18 12:55:20.907225,599618506997170490,87.00
2025-11-18 12:55:20.907225,599618506997170490,113.00
2025-11-18 12:55:20.907225,599618506997170490,128.00
2025-11-18 12:55:20.907225,599618506997170490,155.00
2025-11-18 12:55:20.907225,599618506997170490,186.00
2025-11-18 12:55:20.907225,599618506997170490,206.00
2025-11-18 12:55:20.907225,599618506997170490,210.00
2025-11-18 12:55:20.907225,599618506997170490,213.00
2025-11-18 12:55:20.907225,599618506997170490,208.00
2025-11-18 12:55:20.907225,599618506997170490,167.00
2025-11-18 12:55:20.907225,599618506997170490,92.00
2025-11-18 12:55:20.907225,599618506997170490,21.00
2025-11-18 12:55:20.907225,599618506997170490,-43.00
2025-11-18 12:55:20.907225,599618506997170490,-106.00
2025-11-18 12:55:20.907225,599618506997170490,-157.00
2025-11-18 12:55:20.907225,599618506997170490,-189.00
2025-11-18 12:55:20.907225,599618506997170490,-203.00
2025-11-18 12:55:20.907225,599618506997170490,-203.00
2025-11-18 12:55:20.907225,599618506997170490,-203.00
2025-11-18 12:55:20.907225,599618506997170490,-208.00
2025-11-18 12:55:20.907225,599618506997170490,-206.00
2025-11-18 12:55:20.907225,599618506997170490,-194.00
2025-11-18 12:55:20.907225,599618506997170490,-196.00
2025-11-18 12:55:20.907225,599618506997170490,-206.00
2025-11-18 12:55:20.907225,599618506997170490,-198.00
2025-11-18 12:55:20.907225,599618506997170490,-179.00
2025-11-18 12:55:20.907225,599618506997170490,-164.00
2025-11-18 12:55:20.907225,599618506997170490,-162.00
2025-11-18 12:55:20.907225,599618506997170490,-160.00
2025-11-18 12:55:20.907225,599618506997170490,-157.00
2025-11-18 12:55:20.907225,599618506997170490,-157.00
2025-11-18 12:55:20.907225,599618506997170490,-150.00
2025-11-18 12:55:20.907225,599618506997170490,-140.00
2025-11-18 12:55:20.907225,599618506997170490,-138.00
2025-11-18 12:55:20.907225,599618506997170490,-140.00
2025-11-18 12:55:20.907225,599618506997170490,-130.00
2025-11-18 12:55:20.907225,599618506997170490,-123.00
2025-11-18 12:55:20.907225,599618506997170490,-130.00
2025-11-18 12:55:20.907225,599618506997170490,-135.00
2025-11-18 12:55:20.907225,599618506997170490,-128.00
2025-11-18 12:55:20.907225,599618506997170490,-128.00
2025-11-18 12:55:20.907225,599618506997170490,-135.00
2025-11-18 12:55:20.907225,599618506997170490,-123.00
2025-11-18 12:55:20.907225,599618506997170490,-109.00
2025-11-18 12:55:20.907225,599618506997170490,-113.00
2025-11-18 12:55:20.907225,599618506997170490,-118.00
2025-11-18 12:55:20.907225,599618506997170490,-116.00
2025-11-18 12:55:20.907225,599618506997170490,-121.00
2025-11-18 12:55:20.907225,599618506997170490,-123.00
2025-11-18 12:55:20.907225,599618506997170490,-121.00
2025-11-18 12:55:20.907225,599618506997170490,-109.00
2025-11-18 12:55:20.907225,599618506997170490,-99.00
2025-11-18 12:55:20.907225,599618506997170490,-106.00
2025-11-18 12:55:20.907225,599618506997170490,-113.00
2025-11-18 12:55:20.907225,599618506997170490,-104.00
2025-11-18 12:55:20.907225,599618506997170490,-87.00
2025-11-18 12:55:20.907225,599618506997170490,-80.00
2025-11-18 12:55:20.907225,599618506997170490,-84.00
2025-11-18 12:55:20.907225,599618506997170490,-82.00
2025-11-18 12:55:21.445121,599618507557837013,-84.00
2025-11-18 12:55:21.445121,599618507557837013,-101.00
2025-11-18 12:55:21.445121,599618507557837013,-113.00
2025-11-18 12:55:21.445121,599618507557837013,-111.00
2025-11-18 12:55:21.445121,599618507557837013,-101.00
2025-11-18 12:55:21.445121,599618507557837013,-104.00
2025-11-18 12:55:21.445121,599618507557837013,-109.00
2025-11-18 12:55:21.445121,599618507557837013,-99.00
2025-11-18 12:55:21.445121,599618507557837013,-87.00
2025-11-18 12:55:21.445121,599618507557837013,-101.00
2025-11-18 12:55:21.445121,599618507557837013,-152.00
2025-11-18 12:55:21.445121,599618507557837013,-157.00
2025-11-18 12:55:21.445121,599618507557837013,109.00
2025-11-18 12:55:21.445121,599618507557837013,705.00
2025-11-18 12:55:21.445121,599618507557837013,1239.00
2025-11-18 12:55:21.445121,599618507557837013,1030.00
2025-11-18 12:55:21.445121,599618507557837013,43.00
2025-11-18 12:55:21.445121,599618507557837013,-599.00
2025-11-18 12:55:21.445121,599618507557837013,-371.00
2025-11-18 12:55:21.445121,599618507557837013,-135.00
2025-11-18 12:55:21.445121,599618507557837013,-203.00
2025-11-18 12:55:21.445121,599618507557837013,-179.00
2025-11-18 12:55:21.445121,599618507557837013,-111.00
2025-11-18 12:55:21.445121,599618507557837013,-143.00
2025-11-18 12:55:21.445121,599618507557837013,-147.00
2025-11-18 12:55:21.445121,599618507557837013,-111.00
2025-11-18 12:55:21.445121,599618507557837013,-106.00
2025-11-18 12:55:21.445121,599618507557837013,-109.00
2025-11-18 12:55:21.445121,599618507557837013,-94.00
2025-11-18 12:55:21.445121,599618507557837013,-89.00
2025-11-18 12:55:21.445121,599618507557837013,-87.00
2025-11-18 12:55:21.445121,599618507557837013,-75.00
2025-11-18 12:55:21.445121,599618507557837013,-65.00
2025-11-18 12:55:21.445121,599618507557837013,-65.00
2025-11-18 12:55:21.445121,599618507557837013,-58.00
2025-11-18 12:55:21.445121,599618507557837013,-46.00
2025-11-18 12:55:21.445121,599618507557837013,-31.00
2025-11-18 12:55:21.445121,599618507557837013,-16.00
2025-11-18 12:55:21.445121,599618507557837013,-4.00
2025-11-18 12:55:21.445121,599618507557837013,4.00
2025-11-18 12:55:21.445121,599618507557837013,24.00
2025-11-18 12:55:21.445121,599618507557837013,50.00
2025-11-18 12:55:21.445121,599618507557837013,80.00
2025-11-18 12:55:21.445121,599618507557837013,101.00
2025-11-18 12:55:21.445121,599618507557837013,123.00
2025-11-18 12:55:21.445121,599618507557837013,152.00
2025-11-18 12:55:21.445121,599618507557837013,177.00
2025-11-18 12:55:21.445121,599618507557837013,191.00
2025-11-18 12:55:21.445121,599618507557837013,194.00
2025-11-18 12:55:21.445121,599618507557837013,194.00
2025-11-18 12:55:21.445121,599618507557837013,177.00
2025-11-18 12:55:21.445121,599618507557837013,128.00
2025-11-18 12:55:21.445121,599618507557837013,55.00
2025-11-18 12:55:21.445121,599618507557837013,-14.00
2025-11-18 12:55:21.445121,599618507557837013,-70.00
2025-11-18 12:55:21.445121,599618507557837013,-113.00
2025-11-18 12:55:21.445121,599618507557837013,-155.00
2025-11-18 12:55:21.445121,599618507557837013,-177.00
2025-11-18 12:55:21.445121,599618507557837013,-179.00
2025-11-18 12:55:21.445121,599618507557837013,-184.00
2025-11-18 12:55:21.445121,599618507557837013,-184.00
2025-11-18 12:55:21.445121,599618507557837013,-172.00
2025-11-18 12:55:21.445121,599618507557837013,-160.00
2025-11-18 12:55:21.445121,599618507557837013,-160.00
2025-11-18 12:55:21.445121,599618507557837013,-162.00
2025-11-18 12:55:21.445121,599618507557837013,-150.00
2025-11-18 12:55:21.445121,599618507557837013,-135.00
2025-11-18 12:55:21.445121,599618507557837013,-135.00
2025-11-18 12:55:21.445121,599618507557837013,-140.00
2025-11-18 12:55:21.445121,599618507557837013,-135.00
2025-11-18 12:55:21.445121,599618507557837013,-123.00
2025-11-18 12:55:21.445121,599618507557837013,-113.00
2025-11-18 12:55:21.445121,599618507557837013,-111.00
2025-11-18 12:55:22.014402,599618508118534054,-109.00
2025-11-18 12:55:22.014402,599618508118534054,-109.00
2025-11-18 12:55:22.014402,599618508118534054,-106.00
2025-11-18 12:55:22.014402,599618508118534054,-97.00
2025-11-18 12:55:22.014402,599618508118534054,-94.00
2025-11-18 12:55:22.014402,599618508118534054,-97.00
2025-11-18 12:55:22.014402,599618508118534054,-92.00
2025-11-18 12:55:22.014402,599618508118534054,-87.00
2025-11-18 12:55:22.014402,599618508118534054,-89.00
2025-11-18 12:55:22.014402,599618508118534054,-89.00
2025-11-18 12:55:22.014402,599618508118534054,-84.00
2025-11-18 12:55:22.014402,599618508118534054,-82.00
2025-11-18 12:55:22.014402,599618508118534054,-82.00
2025-11-18 12:55:22.014402,599618508118534054,-80.00
2025-11-18 12:55:22.014402,599618508118534054,-82.00
2025-11-18 12:55:22.014402,599618508118534054,-82.00
2025-11-18 12:55:22.014402,599618508118534054,-75.00
2025-11-18 12:55:22.014402,599618508118534054,-70.00
2025-11-18 12:55:22.014402,599618508118534054,-67.00
2025-11-18 12:55:22.014402,599618508118534054,-70.00
2025-11-18 12:55:22.014402,599618508118534054,-75.00
2025-11-18 12:55:22.014402,599618508118534054,-72.00
2025-11-18 12:55:22.014402,599618508118534054,-70.00
2025-11-18 12:55:22.014402,599618508118534054,-67.00
2025-11-18 12:55:22.014402,599618508118534054,-65.00
2025-11-18 12:55:22.014402,599618508118534054,-67.00
2025-11-18 12:55:22.014402,599618508118534054,-70.00
2025-11-18 12:55:22.014402,599618508118534054,-70.00
2025-11-18 12:55:22.014402,599618508118534054,-67.00
2025-11-18 12:55:22.014402,599618508118534054,-70.00
2025-11-18 12:55:22.014402,599618508118534054,-65.00
2025-11-18 12:55:22.014402,599618508118534054,-55.00
2025-11-18 12:55:22.014402,599618508118534054,-50.00
2025-11-18 12:55:22.014402,599618508118534054,-43.00
2025-11-18 12:55:22.014402,599618508118534054,-33.00
2025-11-18 12:55:22.014402,599618508118534054,-36.00
2025-11-18 12:55:22.014402,599618508118534054,-53.00
2025-11-18 12:55:22.014402,599618508118534054,-60.00
2025-11-18 12:55:22.014402,599618508118534054,-60.00
2025-11-18 12:55:22.014402,599618508118534054,-60.00
2025-11-18 12:55:22.014402,599618508118534054,-60.00
2025-11-18 12:55:22.014402,599618508118534054,-63.00
2025-11-18 12:55:22.014402,599618508118534054,-55.00
2025-11-18 12:55:22.014402,599618508118534054,-50.00
2025-11-18 12:55:22.014402,599618508118534054,-72.00
2025-11-18 12:55:22.014402,599618508118534054,-135.00
2025-11-18 12:55:22.014402,599618508118534054,-172.00
2025-11-18 12:55:22.014402,599618508118534054,55.00
2025-11-18 12:55:22.014402,599618508118534054,688.00
2025-11-18 12:55:22.014402,599618508118534054,1384.00
2025-11-18 12:55:22.014402,599618508118534054,1440.00
2025-11-18 12:55:22.014402,599618508118534054,531.00
2025-11-18 12:55:22.014402,599618508118534054,-426.00
2025-11-18 12:55:22.014402,599618508118534054,-417.00
2025-11-18 12:55:22.014402,599618508118534054,-67.00
2025-11-18 12:55:22.014402,599618508118534054,-135.00
2025-11-18 12:55:22.014402,599618508118534054,-220.00
2025-11-18 12:55:22.014402,599618508118534054,-121.00
2025-11-18 12:55:22.014402,599618508118534054,-109.00
2025-11-18 12:55:22.014402,599618508118534054,-147.00
2025-11-18 12:55:22.014402,599618508118534054,-116.00
2025-11-18 12:55:22.014402,599618508118534054,-87.00
2025-11-18 12:55:22.014402,599618508118534054,-97.00
2025-11-18 12:55:22.014402,599618508118534054,-92.00
2025-11-18 12:55:22.014402,599618508118534054,-67.00
2025-11-18 12:55:22.014402,599618508118534054,-58.00
2025-11-18 12:55:22.014402,599618508118534054,-60.00
2025-11-18 12:55:22.014402,599618508118534054,-50.00
2025-11-18 12:55:22.014402,599618508118534054,-38.00
2025-11-18 12:55:22.014402,599618508118534054,-43.00
2025-11-18 12:55:22.014402,599618508118534054,-46.00
2025-11-18 12:55:22.014402,599618508118534054,-21.00
2025-11-18 12:55:22.014402,599618508118534054,4.00
2025-11-18 12:55:22.615334,599618508679200579,19.00
2025-11-18 12:55:22.615334,599618508679200579,29.00
2025-11-18 12:55:22.615334,599618508679200579,53.00
2025-11-18 12:55:22.615334,599618508679200579,72.00
2025-11-18 12:55:22.615334,599618508679200579,82.00
2025-11-18 12:55:22.615334,599618508679200579,101.00
2025-11-18 12:55:22.615334,599618508679200579,145.00
2025-11-18 12:55:22.615334,599618508679200579,181.00
2025-11-18 12:55:22.615334,599618508679200579,191.00
2025-11-18 12:55:22.615334,599618508679200579,196.00
2025-11-18 12:55:22.615334,599618508679200579,213.00
2025-11-18 12:55:22.615334,599618508679200579,230.00
2025-11-18 12:55:22.615334,599618508679200579,215.00
2025-11-18 12:55:22.615334,599618508679200579,167.00
2025-11-18 12:55:22.615334,599618508679200579,106.00
2025-11-18 12:55:22.615334,599618508679200579,50.00
2025-11-18 12:55:22.615334,599618508679200579,-19.00
2025-11-18 12:55:22.615334,599618508679200579,-92.00
2025-11-18 12:55:22.615334,599618508679200579,-128.00
2025-11-18 12:55:22.615334,599618508679200579,-140.00
2025-11-18 12:55:22.615334,599618508679200579,-157.00
2025-11-18 12:55:22.615334,599618508679200579,-147.00
2025-11-18 12:55:22.615334,599618508679200579,-143.00
2025-11-18 12:55:22.615334,599618508679200579,-172.00
2025-11-18 12:55:22.615334,599618508679200579,-177.00
2025-11-18 12:55:22.615334,599618508679200579,-160.00
2025-11-18 12:55:22.615334,599618508679200579,-157.00
2025-11-18 12:55:22.615334,599618508679200579,-147.00
2025-11-18 12:55:22.615334,599618508679200579,-128.00
2025-11-18 12:55:22.615334,599618508679200579,-123.00
2025-11-18 12:55:22.615334,599618508679200579,-123.00
2025-11-18 12:55:22.615334,599618508679200579,-118.00
2025-11-18 12:55:22.615334,599618508679200579,-116.00
2025-11-18 12:55:22.615334,599618508679200579,-130.00
2025-11-18 12:55:22.615334,599618508679200579,-140.00
2025-11-18 12:55:22.615334,599618508679200579,-140.00
2025-11-18 12:55:22.615334,599618508679200579,-143.00
2025-11-18 12:55:22.615334,599618508679200579,-135.00
2025-11-18 12:55:22.615334,599618508679200579,-113.00
2025-11-18 12:55:22.615334,599618508679200579,-113.00
2025-11-18 12:55:22.615334,599618508679200579,-111.00
2025-11-18 12:55:22.615334,599618508679200579,-80.00
2025-11-18 12:55:22.615334,599618508679200579,-77.00
2025-11-18 12:55:22.615334,599618508679200579,-111.00
2025-11-18 12:55:22.615334,599618508679200579,-121.00
2025-11-18 12:55:22.615334,599618508679200579,-113.00
2025-11-18 12:55:22.615334,599618508679200579,-109.00
2025-11-18 12:55:22.615334,599618508679200579,-92.00
2025-11-18 12:55:22.615334,599618508679200579,-84.00
2025-11-18 12:55:22.615334,599618508679200579,-80.00
2025-11-18 12:55:22.615334,599618508679200579,-58.00
2025-11-18 12:55:22.615334,599618508679200579,-55.00
2025-11-18 12:55:22.615334,599618508679200579,-75.00
2025-11-18 12:55:22.615334,599618508679200579,-70.00
2025-11-18 12:55:22.615334,599618508679200579,-60.00
2025-11-18 12:55:22.615334,599618508679200579,-72.00
2025-11-18 12:55:22.615334,599618508679200579,-80.00
2025-11-18 12:55:22.615334,599618508679200579,-77.00
2025-11-18 12:55:22.615334,599618508679200579,-92.00
2025-11-18 12:55:22.615334,599618508679200579,-89.00
2025-11-18 12:55:22.615334,599618508679200579,-46.00
2025-11-18 12:55:22.615334,599618508679200579,-14.00
2025-11-18 12:55:22.615334,599618508679200579,-38.00
2025-11-18 12:55:22.615334,599618508679200579,-60.00
2025-11-18 12:55:22.615334,599618508679200579,-55.00
2025-11-18 12:55:22.615334,599618508679200579,-50.00
2025-11-18 12:55:22.615334,599618508679200579,-38.00
2025-11-18 12:55:22.615334,599618508679200579,-21.00
2025-11-18 12:55:22.615334,599618508679200579,-21.00
2025-11-18 12:55:22.615334,599618508679200579,-19.00
2025-11-18 12:55:22.615334,599618508679200579,-14.00
2025-11-18 12:55:22.615334,599618508679200579,-16.00
2025-11-18 12:55:22.615334,599618508679200579,-19.00
2025-11-18 12:55:23.155935,599618509239897620,-9.00
2025-11-18 12:55:23.155935,599618509239897620,-9.00
2025-11-18 12:55:23.155935,599618509239897620,-21.00
2025-11-18 12:55:23.155935,599618509239897620,-19.00
2025-11-18 12:55:23.155935,599618509239897620,-7.00
2025-11-18 12:55:23.155935,599618509239897620,-4.00
2025-11-18 12:55:23.155935,599618509239897620,-16.00
2025-11-18 12:55:23.155935,599618509239897620,-29.00
2025-11-18 12:55:23.155935,599618509239897620,-46.00
2025-11-18 12:55:23.155935,599618509239897620,-77.00
2025-11-18 12:55:23.155935,599618509239897620,24.00
2025-11-18 12:55:23.155935,599618509239897620,470.00
2025-11-18 12:55:23.155935,599618509239897620,1134.00
2025-11-18 12:55:23.155935,599618509239897620,1438.00
2025-11-18 12:55:23.155935,599618509239897620,868.00
2025-11-18 12:55:23.155935,599618509239897620,-109.00
2025-11-18 12:55:23.155935,599618509239897620,-388.00
2025-11-18 12:55:23.155935,599618509239897620,-41.00
2025-11-18 12:55:23.155935,599618509239897620,33.00
2025-11-18 12:55:23.155935,599618509239897620,-97.00
2025-11-18 12:55:23.155935,599618509239897620,-58.00
2025-11-18 12:55:23.155935,599618509239897620,-14.00
2025-11-18 12:55:23.155935,599618509239897620,-46.00
2025-11-18 12:55:23.155935,599618509239897620,-41.00
2025-11-18 12:55:23.155935,599618509239897620,-19.00
2025-11-18 12:55:23.155935,599618509239897620,-29.00
2025-11-18 12:55:23.155935,599618509239897620,-31.00
2025-11-18 12:55:23.155935,599618509239897620,-7.00
2025-11-18 12:55:23.155935,599618509239897620,21.00
2025-11-18 12:55:23.155935,599618509239897620,29.00
2025-11-18 12:55:23.155935,599618509239897620,24.00
2025-11-18 12:55:23.155935,599618509239897620,29.00
2025-11-18 12:55:23.155935,599618509239897620,41.00
2025-11-18 12:55:23.155935,599618509239897620,46.00
2025-11-18 12:55:23.155935,599618509239897620,38.00
2025-11-18 12:55:23.155935,599618509239897620,36.00
2025-11-18 12:55:23.155935,599618509239897620,50.00
2025-11-18 12:55:23.155935,599618509239897620,75.00
2025-11-18 12:55:23.155935,599618509239897620,97.00
2025-11-18 12:55:23.155935,599618509239897620,128.00
2025-11-18 12:55:23.155935,599618509239897620,164.00
2025-11-18 12:55:23.155935,599618509239897620,172.00
2025-11-18 12:55:23.155935,599618509239897620,174.00
2025-11-18 12:55:23.155935,599618509239897620,201.00
2025-11-18 12:55:23.155935,599618509239897620,225.00
2025-11-18 12:55:23.155935,599618509239897620,225.00
2025-11-18 12:55:23.155935,599618509239897620,213.00
2025-11-18 12:55:23.155935,599618509239897620,218.00
2025-11-18 12:55:23.155935,599618509239897620,247.00
2025-11-18 12:55:23.155935,599618509239897620,247.00
2025-11-18 12:55:23.155935,599618509239897620,186.00
2025-11-18 12:55:23.155935,599618509239897620,113.00
2025-11-18 12:55:23.155935,599618509239897620,50.00
2025-11-18 12:55:23.155935,599618509239897620,-19.00
2025-11-18 12:55:23.155935,599618509239897620,-80.00
2025-11-18 12:55:23.155935,599618509239897620,-104.00
2025-11-18 12:55:23.155935,599618509239897620,-104.00
2025-11-18 12:55:23.155935,599618509239897620,-106.00
2025-11-18 12:55:23.155935,599618509239897620,-118.00
2025-11-18 12:55:23.155935,599618509239897620,-113.00
2025-11-18 12:55:23.155935,599618509239897620,-99.00
2025-11-18 12:55:23.155935,599618509239897620,-89.00
2025-11-18 12:55:23.155935,599618509239897620,-80.00
2025-11-18 12:55:23.155935,599618509239897620,-67.00
2025-11-18 12:55:23.155935,599618509239897620,-60.00
2025-11-18 12:55:23.155935,599618509239897620,-41.00
2025-11-18 12:55:23.155935,599618509239897620,-4.00
2025-11-18 12:55:23.155935,599618509239897620,-26.00
2025-11-18 12:55:23.155935,599618509239897620,-113.00
2025-11-18 12:55:23.155935,599618509239897620,-126.00
2025-11-18 12:55:23.155935,599618509239897620,-72.00
2025-11-18 12:55:23.155935,599618509239897620,-63.00
2025-11-18 12:55:23.155935,599618509239897620,-70.00
2025-11-18 12:55:23.693997,599618509800594661,-58.00
2025-11-18 12:55:23.693997,599618509800594661,-38.00
2025-11-18 12:55:23.693997,599618509800594661,-31.00
2025-11-18 12:55:23.693997,599618509800594661,-38.00
2025-11-18 12:55:23.693997,599618509800594661,-46.00
2025-11-18 12:55:23.693997,599618509800594661,-41.00
2025-11-18 12:55:23.693997,599618509800594661,-38.00
2025-11-18 12:55:23.693997,599618509800594661,-38.00
2025-11-18 12:55:23.693997,599618509800594661,-31.00
2025-11-18 12:55:23.693997,599618509800594661,-24.00
2025-11-18 12:55:23.693997,599618509800594661,-24.00
2025-11-18 12:55:23.693997,599618509800594661,-31.00
2025-11-18 12:55:23.693997,599618509800594661,-33.00
2025-11-18 12:55:23.693997,599618509800594661,-19.00
2025-11-18 12:55:23.693997,599618509800594661,-4.00
2025-11-18 12:55:23.693997,599618509800594661,-12.00
2025-11-18 12:55:23.693997,599618509800594661,-21.00
2025-11-18 12:55:23.693997,599618509800594661,-21.00
2025-11-18 12:55:23.693997,599618509800594661,-21.00
2025-11-18 12:55:23.693997,599618509800594661,-26.00
2025-11-18 12:55:23.693997,599618509800594661,-29.00
2025-11-18 12:55:23.693997,599618509800594661,-26.00
2025-11-18 12:55:23.693997,599618509800594661,-26.00
2025-11-18 12:55:23.693997,599618509800594661,-41.00
2025-11-18 12:55:23.693997,599618509800594661,-46.00
2025-11-18 12:55:23.693997,599618509800594661,-38.00
2025-11-18 12:55:23.693997,599618509800594661,-36.00
2025-11-18 12:55:23.693997,599618509800594661,-36.00
2025-11-18 12:55:23.693997,599618509800594661,-41.00
2025-11-18 12:55:23.693997,599618509800594661,-43.00
2025-11-18 12:55:23.693997,599618509800594661,-43.00
2025-11-18 12:55:23.693997,599618509800594661,-41.00
2025-11-18 12:55:23.693997,599618509800594661,-41.00
2025-11-18 12:55:23.693997,599618509800594661,-46.00
2025-11-18 12:55:23.693997,599618509800594661,-53.00
2025-11-18 12:55:23.693997,599618509800594661,-53.00
2025-11-18 12:55:23.693997,599618509800594661,-38.00
2025-11-18 12:55:23.693997,599618509800594661,-31.00
2025-11-18 12:55:23.693997,599618509800594661,-29.00
2025-11-18 12:55:23.693997,599618509800594661,-21.00
2025-11-18 12:55:23.693997,599618509800594661,-26.00
2025-11-18 12:55:23.693997,599618509800594661,-31.00
2025-11-18 12:55:23.693997,599618509800594661,-38.00
2025-11-18 12:55:23.693997,599618509800594661,-48.00
2025-11-18 12:55:23.693997,599618509800594661,-46.00
2025-11-18 12:55:23.693997,599618509800594661,-46.00
2025-11-18 12:55:23.693997,599618509800594661,-50.00
2025-11-18 12:55:23.693997,599618509800594661,-50.00
2025-11-18 12:55:23.693997,599618509800594661,-50.00
2025-11-18 12:55:23.693997,599618509800594661,-75.00
2025-11-18 12:55:23.693997,599618509800594661,-130.00
2025-11-18 12:55:23.693997,599618509800594661,-126.00
2025-11-18 12:55:23.693997,599618509800594661,164.00
2025-11-18 12:55:23.693997,599618509800594661,776.00
2025-11-18 12:55:23.693997,599618509800594661,1302.00
2025-11-18 12:55:23.693997,599618509800594661,1144.00
2025-11-18 12:55:23.693997,599618509800594661,230.00
2025-11-18 12:55:23.693997,599618509800594661,-472.00
2025-11-18 12:55:23.693997,599618509800594661,-315.00
2025-11-18 12:55:23.693997,599618509800594661,-55.00
2025-11-18 12:55:23.693997,599618509800594661,-160.00
2025-11-18 12:55:23.693997,599618509800594661,-186.00
2025-11-18 12:55:23.693997,599618509800594661,-97.00
2025-11-18 12:55:23.693997,599618509800594661,-109.00
2025-11-18 12:55:23.693997,599618509800594661,-133.00
2025-11-18 12:55:23.693997,599618509800594661,-97.00
2025-11-18 12:55:23.693997,599618509800594661,-82.00
2025-11-18 12:55:23.693997,599618509800594661,-89.00
2025-11-18 12:55:23.693997,599618509800594661,-82.00
2025-11-18 12:55:23.693997,599618509800594661,-72.00
2025-11-18 12:55:23.693997,599618509800594661,-65.00
2025-11-18 12:55:23.693997,599618509800594661,-55.00
2025-11-18 12:55:23.693997,599618509800594661,-46.00
2025-11-18 12:55:24.262861,599618510361261184,-38.00
2025-11-18 12:55:24.262861,599618510361261184,-29.00
2025-11-18 12:55:24.262861,599618510361261184,-16.00
2025-11-18 12:55:24.262861,599618510361261184,-4.00
2025-11-18 12:55:24.262861,599618510361261184,0.00
2025-11-18 12:55:24.262861,599618510361261184,9.00
2025-11-18 12:55:24.262861,599618510361261184,31.00
2025-11-18 12:55:24.262861,599618510361261184,53.00
2025-11-18 12:55:24.262861,599618510361261184,72.00
2025-11-18 12:55:24.262861,599618510361261184,94.00
2025-11-18 12:55:24.262861,599618510361261184,121.00
2025-11-18 12:55:24.262861,599618510361261184,147.00
2025-11-18 12:55:24.262861,599618510361261184,169.00
2025-11-18 12:55:24.262861,599618510361261184,189.00
2025-11-18 12:55:24.262861,599618510361261184,198.00
2025-11-18 12:55:24.262861,599618510361261184,208.00
2025-11-18 12:55:24.262861,599618510361261184,223.00
2025-11-18 12:55:24.262861,599618510361261184,210.00
2025-11-18 12:55:24.262861,599618510361261184,157.00
2025-11-18 12:55:24.262861,599618510361261184,89.00
2025-11-18 12:55:24.262861,599618510361261184,19.00
2025-11-18 12:55:24.262861,599618510361261184,-50.00
2025-11-18 12:55:24.262861,599618510361261184,-109.00
2025-11-18 12:55:24.262861,599618510361261184,-152.00
2025-11-18 12:55:24.262861,599618510361261184,-177.00
2025-11-18 12:55:24.262861,599618510361261184,-184.00
2025-11-18 12:55:24.262861,599618510361261184,-196.00
2025-11-18 12:55:24.262861,599618510361261184,-206.00
2025-11-18 12:55:24.262861,599618510361261184,-194.00
2025-11-18 12:55:24.262861,599618510361261184,-179.00
2025-11-18 12:55:24.262861,599618510361261184,-177.00
2025-11-18 12:55:24.262861,599618510361261184,-177.00
2025-11-18 12:55:24.262861,599618510361261184,-172.00
2025-11-18 12:55:24.262861,599618510361261184,-169.00
2025-11-18 12:55:24.262861,599618510361261184,-164.00
2025-11-18 12:55:24.262861,599618510361261184,-157.00
2025-11-18 12:55:24.262861,599618510361261184,-157.00
2025-11-18 12:55:24.262861,599618510361261184,-157.00
2025-11-18 12:55:24.262861,599618510361261184,-147.00
2025-11-18 12:55:24.262861,599618510361261184,-140.00
2025-11-18 12:55:24.262861,599618510361261184,-138.00
2025-11-18 12:55:24.262861,599618510361261184,-138.00
2025-11-18 12:55:24.262861,599618510361261184,-135.00
2025-11-18 12:55:24.262861,599618510361261184,-133.00
2025-11-18 12:55:24.262861,599618510361261184,-126.00
2025-11-18 12:55:24.262861,599618510361261184,-118.00
2025-11-18 12:55:24.262861,599618510361261184,-113.00
2025-11-18 12:55:24.262861,599618510361261184,-113.00
2025-11-18 12:55:24.262861,599618510361261184,-111.00
2025-11-18 12:55:24.262861,599618510361261184,-104.00
2025-11-18 12:55:24.262861,599618510361261184,-99.00
2025-11-18 12:55:24.262861,599618510361261184,-94.00
2025-11-18 12:55:24.262861,599618510361261184,-92.00
2025-11-18 12:55:24.262861,599618510361261184,-92.00
2025-11-18 12:55:24.262861,599618510361261184,-92.00
2025-11-18 12:55:24.262861,599618510361261184,-94.00
2025-11-18 12:55:24.262861,599618510361261184,-89.00
2025-11-18 12:55:24.262861,599618510361261184,-82.00
2025-11-18 12:55:24.262861,599618510361261184,-80.00
2025-11-18 12:55:24.262861,599618510361261184,-80.00
2025-11-18 12:55:24.262861,599618510361261184,-80.00
2025-11-18 12:55:24.262861,599618510361261184,-77.00
2025-11-18 12:55:24.262861,599618510361261184,-75.00
2025-11-18 12:55:24.262861,599618510361261184,-75.00
2025-11-18 12:55:24.262861,599618510361261184,-75.00
2025-11-18 12:55:24.262861,599618510361261184,-70.00
2025-11-18 12:55:24.262861,599618510361261184,-67.00
2025-11-18 12:55:24.262861,599618510361261184,-65.00
2025-11-18 12:55:24.262861,599618510361261184,-63.00
2025-11-18 12:55:24.262861,599618510361261184,-60.00
2025-11-18 12:55:24.262861,599618510361261184,-60.00
2025-11-18 12:55:24.262861,599618510361261184,-60.00
2025-11-18 12:55:24.262861,599618510361261184,-55.00
2025-11-18 12:55:24.804605,599618510921958225,-55.00
2025-11-18 12:55:24.804605,599618510921958225,-55.00
2025-11-18 12:55:24.804605,599618510921958225,-58.00
2025-11-18 12:55:24.804605,599618510921958225,-58.00
2025-11-18 12:55:24.804605,599618510921958225,-50.00
2025-11-18 12:55:24.804605,599618510921958225,-43.00
2025-11-18 12:55:24.804605,599618510921958225,-38.00
2025-11-18 12:55:24.804605,599618510921958225,-29.00
2025-11-18 12:55:24.804605,599618510921958225,-21.00
2025-11-18 12:55:24.804605,599618510921958225,-19.00
2025-11-18 12:55:24.804605,599618510921958225,-21.00
2025-11-18 12:55:24.804605,599618510921958225,-16.00
2025-11-18 12:55:24.804605,599618510921958225,-14.00
2025-11-18 12:55:24.804605,599618510921958225,-29.00
2025-11-18 12:55:24.804605,599618510921958225,-43.00
2025-11-18 12:55:24.804605,599618510921958225,-41.00
2025-11-18 12:55:24.804605,599618510921958225,-36.00
2025-11-18 12:55:24.804605,599618510921958225,-41.00
2025-11-18 12:55:24.804605,599618510921958225,-41.00
2025-11-18 12:55:24.804605,599618510921958225,-36.00
2025-11-18 12:55:24.804605,599618510921958225,-36.00
2025-11-18 12:55:24.804605,599618510921958225,-41.00
2025-11-18 12:55:24.804605,599618510921958225,-75.00
2025-11-18 12:55:24.804605,599618510921958225,-133.00
2025-11-18 12:55:24.804605,599618510921958225,-60.00
2025-11-18 12:55:24.804605,599618510921958225,363.00
2025-11-18 12:55:24.804605,599618510921958225,1040.00
2025-11-18 12:55:24.804605,599618510921958225,1423.00
2025-11-18 12:55:24.804605,599618510921958225,921.00
2025-11-18 12:55:24.804605,599618510921958225,-126.00
2025-11-18 12:55:24.804605,599618510921958225,-509.00
2025-11-18 12:55:24.804605,599618510921958225,-169.00
2025-11-18 12:55:24.804605,599618510921958225,-65.00
2025-11-18 12:55:24.804605,599618510921958225,-181.00
2025-11-18 12:55:24.804605,599618510921958225,-128.00
2025-11-18 12:55:24.804605,599618510921958225,-75.00
2025-11-18 12:55:24.804605,599618510921958225,-109.00
2025-11-18 12:55:24.804605,599618510921958225,-99.00
2025-11-18 12:55:24.804605,599618510921958225,-70.00
2025-11-18 12:55:24.804605,599618510921958225,-72.00
2025-11-18 12:55:24.804605,599618510921958225,-70.00
2025-11-18 12:55:24.804605,599618510921958225,-55.00
2025-11-18 12:55:24.804605,599618510921958225,-50.00
2025-11-18 12:55:24.804605,599618510921958225,-48.00
2025-11-18 12:55:24.804605,599618510921958225,-41.00
2025-11-18 12:55:24.804605,599618510921958225,-26.00
2025-11-18 12:55:24.804605,599618510921958225,-16.00
2025-11-18 12:55:24.804605,599618510921958225,-12.00
2025-11-18 12:55:24.804605,599618510921958225,-2.00
2025-11-18 12:55:24.804605,599618510921958225,14.00
2025-11-18 12:55:24.804605,599618510921958225,29.00
2025-11-18 12:55:24.804605,599618510921958225,38.00
2025-11-18 12:55:24.804605,599618510921958225,53.00
2025-11-18 12:55:24.804605,599618510921958225,75.00
2025-11-18 12:55:24.804605,599618510921958225,92.00
2025-11-18 12:55:24.804605,599618510921958225,113.00
2025-11-18 12:55:24.804605,599618510921958225,140.00
2025-11-18 12:55:24.804605,599618510921958225,169.00
2025-11-18 12:55:24.804605,599618510921958225,196.00
2025-11-18 12:55:24.804605,599618510921958225,215.00
2025-11-18 12:55:24.804605,599618510921958225,235.00
2025-11-18 12:55:24.804605,599618510921958225,247.00
2025-11-18 12:55:24.804605,599618510921958225,240.00
2025-11-18 12:55:24.804605,599618510921958225,223.00
2025-11-18 12:55:24.804605,599618510921958225,184.00
2025-11-18 12:55:24.804605,599618510921958225,118.00
2025-11-18 12:55:24.804605,599618510921958225,48.00
2025-11-18 12:55:24.804605,599618510921958225,-16.00
2025-11-18 12:55:24.804605,599618510921958225,-75.00
2025-11-18 12:55:24.804605,599618510921958225,-116.00
2025-11-18 12:55:24.804605,599618510921958225,-140.00
2025-11-18 12:55:24.804605,599618510921958225,-152.00
2025-11-18 12:55:24.804605,599618510921958225,-160.00
2025-11-18 12:55:25.374156,599618511482655266,-155.00
2025-11-18 12:55:25.374156,599618511482655266,-150.00
2025-11-18 12:55:25.374156,599618511482655266,-147.00
2025-11-18 12:55:25.374156,599618511482655266,-143.00
2025-11-18 12:55:25.374156,599618511482655266,-133.00
2025-11-18 12:55:25.374156,599618511482655266,-128.00
2025-11-18 12:55:25.374156,599618511482655266,-121.00
2025-11-18 12:55:25.374156,599618511482655266,-113.00
2025-11-18 12:55:25.374156,599618511482655266,-109.00
2025-11-18 12:55:25.374156,599618511482655266,-106.00
2025-11-18 12:55:25.374156,599618511482655266,-106.00
2025-11-18 12:55:25.374156,599618511482655266,-101.00
2025-11-18 12:55:25.374156,599618511482655266,-97.00
2025-11-18 12:55:25.374156,599618511482655266,-92.00
2025-11-18 12:55:25.374156,599618511482655266,-87.00
2025-11-18 12:55:25.374156,599618511482655266,-82.00
2025-11-18 12:55:25.374156,599618511482655266,-80.00
2025-11-18 12:55:25.374156,599618511482655266,-77.00
2025-11-18 12:55:25.374156,599618511482655266,-77.00
2025-11-18 12:55:25.374156,599618511482655266,-84.00
2025-11-18 12:55:25.374156,599618511482655266,-80.00
2025-11-18 12:55:25.374156,599618511482655266,-75.00
2025-11-18 12:55:25.374156,599618511482655266,-77.00
2025-11-18 12:55:25.374156,599618511482655266,-77.00
2025-11-18 12:55:25.374156,599618511482655266,-67.00
2025-11-18 12:55:25.374156,599618511482655266,-67.00
2025-11-18 12:55:25.374156,599618511482655266,-67.00
2025-11-18 12:55:25.374156,599618511482655266,-63.00
2025-11-18 12:55:25.374156,599618511482655266,-67.00
2025-11-18 12:55:25.374156,599618511482655266,-70.00
2025-11-18 12:55:25.374156,599618511482655266,-67.00
2025-11-18 12:55:25.374156,599618511482655266,-65.00
2025-11-18 12:55:25.374156,599618511482655266,-60.00
2025-11-18 12:55:25.374156,599618511482655266,-63.00
2025-11-18 12:55:25.374156,599618511482655266,-63.00
2025-11-18 12:55:25.374156,599618511482655266,-58.00
2025-11-18 12:55:25.374156,599618511482655266,-58.00
2025-11-18 12:55:25.374156,599618511482655266,-60.00
2025-11-18 12:55:25.374156,599618511482655266,-58.00
2025-11-18 12:55:25.374156,599618511482655266,-53.00
2025-11-18 12:55:25.374156,599618511482655266,-53.00
2025-11-18 12:55:25.374156,599618511482655266,-55.00
2025-11-18 12:55:25.374156,599618511482655266,-53.00
2025-11-18 12:55:25.374156,599618511482655266,-53.00
2025-11-18 12:55:25.374156,599618511482655266,-53.00
2025-11-18 12:55:25.374156,599618511482655266,-55.00
2025-11-18 12:55:25.374156,599618511482655266,-58.00
2025-11-18 12:55:25.374156,599618511482655266,-53.00
2025-11-18 12:55:25.374156,599618511482655266,-41.00
2025-11-18 12:55:25.374156,599618511482655266,-36.00
2025-11-18 12:55:25.374156,599618511482655266,-33.00
2025-11-18 12:55:25.374156,599618511482655266,-26.00
2025-11-18 12:55:25.374156,599618511482655266,-19.00
2025-11-18 12:55:25.374156,599618511482655266,-24.00
2025-11-18 12:55:25.374156,599618511482655266,-33.00
2025-11-18 12:55:25.374156,599618511482655266,-43.00
2025-11-18 12:55:25.374156,599618511482655266,-50.00
2025-11-18 12:55:25.374156,599618511482655266,-48.00
2025-11-18 12:55:25.374156,599618511482655266,-46.00
2025-11-18 12:55:25.374156,599618511482655266,-48.00
2025-11-18 12:55:25.374156,599618511482655266,-43.00
2025-11-18 12:55:25.374156,599618511482655266,-38.00
2025-11-18 12:55:25.374156,599618511482655266,-43.00
2025-11-18 12:55:25.374156,599618511482655266,-75.00
2025-11-18 12:55:25.374156,599618511482655266,-135.00
2025-11-18 12:55:25.374156,599618511482655266,-101.00
2025-11-18 12:55:25.374156,599618511482655266,266.00
2025-11-18 12:55:25.374156,599618511482655266,953.00
2025-11-18 12:55:25.374156,599618511482655266,1467.00
2025-11-18 12:55:25.374156,599618511482655266,1142.00
2025-11-18 12:55:25.374156,599618511482655266,72.00
2025-11-18 12:55:25.374156,599618511482655266,-514.00
2025-11-18 12:55:25.374156,599618511482655266,-227.00
2025-11-18 12:55:25.975383,599618512043321791,-43.00
2025-11-18 12:55:25.975383,599618512043321791,-169.00
2025-11-18 12:55:25.975383,599618512043321791,-145.00
2025-11-18 12:55:25.975383,599618512043321791,-72.00
2025-11-18 12:55:25.975383,599618512043321791,-104.00
2025-11-18 12:55:25.975383,599618512043321791,-109.00
2025-11-18 12:55:25.975383,599618512043321791,-70.00
2025-11-18 12:55:25.975383,599618512043321791,-65.00
2025-11-18 12:55:25.975383,599618512043321791,-72.00
2025-11-18 12:55:25.975383,599618512043321791,-60.00
2025-11-18 12:55:25.975383,599618512043321791,-43.00
2025-11-18 12:55:25.975383,599618512043321791,-38.00
2025-11-18 12:55:25.975383,599618512043321791,-33.00
2025-11-18 12:55:25.975383,599618512043321791,-24.00
2025-11-18 12:55:25.975383,599618512043321791,-16.00
2025-11-18 12:55:25.975383,599618512043321791,-4.00
2025-11-18 12:55:25.975383,599618512043321791,9.00
2025-11-18 12:55:25.975383,599618512043321791,14.00
2025-11-18 12:55:25.975383,599618512043321791,21.00
2025-11-18 12:55:25.975383,599618512043321791,41.00
2025-11-18 12:55:25.975383,599618512043321791,60.00
2025-11-18 12:55:25.975383,599618512043321791,72.00
2025-11-18 12:55:25.975383,599618512043321791,89.00
2025-11-18 12:55:25.975383,599618512043321791,121.00
2025-11-18 12:55:25.975383,599618512043321791,145.00
2025-11-18 12:55:25.975383,599618512043321791,169.00
2025-11-18 12:55:25.975383,599618512043321791,198.00
2025-11-18 12:55:25.975383,599618512043321791,220.00
2025-11-18 12:55:25.975383,599618512043321791,235.00
2025-11-18 12:55:25.975383,599618512043321791,247.00
2025-11-18 12:55:25.975383,599618512043321791,257.00
2025-11-18 12:55:25.975383,599618512043321791,237.00
2025-11-18 12:55:25.975383,599618512043321791,196.00
2025-11-18 12:55:25.975383,599618512043321791,135.00
2025-11-18 12:55:25.975383,599618512043321791,63.00
2025-11-18 12:55:25.975383,599618512043321791,-12.00
2025-11-18 12:55:25.975383,599618512043321791,-67.00
2025-11-18 12:55:25.975383,599618512043321791,-99.00
2025-11-18 12:55:25.975383,599618512043321791,-123.00
2025-11-18 12:55:25.975383,599618512043321791,-145.00
2025-11-18 12:55:25.975383,599618512043321791,-152.00
2025-11-18 12:55:25.975383,599618512043321791,-147.00
2025-11-18 12:55:25.975383,599618512043321791,-145.00
2025-11-18 12:55:25.975383,599618512043321791,-143.00
2025-11-18 12:55:25.975383,599618512043321791,-135.00
2025-11-18 12:55:25.975383,599618512043321791,-133.00
2025-11-18 12:55:25.975383,599618512043321791,-128.00
2025-11-18 12:55:25.975383,599618512043321791,-118.00
2025-11-18 12:55:25.975383,599618512043321791,-116.00
2025-11-18 12:55:25.975383,599618512043321791,-116.00
2025-11-18 12:55:25.975383,599618512043321791,-109.00
2025-11-18 12:55:25.975383,599618512043321791,-101.00
2025-11-18 12:55:25.975383,599618512043321791,-99.00
2025-11-18 12:55:25.975383,599618512043321791,-97.00
2025-11-18 12:55:25.975383,599618512043321791,-92.00
2025-11-18 12:55:25.975383,599618512043321791,-89.00
2025-11-18 12:55:25.975383,599618512043321791,-87.00
2025-11-18 12:55:25.975383,599618512043321791,-82.00
2025-11-18 12:55:25.975383,599618512043321791,-72.00
2025-11-18 12:55:25.975383,599618512043321791,-75.00
2025-11-18 12:55:25.975383,599618512043321791,-87.00
2025-11-18 12:55:25.975383,599618512043321791,-87.00
2025-11-18 12:55:25.975383,599618512043321791,-80.00
2025-11-18 12:55:25.975383,599618512043321791,-80.00
2025-11-18 12:55:25.975383,599618512043321791,-70.00
2025-11-18 12:55:25.975383,599618512043321791,-65.00
2025-11-18 12:55:25.975383,599618512043321791,-75.00
2025-11-18 12:55:25.975383,599618512043321791,-92.00
2025-11-18 12:55:25.975383,599618512043321791,-113.00
2025-11-18 12:55:25.975383,599618512043321791,-109.00
2025-11-18 12:55:25.975383,599618512043321791,-75.00
2025-11-18 12:55:25.975383,599618512043321791,-70.00
2025-11-18 12:55:25.975383,599618512043321791,-92.00
2025-11-18 12:55:26.512375,599618512604018832,-89.00
2025-11-18 12:55:26.512375,599618512604018832,-92.00
2025-11-18 12:55:26.512375,599618512604018832,-121.00
2025-11-18 12:55:26.512375,599618512604018832,-138.00
2025-11-18 12:55:26.512375,599618512604018832,-101.00
2025-11-18 12:55:26.512375,599618512604018832,-75.00
2025-11-18 12:55:26.512375,599618512604018832,-109.00
2025-11-18 12:55:26.512375,599618512604018832,-126.00
2025-11-18 12:55:26.512375,599618512604018832,-104.00
2025-11-18 12:55:26.512375,599618512604018832,-109.00
2025-11-18 12:55:26.512375,599618512604018832,-133.00
2025-11-18 12:55:26.512375,599618512604018832,-128.00
2025-11-18 12:55:26.512375,599618512604018832,-109.00
2025-11-18 12:55:26.512375,599618512604018832,-113.00
2025-11-18 12:55:26.512375,599618512604018832,-118.00
2025-11-18 12:55:26.512375,599618512604018832,-104.00
2025-11-18 12:55:26.512375,599618512604018832,-99.00
2025-11-18 12:55:26.512375,599618512604018832,-104.00
2025-11-18 12:55:26.512375,599618512604018832,-104.00
2025-11-18 12:55:26.512375,599618512604018832,-106.00
2025-11-18 12:55:26.512375,599618512604018832,-111.00
2025-11-18 12:55:26.512375,599618512604018832,-101.00
2025-11-18 12:55:26.512375,599618512604018832,-87.00
2025-11-18 12:55:26.512375,599618512604018832,-87.00
2025-11-18 12:55:26.512375,599618512604018832,-80.00
2025-11-18 12:55:26.512375,599618512604018832,-60.00
2025-11-18 12:55:26.512375,599618512604018832,-60.00
2025-11-18 12:55:26.512375,599618512604018832,-70.00
2025-11-18 12:55:26.512375,599618512604018832,-60.00
2025-11-18 12:55:26.512375,599618512604018832,-48.00
2025-11-18 12:55:26.512375,599618512604018832,-53.00
2025-11-18 12:55:26.512375,599618512604018832,-70.00
2025-11-18 12:55:26.512375,599618512604018832,-72.00
2025-11-18 12:55:26.512375,599618512604018832,-63.00
2025-11-18 12:55:26.512375,599618512604018832,-60.00
2025-11-18 12:55:26.512375,599618512604018832,-63.00
2025-11-18 12:55:26.512375,599618512604018832,-55.00
2025-11-18 12:55:26.512375,599618512604018832,-55.00
2025-11-18 12:55:26.512375,599618512604018832,-92.00
2025-11-18 12:55:26.512375,599618512604018832,-162.00
2025-11-18 12:55:26.512375,599618512604018832,-150.00
2025-11-18 12:55:26.512375,599618512604018832,181.00
2025-11-18 12:55:26.512375,599618512604018832,865.00
2025-11-18 12:55:26.512375,599618512604018832,1481.00
2025-11-18 12:55:26.512375,599618512604018832,1348.00
2025-11-18 12:55:26.512375,599618512604018832,307.00
2025-11-18 12:55:26.512375,599618512604018832,-502.00
2025-11-18 12:55:26.512375,599618512604018832,-310.00
2025-11-18 12:55:26.512375,599618512604018832,-33.00
2025-11-18 12:55:26.512375,599618512604018832,-177.00
2025-11-18 12:55:26.512375,599618512604018832,-206.00
2025-11-18 12:55:26.512375,599618512604018832,-94.00
2025-11-18 12:55:26.512375,599618512604018832,-113.00
2025-11-18 12:55:26.512375,599618512604018832,-145.00
2025-11-18 12:55:26.512375,599618512604018832,-106.00
2025-11-18 12:55:26.512375,599618512604018832,-94.00
2025-11-18 12:55:26.512375,599618512604018832,-99.00
2025-11-18 12:55:26.512375,599618512604018832,-67.00
2025-11-18 12:55:26.512375,599618512604018832,-48.00
2025-11-18 12:55:26.512375,599618512604018832,-63.00
2025-11-18 12:55:26.512375,599618512604018832,-60.00
2025-11-18 12:55:26.512375,599618512604018832,-31.00
2025-11-18 12:55:26.512375,599618512604018832,-24.00
2025-11-18 12:55:26.512375,599618512604018832,-33.00
2025-11-18 12:55:26.512375,599618512604018832,-16.00
2025-11-18 12:55:26.512375,599618512604018832,-7.00
2025-11-18 12:55:26.512375,599618512604018832,-4.00
2025-11-18 12:55:26.512375,599618512604018832,14.00
2025-11-18 12:55:26.512375,599618512604018832,31.00
2025-11-18 12:55:26.512375,599618512604018832,43.00
2025-11-18 12:55:26.512375,599618512604018832,65.00
2025-11-18 12:55:26.512375,599618512604018832,101.00
2025-11-18 12:55:26.512375,599618512604018832,126.00
2025-11-18 12:55:27.083080,599618513164685355,138.00
2025-11-18 12:55:27.083080,599618513164685355,164.00
2025-11-18 12:55:27.083080,599618513164685355,198.00
2025-11-18 12:55:27.083080,599618513164685355,220.00
2025-11-18 12:55:27.083080,599618513164685355,230.00
2025-11-18 12:55:27.083080,599618513164685355,232.00
2025-11-18 12:55:27.083080,599618513164685355,227.00
2025-11-18 12:55:27.083080,599618513164685355,206.00
2025-11-18 12:55:27.083080,599618513164685355,155.00
2025-11-18 12:55:27.083080,599618513164685355,87.00
2025-11-18 12:55:27.083080,599618513164685355,16.00
2025-11-18 12:55:27.083080,599618513164685355,-41.00
2025-11-18 12:55:27.083080,599618513164685355,-92.00
2025-11-18 12:55:27.083080,599618513164685355,-135.00
2025-11-18 12:55:27.083080,599618513164685355,-152.00
2025-11-18 12:55:27.083080,599618513164685355,-140.00
2025-11-18 12:55:27.083080,599618513164685355,-143.00
2025-11-18 12:55:27.083080,599618513164685355,-157.00
2025-11-18 12:55:27.083080,599618513164685355,-147.00
2025-11-18 12:55:27.083080,599618513164685355,-133.00
2025-11-18 12:55:27.083080,599618513164685355,-143.00
2025-11-18 12:55:27.083080,599618513164685355,-140.00
2025-11-18 12:55:27.083080,599618513164685355,-118.00
2025-11-18 12:55:27.083080,599618513164685355,-113.00
2025-11-18 12:55:27.083080,599618513164685355,-126.00
2025-11-18 12:55:27.083080,599618513164685355,-121.00
2025-11-18 12:55:27.083080,599618513164685355,-101.00
2025-11-18 12:55:27.083080,599618513164685355,-94.00
2025-11-18 12:55:27.083080,599618513164685355,-99.00
2025-11-18 12:55:27.083080,599618513164685355,-104.00
2025-11-18 12:55:27.083080,599618513164685355,-99.00
2025-11-18 12:55:27.083080,599618513164685355,-87.00
2025-11-18 12:55:27.083080,599618513164685355,-87.00
2025-11-18 12:55:27.083080,599618513164685355,-87.00
2025-11-18 12:55:27.083080,599618513164685355,-84.00
2025-11-18 12:55:27.083080,599618513164685355,-97.00
2025-11-18 12:55:27.083080,599618513164685355,-99.00
2025-11-18 12:55:27.083080,599618513164685355,-82.00
2025-11-18 12:55:27.083080,599618513164685355,-70.00
2025-11-18 12:55:27.083080,599618513164685355,-84.00
2025-11-18 12:55:27.083080,599618513164685355,-87.00
2025-11-18 12:55:27.083080,599618513164685355,-80.00
2025-11-18 12:55:27.083080,599618513164685355,-82.00
2025-11-18 12:55:27.083080,599618513164685355,-84.00
2025-11-18 12:55:27.083080,599618513164685355,-72.00
2025-11-18 12:55:27.083080,599618513164685355,-67.00
2025-11-18 12:55:27.083080,599618513164685355,-67.00
2025-11-18 12:55:27.083080,599618513164685355,-58.00
2025-11-18 12:55:27.083080,599618513164685355,-53.00
2025-11-18 12:55:27.083080,599618513164685355,-65.00
2025-11-18 12:55:27.083080,599618513164685355,-65.00
2025-11-18 12:55:27.083080,599618513164685355,-58.00
2025-11-18 12:55:27.083080,599618513164685355,-63.00
2025-11-18 12:55:27.083080,599618513164685355,-55.00
2025-11-18 12:55:27.083080,599618513164685355,-43.00
2025-11-18 12:55:27.083080,599618513164685355,-46.00
2025-11-18 12:55:27.083080,599618513164685355,-41.00
2025-11-18 12:55:27.083080,599618513164685355,-43.00
2025-11-18 12:55:27.083080,599618513164685355,-53.00
2025-11-18 12:55:27.083080,599618513164685355,-41.00
2025-11-18 12:55:27.083080,599618513164685355,-36.00
2025-11-18 12:55:27.083080,599618513164685355,-48.00
2025-11-18 12:55:27.083080,599618513164685355,-53.00
2025-11-18 12:55:27.083080,599618513164685355,-43.00
2025-11-18 12:55:27.083080,599618513164685355,-31.00
2025-11-18 12:55:27.083080,599618513164685355,-26.00
2025-11-18 12:55:27.083080,599618513164685355,-36.00
2025-11-18 12:55:27.083080,599618513164685355,-46.00
2025-11-18 12:55:27.083080,599618513164685355,-29.00
2025-11-18 12:55:27.083080,599618513164685355,-31.00
2025-11-18 12:55:27.083080,599618513164685355,-65.00
2025-11-18 12:55:27.083080,599618513164685355,-84.00
2025-11-18 12:55:27.083080,599618513164685355,-50.00
2025-11-18 12:55:27.622715,599618513725382396,0.00
2025-11-18 12:55:27.622715,599618513725382396,-2.00
2025-11-18 12:55:27.622715,599618513725382396,-21.00
2025-11-18 12:55:27.622715,599618513725382396,-21.00
2025-11-18 12:55:27.622715,599618513725382396,-38.00
2025-11-18 12:55:27.622715,599618513725382396,-48.00
2025-11-18 12:55:27.622715,599618513725382396,-38.00
2025-11-18 12:55:27.622715,599618513725382396,-38.00
2025-11-18 12:55:27.622715,599618513725382396,-33.00
2025-11-18 12:55:27.622715,599618513725382396,-4.00
2025-11-18 12:55:27.622715,599618513725382396,-7.00
2025-11-18 12:55:27.622715,599618513725382396,-48.00
2025-11-18 12:55:27.622715,599618513725382396,-31.00
2025-11-18 12:55:27.622715,599618513725382396,12.00
2025-11-18 12:55:27.622715,599618513725382396,-14.00
2025-11-18 12:55:27.622715,599618513725382396,-58.00
2025-11-18 12:55:27.622715,599618513725382396,-58.00
2025-11-18 12:55:27.622715,599618513725382396,-48.00
2025-11-18 12:55:27.622715,599618513725382396,-55.00
2025-11-18 12:55:27.622715,599618513725382396,-65.00
2025-11-18 12:55:27.622715,599618513725382396,-50.00
2025-11-18 12:55:27.622715,599618513725382396,-24.00
2025-11-18 12:55:27.622715,599618513725382396,-72.00
2025-11-18 12:55:27.622715,599618513725382396,-169.00
2025-11-18 12:55:27.622715,599618513725382396,-123.00
2025-11-18 12:55:27.622715,599618513725382396,278.00
2025-11-18 12:55:27.622715,599618513725382396,994.00
2025-11-18 12:55:27.622715,599618513725382396,1554.00
2025-11-18 12:55:27.622715,599618513725382396,1273.00
2025-11-18 12:55:27.622715,599618513725382396,167.00
2025-11-18 12:55:27.622715,599618513725382396,-516.00
2025-11-18 12:55:27.622715,599618513725382396,-247.00
2025-11-18 12:55:27.622715,599618513725382396,-48.00
2025-11-18 12:55:27.622715,599618513725382396,-210.00
2025-11-18 12:55:27.622715,599618513725382396,-186.00
2025-11-18 12:55:27.622715,599618513725382396,-77.00
2025-11-18 12:55:27.622715,599618513725382396,-126.00
2025-11-18 12:55:27.622715,599618513725382396,-145.00
2025-11-18 12:55:27.622715,599618513725382396,-94.00
2025-11-18 12:55:27.622715,599618513725382396,-92.00
2025-11-18 12:55:27.622715,599618513725382396,-106.00
2025-11-18 12:55:27.622715,599618513725382396,-84.00
2025-11-18 12:55:27.622715,599618513725382396,-67.00
2025-11-18 12:55:27.622715,599618513725382396,-63.00
2025-11-18 12:55:27.622715,599618513725382396,-50.00
2025-11-18 12:55:27.622715,599618513725382396,-53.00
2025-11-18 12:55:27.622715,599618513725382396,-63.00
2025-11-18 12:55:27.622715,599618513725382396,-41.00
2025-11-18 12:55:27.622715,599618513725382396,-4.00
2025-11-18 12:55:27.622715,599618513725382396,-12.00
2025-11-18 12:55:27.622715,599618513725382396,-19.00
2025-11-18 12:55:27.622715,599618513725382396,24.00
2025-11-18 12:55:27.622715,599618513725382396,50.00
2025-11-18 12:55:27.622715,599618513725382396,48.00
2025-11-18 12:55:27.622715,599618513725382396,72.00
2025-11-18 12:55:27.622715,599618513725382396,97.00
2025-11-18 12:55:27.622715,599618513725382396,101.00
2025-11-18 12:55:27.622715,599618513725382396,121.00
2025-11-18 12:55:27.622715,599618513725382396,140.00
2025-11-18 12:55:27.622715,599618513725382396,167.00
2025-11-18 12:55:27.622715,599618513725382396,210.00
2025-11-18 12:55:27.622715,599618513725382396,227.00
2025-11-18 12:55:27.622715,599618513725382396,210.00
2025-11-18 12:55:27.622715,599618513725382396,201.00
2025-11-18 12:55:27.622715,599618513725382396,186.00
2025-11-18 12:55:27.622715,599618513725382396,135.00
2025-11-18 12:55:27.622715,599618513725382396,65.00
2025-11-18 12:55:27.622715,599618513725382396,2.00
2025-11-18 12:55:27.622715,599618513725382396,-55.00
2025-11-18 12:55:27.622715,599618513725382396,-104.00
2025-11-18 12:55:27.622715,599618513725382396,-138.00
2025-11-18 12:55:27.622715,599618513725382396,-164.00
2025-11-18 12:55:27.622715,599618513725382396,-179.00
2025-11-18 12:55:28.163649,599618514286079437,-174.00
2025-11-18 12:55:28.163649,599618514286079437,-179.00
2025-11-18 12:55:28.163649,599618514286079437,-179.00
2025-11-18 12:55:28.163649,599618514286079437,-162.00
2025-11-18 12:55:28.163649,599618514286079437,-145.00
2025-11-18 12:55:28.163649,599618514286079437,-157.00
2025-11-18 12:55:28.163649,599618514286079437,-179.00
2025-11-18 12:55:28.163649,599618514286079437,-160.00
2025-11-18 12:55:28.163649,599618514286079437,-118.00
2025-11-18 12:55:28.163649,599618514286079437,-116.00
2025-11-18 12:55:28.163649,599618514286079437,-126.00
2025-11-18 12:55:28.163649,599618514286079437,-130.00
2025-11-18 12:55:28.163649,599618514286079437,-133.00
2025-11-18 12:55:28.163649,599618514286079437,-116.00
2025-11-18 12:55:28.163649,599618514286079437,-106.00
2025-11-18 12:55:28.163649,599618514286079437,-111.00
2025-11-18 12:55:28.163649,599618514286079437,-101.00
2025-11-18 12:55:28.163649,599618514286079437,-109.00
2025-11-18 12:55:28.163649,599618514286079437,-135.00
2025-11-18 12:55:28.163649,599618514286079437,-123.00
2025-11-18 12:55:28.163649,599618514286079437,-82.00
2025-11-18 12:55:28.163649,599618514286079437,-89.00
2025-11-18 12:55:28.163649,599618514286079437,-116.00
2025-11-18 12:55:28.163649,599618514286079437,-101.00
2025-11-18 12:55:28.163649,599618514286079437,-94.00
2025-11-18 12:55:28.163649,599618514286079437,-109.00
2025-11-18 12:55:28.163649,599618514286079437,-97.00
2025-11-18 12:55:28.163649,599618514286079437,-82.00
2025-11-18 12:55:28.163649,599618514286079437,-101.00
2025-11-18 12:55:28.163649,599618514286079437,-104.00
2025-11-18 12:55:28.163649,599618514286079437,-75.00
2025-11-18 12:55:28.163649,599618514286079437,-80.00
2025-11-18 12:55:28.163649,599618514286079437,-99.00
2025-11-18 12:55:28.163649,599618514286079437,-84.00
2025-11-18 12:55:28.163649,599618514286079437,-60.00
2025-11-18 12:55:28.163649,599618514286079437,-70.00
2025-11-18 12:55:28.163649,599618514286079437,-89.00
2025-11-18 12:55:28.163649,599618514286079437,-82.00
2025-11-18 12:55:28.163649,599618514286079437,-77.00
2025-11-18 12:55:28.163649,599618514286079437,-84.00
2025-11-18 12:55:28.163649,599618514286079437,-65.00
2025-11-18 12:55:28.163649,599618514286079437,-55.00
2025-11-18 12:55:28.163649,599618514286079437,-72.00
2025-11-18 12:55:28.163649,599618514286079437,-72.00
2025-11-18 12:55:28.163649,599618514286079437,-70.00
2025-11-18 12:55:28.163649,599618514286079437,-80.00
2025-11-18 12:55:28.163649,599618514286079437,-70.00
2025-11-18 12:55:28.163649,599618514286079437,-53.00
2025-11-18 12:55:28.163649,599618514286079437,-58.00
2025-11-18 12:55:28.163649,599618514286079437,-75.00
2025-11-18 12:55:28.163649,599618514286079437,-63.00
2025-11-18 12:55:28.163649,599618514286079437,-46.00
2025-11-18 12:55:28.163649,599618514286079437,-58.00
2025-11-18 12:55:28.163649,599618514286079437,-55.00
2025-11-18 12:55:28.163649,599618514286079437,-31.00
2025-11-18 12:55:28.163649,599618514286079437,-41.00
2025-11-18 12:55:28.163649,599618514286079437,-65.00
2025-11-18 12:55:28.163649,599618514286079437,-58.00
2025-11-18 12:55:28.163649,599618514286079437,-36.00
2025-11-18 12:55:28.163649,599618514286079437,-38.00
2025-11-18 12:55:28.163649,599618514286079437,-53.00
2025-11-18 12:55:28.163649,599618514286079437,-38.00
2025-11-18 12:55:28.163649,599618514286079437,-16.00
2025-11-18 12:55:28.163649,599618514286079437,-24.00
2025-11-18 12:55:28.163649,599618514286079437,-43.00
2025-11-18 12:55:28.163649,599618514286079437,-43.00
2025-11-18 12:55:28.163649,599618514286079437,-33.00
2025-11-18 12:55:28.163649,599618514286079437,-36.00
2025-11-18 12:55:28.163649,599618514286079437,-33.00
2025-11-18 12:55:28.163649,599618514286079437,-29.00
2025-11-18 12:55:28.163649,599618514286079437,-33.00
2025-11-18 12:55:28.163649,599618514286079437,-33.00
2025-11-18 12:55:28.163649,599618514286079437,-14.00
2025-11-18 12:55:28.732385,599618514846745960,-7.00
2025-11-18 12:55:28.732385,599618514846745960,-14.00
2025-11-18 12:55:28.732385,599618514846745960,-2.00
2025-11-18 12:55:28.732385,599618514846745960,2.00
2025-11-18 12:55:28.732385,599618514846745960,-31.00
2025-11-18 12:55:28.732385,599618514846745960,-53.00
2025-11-18 12:55:28.732385,599618514846745960,-46.00
2025-11-18 12:55:28.732385,599618514846745960,-38.00
2025-11-18 12:55:28.732385,599618514846745960,-38.00
2025-11-18 12:55:28.732385,599618514846745960,-31.00
2025-11-18 12:55:28.732385,599618514846745960,-31.00
2025-11-18 12:55:28.732385,599618514846745960,-48.00
2025-11-18 12:55:28.732385,599618514846745960,-87.00
2025-11-18 12:55:28.732385,599618514846745960,-135.00
2025-11-18 12:55:28.732385,599618514846745960,-48.00
2025-11-18 12:55:28.732385,599618514846745960,429.00
2025-11-18 12:55:28.732385,599618514846745960,1178.00
2025-11-18 12:55:28.732385,599618514846745960,1556.00
2025-11-18 12:55:28.732385,599618514846745960,967.00
2025-11-18 12:55:28.732385,599618514846745960,-123.00
2025-11-18 12:55:28.732385,599618514846745960,-472.00
2025-11-18 12:55:28.732385,599618514846745960,-138.00
2025-11-18 12:55:28.732385,599618514846745960,-84.00
2025-11-18 12:55:28.732385,599618514846745960,-213.00
2025-11-18 12:55:28.732385,599618514846745960,-147.00
2025-11-18 12:55:28.732385,599618514846745960,-111.00
2025-11-18 12:55:28.732385,599618514846745960,-164.00
2025-11-18 12:55:28.732385,599618514846745960,-133.00
2025-11-18 12:55:28.732385,599618514846745960,-82.00
2025-11-18 12:55:28.732385,599618514846745960,-97.00
2025-11-18 12:55:28.732385,599618514846745960,-109.00
2025-11-18 12:55:28.732385,599618514846745960,-92.00
2025-11-18 12:55:28.732385,599618514846745960,-82.00
2025-11-18 12:55:28.732385,599618514846745960,-63.00
2025-11-18 12:55:28.732385,599618514846745960,-50.00
2025-11-18 12:55:28.732385,599618514846745960,-58.00
2025-11-18 12:55:28.732385,599618514846745960,-53.00
2025-11-18 12:55:28.732385,599618514846745960,-31.00
2025-11-18 12:55:28.732385,599618514846745960,-16.00
2025-11-18 12:55:28.732385,599618514846745960,-12.00
2025-11-18 12:55:28.732385,599618514846745960,2.00
2025-11-18 12:55:28.732385,599618514846745960,21.00
2025-11-18 12:55:28.732385,599618514846745960,36.00
2025-11-18 12:55:28.732385,599618514846745960,46.00
2025-11-18 12:55:28.732385,599618514846745960,63.00
2025-11-18 12:55:28.732385,599618514846745960,82.00
2025-11-18 12:55:28.732385,599618514846745960,116.00
2025-11-18 12:55:28.732385,599618514846745960,140.00
2025-11-18 12:55:28.732385,599618514846745960,157.00
2025-11-18 12:55:28.732385,599618514846745960,191.00
2025-11-18 12:55:28.732385,599618514846745960,208.00
2025-11-18 12:55:28.732385,599618514846745960,208.00
2025-11-18 12:55:28.732385,599618514846745960,218.00
2025-11-18 12:55:28.732385,599618514846745960,218.00
2025-11-18 12:55:28.732385,599618514846745960,189.00
2025-11-18 12:55:28.732385,599618514846745960,147.00
2025-11-18 12:55:28.732385,599618514846745960,84.00
2025-11-18 12:55:28.732385,599618514846745960,2.00
2025-11-18 12:55:28.732385,599618514846745960,-65.00
2025-11-18 12:55:28.732385,599618514846745960,-106.00
2025-11-18 12:55:28.732385,599618514846745960,-140.00
2025-11-18 12:55:28.732385,599618514846745960,-167.00
2025-11-18 12:55:28.732385,599618514846745960,-174.00
2025-11-18 12:55:28.732385,599618514846745960,-155.00
2025-11-18 12:55:28.732385,599618514846745960,-155.00
2025-11-18 12:55:28.732385,599618514846745960,-174.00
2025-11-18 12:55:28.732385,599618514846745960,-172.00
2025-11-18 12:55:28.732385,599618514846745960,-160.00
2025-11-18 12:55:28.732385,599618514846745960,-145.00
2025-11-18 12:55:28.732385,599618514846745960,-130.00
2025-11-18 12:55:28.732385,599618514846745960,-138.00
2025-11-18 12:55:28.732385,599618514846745960,-145.00
2025-11-18 12:55:28.732385,599618514846745960,-135.00
2025-11-18 12:55:29.333004,599618515407443003,-121.00
2025-11-18 12:55:29.333004,599618515407443003,-116.00
2025-11-18 12:55:29.333004,599618515407443003,-111.00
2025-11-18 12:55:29.333004,599618515407443003,-111.00
2025-11-18 12:55:29.333004,599618515407443003,-126.00
2025-11-18 12:55:29.333004,599618515407443003,-121.00
2025-11-18 12:55:29.333004,599618515407443003,-82.00
2025-11-18 12:55:29.333004,599618515407443003,-77.00
2025-11-18 12:55:29.333004,599618515407443003,-101.00
2025-11-18 12:55:29.333004,599618515407443003,-99.00
2025-11-18 12:55:29.333004,599618515407443003,-92.00
2025-11-18 12:55:29.333004,599618515407443003,-99.00
2025-11-18 12:55:29.333004,599618515407443003,-101.00
2025-11-18 12:55:29.333004,599618515407443003,-99.00
2025-11-18 12:55:29.333004,599618515407443003,-92.00
2025-11-18 12:55:29.333004,599618515407443003,-75.00
2025-11-18 12:55:29.333004,599618515407443003,-77.00
2025-11-18 12:55:29.333004,599618515407443003,-87.00
2025-11-18 12:55:29.333004,599618515407443003,-84.00
2025-11-18 12:55:29.333004,599618515407443003,-82.00
2025-11-18 12:55:29.333004,599618515407443003,-77.00
2025-11-18 12:55:29.333004,599618515407443003,-75.00
2025-11-18 12:55:29.333004,599618515407443003,-87.00
2025-11-18 12:55:29.333004,599618515407443003,-80.00
2025-11-18 12:55:29.333004,599618515407443003,-63.00
2025-11-18 12:55:29.333004,599618515407443003,-72.00
2025-11-18 12:55:29.333004,599618515407443003,-80.00
2025-11-18 12:55:29.333004,599618515407443003,-72.00
2025-11-18 12:55:29.333004,599618515407443003,-65.00
2025-11-18 12:55:29.333004,599618515407443003,-60.00
2025-11-18 12:55:29.333004,599618515407443003,-60.00
2025-11-18 12:55:29.333004,599618515407443003,-63.00
2025-11-18 12:55:29.333004,599618515407443003,-70.00
2025-11-18 12:55:29.333004,599618515407443003,-70.00
2025-11-18 12:55:29.333004,599618515407443003,-60.00
2025-11-18 12:55:29.333004,599618515407443003,-58.00
2025-11-18 12:55:29.333004,599618515407443003,-65.00
2025-11-18 12:55:29.333004,599618515407443003,-72.00
2025-11-18 12:55:29.333004,599618515407443003,-67.00
2025-11-18 12:55:29.333004,599618515407443003,-46.00
2025-11-18 12:55:29.333004,599618515407443003,-38.00
2025-11-18 12:55:29.333004,599618515407443003,-50.00
2025-11-18 12:55:29.333004,599618515407443003,-55.00
2025-11-18 12:55:29.333004,599618515407443003,-53.00
2025-11-18 12:55:29.333004,599618515407443003,-58.00
2025-11-18 12:55:29.333004,599618515407443003,-63.00
2025-11-18 12:55:29.333004,599618515407443003,-53.00
2025-11-18 12:55:29.333004,599618515407443003,-38.00
2025-11-18 12:55:29.333004,599618515407443003,-53.00
2025-11-18 12:55:29.333004,599618515407443003,-58.00
2025-11-18 12:55:29.333004,599618515407443003,-33.00
2025-11-18 12:55:29.333004,599618515407443003,-41.00
2025-11-18 12:55:29.333004,599618515407443003,-53.00
2025-11-18 12:55:29.333004,599618515407443003,-41.00
2025-11-18 12:55:29.333004,599618515407443003,-36.00
2025-11-18 12:55:29.333004,599618515407443003,-41.00
2025-11-18 12:55:29.333004,599618515407443003,-46.00
2025-11-18 12:55:29.333004,599618515407443003,-53.00
2025-11-18 12:55:29.333004,599618515407443003,-53.00
2025-11-18 12:55:29.333004,599618515407443003,-38.00
2025-11-18 12:55:29.333004,599618515407443003,-31.00
2025-11-18 12:55:29.333004,599618515407443003,-43.00
2025-11-18 12:55:29.333004,599618515407443003,-43.00
2025-11-18 12:55:29.333004,599618515407443003,-36.00
2025-11-18 12:55:29.333004,599618515407443003,-36.00
2025-11-18 12:55:29.333004,599618515407443003,-38.00
2025-11-18 12:55:29.333004,599618515407443003,-33.00
2025-11-18 12:55:29.333004,599618515407443003,-16.00
2025-11-18 12:55:29.333004,599618515407443003,-14.00
2025-11-18 12:55:29.333004,599618515407443003,-33.00
2025-11-18 12:55:29.333004,599618515407443003,-36.00
2025-11-18 12:55:29.333004,599618515407443003,-38.00
2025-11-18 12:55:29.333004,599618515407443003,-43.00
2025-11-18 12:55:29.872416,599618515968109526,-46.00
2025-11-18 12:55:29.872416,599618515968109526,-53.00
2025-11-18 12:55:29.872416,599618515968109526,-41.00
2025-11-18 12:55:29.872416,599618515968109526,-46.00
2025-11-18 12:55:29.872416,599618515968109526,-55.00
2025-11-18 12:55:29.872416,599618515968109526,-48.00
2025-11-18 12:55:29.872416,599618515968109526,-99.00
2025-11-18 12:55:29.872416,599618515968109526,-174.00
2025-11-18 12:55:29.872416,599618515968109526,2.00
2025-11-18 12:55:29.872416,599618515968109526,589.00
2025-11-18 12:55:29.872416,599618515968109526,1297.00
2025-11-18 12:55:29.872416,599618515968109526,1481.00
2025-11-18 12:55:29.872416,599618515968109526,703.00
2025-11-18 12:55:29.872416,599618515968109526,-322.00
2025-11-18 12:55:29.872416,599618515968109526,-441.00
2025-11-18 12:55:29.872416,599618515968109526,-82.00
2025-11-18 12:55:29.872416,599618515968109526,-113.00
2025-11-18 12:55:29.872416,599618515968109526,-218.00
2025-11-18 12:55:29.872416,599618515968109526,-126.00
2025-11-18 12:55:29.872416,599618515968109526,-109.00
2025-11-18 12:55:29.872416,599618515968109526,-143.00
2025-11-18 12:55:29.872416,599618515968109526,-113.00
2025-11-18 12:55:29.872416,599618515968109526,-101.00
2025-11-18 12:55:29.872416,599618515968109526,-121.00
2025-11-18 12:55:29.872416,599618515968109526,-92.00
2025-11-18 12:55:29.872416,599618515968109526,-60.00
2025-11-18 12:55:29.872416,599618515968109526,-77.00
2025-11-18 12:55:29.872416,599618515968109526,-80.00
2025-11-18 12:55:29.872416,599618515968109526,-55.00
2025-11-18 12:55:29.872416,599618515968109526,-48.00
2025-11-18 12:55:29.872416,599618515968109526,-46.00
2025-11-18 12:55:29.872416,599618515968109526,-33.00
2025-11-18 12:55:29.872416,599618515968109526,-29.00
2025-11-18 12:55:29.872416,599618515968109526,-7.00
2025-11-18 12:55:29.872416,599618515968109526,19.00
2025-11-18 12:55:29.872416,599618515968109526,19.00
2025-11-18 12:55:29.872416,599618515968109526,26.00
2025-11-18 12:55:29.872416,599618515968109526,46.00
2025-11-18 12:55:29.872416,599618515968109526,67.00
2025-11-18 12:55:29.872416,599618515968109526,89.00
2025-11-18 12:55:29.872416,599618515968109526,113.00
2025-11-18 12:55:29.872416,599618515968109526,128.00
2025-11-18 12:55:29.872416,599618515968109526,147.00
2025-11-18 12:55:29.872416,599618515968109526,179.00
2025-11-18 12:55:29.872416,599618515968109526,203.00
2025-11-18 12:55:29.872416,599618515968109526,215.00
2025-11-18 12:55:29.872416,599618515968109526,220.00
2025-11-18 12:55:29.872416,599618515968109526,206.00
2025-11-18 12:55:29.872416,599618515968109526,172.00
2025-11-18 12:55:29.872416,599618515968109526,121.00
2025-11-18 12:55:29.872416,599618515968109526,58.00
2025-11-18 12:55:29.872416,599618515968109526,0.00
2025-11-18 12:55:29.872416,599618515968109526,-53.00
2025-11-18 12:55:29.872416,599618515968109526,-109.00
2025-11-18 12:55:29.872416,599618515968109526,-147.00
2025-11-18 12:55:29.872416,599618515968109526,-169.00
2025-11-18 12:55:29.872416,599618515968109526,-181.00
2025-11-18 12:55:29.872416,599618515968109526,-186.00
2025-11-18 12:55:29.872416,599618515968109526,-186.00
2025-11-18 12:55:29.872416,599618515968109526,-172.00
2025-11-18 12:55:29.872416,599618515968109526,-157.00
2025-11-18 12:55:29.872416,599618515968109526,-157.00
2025-11-18 12:55:29.872416,599618515968109526,-152.00
2025-11-18 12:55:29.872416,599618515968109526,-143.00
2025-11-18 12:55:29.872416,599618515968109526,-143.00
2025-11-18 12:55:29.872416,599618515968109526,-145.00
2025-11-18 12:55:29.872416,599618515968109526,-140.00
2025-11-18 12:55:29.872416,599618515968109526,-130.00
2025-11-18 12:55:29.872416,599618515968109526,-121.00
2025-11-18 12:55:29.872416,599618515968109526,-123.00
2025-11-18 12:55:29.872416,599618515968109526,-130.00
2025-11-18 12:55:29.872416,599618515968109526,-121.00
2025-11-18 12:55:29.872416,599618515968109526,-113.00
2025-11-18 12:55:30.442166,599618516528791307,-109.00
2025-11-18 12:55:30.442166,599618516528791307,-97.00
2025-11-18 12:55:30.442166,599618516528791307,-99.00
2025-11-18 12:55:30.442166,599618516528791307,-111.00
2025-11-18 12:55:30.442166,599618516528791307,-109.00
2025-11-18 12:55:30.442166,599618516528791307,-101.00
2025-11-18 12:55:30.442166,599618516528791307,-104.00
2025-11-18 12:55:30.442166,599618516528791307,-106.00
2025-11-18 12:55:30.442166,599618516528791307,-92.00
2025-11-18 12:55:30.442166,599618516528791307,-84.00
2025-11-18 12:55:30.442166,599618516528791307,-99.00
2025-11-18 12:55:30.442166,599618516528791307,-101.00
2025-11-18 12:55:30.442166,599618516528791307,-89.00
2025-11-18 12:55:30.442166,599618516528791307,-87.00
2025-11-18 12:55:30.442166,599618516528791307,-97.00
2025-11-18 12:55:30.442166,599618516528791307,-97.00
2025-11-18 12:55:30.442166,599618516528791307,-75.00
2025-11-18 12:55:30.442166,599618516528791307,-67.00
2025-11-18 12:55:30.442166,599618516528791307,-80.00
2025-11-18 12:55:30.442166,599618516528791307,-75.00
2025-11-18 12:55:30.442166,599618516528791307,-70.00
2025-11-18 12:55:30.442166,599618516528791307,-84.00
2025-11-18 12:55:30.442166,599618516528791307,-84.00
2025-11-18 12:55:30.442166,599618516528791307,-70.00
2025-11-18 12:55:30.442166,599618516528791307,-65.00
2025-11-18 12:55:30.442166,599618516528791307,-67.00
2025-11-18 12:55:30.442166,599618516528791307,-65.00
2025-11-18 12:55:30.442166,599618516528791307,-63.00
2025-11-18 12:55:30.442166,599618516528791307,-60.00
2025-11-18 12:55:30.442166,599618516528791307,-58.00
2025-11-18 12:55:30.442166,599618516528791307,-55.00
2025-11-18 12:55:30.442166,599618516528791307,-58.00
2025-11-18 12:55:30.442166,599618516528791307,-63.00
2025-11-18 12:55:30.442166,599618516528791307,-63.00
2025-11-18 12:55:30.442166,599618516528791307,-58.00
2025-11-18 12:55:30.442166,599618516528791307,-60.00
2025-11-18 12:55:30.442166,599618516528791307,-60.00
2025-11-18 12:55:30.442166,599618516528791307,-50.00
2025-11-18 12:55:30.442166,599618516528791307,-48.00
2025-11-18 12:55:30.442166,599618516528791307,-53.00
2025-11-18 12:55:30.442166,599618516528791307,-58.00
2025-11-18 12:55:30.442166,599618516528791307,-55.00
2025-11-18 12:55:30.442166,599618516528791307,-46.00
2025-11-18 12:55:30.442166,599618516528791307,-55.00
2025-11-18 12:55:30.442166,599618516528791307,-67.00
2025-11-18 12:55:30.442166,599618516528791307,-46.00
2025-11-18 12:55:30.442166,599618516528791307,-26.00
2025-11-18 12:55:30.442166,599618516528791307,-41.00
2025-11-18 12:55:30.442166,599618516528791307,-55.00
2025-11-18 12:55:30.442166,599618516528791307,-53.00
2025-11-18 12:55:30.442166,599618516528791307,-48.00
2025-11-18 12:55:30.442166,599618516528791307,-46.00
2025-11-18 12:55:30.442166,599618516528791307,-50.00
2025-11-18 12:55:30.442166,599618516528791307,-58.00
2025-11-18 12:55:30.442166,599618516528791307,-46.00
2025-11-18 12:55:30.442166,599618516528791307,-36.00
2025-11-18 12:55:30.442166,599618516528791307,-53.00
2025-11-18 12:55:30.442166,599618516528791307,-53.00
2025-11-18 12:55:30.442166,599618516528791307,-33.00
2025-11-18 12:55:30.442166,599618516528791307,-38.00
2025-11-18 12:55:30.442166,599618516528791307,-55.00
2025-11-18 12:55:30.442166,599618516528791307,-43.00
2025-11-18 12:55:30.442166,599618516528791307,-38.00
2025-11-18 12:55:30.442166,599618516528791307,-43.00
2025-11-18 12:55:30.442166,599618516528791307,-31.00
2025-11-18 12:55:30.442166,599618516528791307,-12.00
2025-11-18 12:55:30.442166,599618516528791307,-4.00
2025-11-18 12:55:30.442166,599618516528791307,-14.00
2025-11-18 12:55:30.442166,599618516528791307,-33.00
2025-11-18 12:55:30.442166,599618516528791307,-46.00
2025-11-18 12:55:30.442166,599618516528791307,-46.00
2025-11-18 12:55:30.442166,599618516528791307,-46.00
2025-11-18 12:55:30.442166,599618516528791307,-41.00
2025-11-18 12:55:30.982696,599618517089473090,-41.00
2025-11-18 12:55:30.982696,599618517089473090,-43.00
2025-11-18 12:55:30.982696,599618517089473090,-43.00
2025-11-18 12:55:30.982696,599618517089473090,-46.00
2025-11-18 12:55:30.982696,599618517089473090,-87.00
2025-11-18 12:55:30.982696,599618517089473090,-160.00
2025-11-18 12:55:30.982696,599618517089473090,-75.00
2025-11-18 12:55:30.982696,599618517089473090,392.00
2025-11-18 12:55:30.982696,599618517089473090,1105.00
2025-11-18 12:55:30.982696,599618517089473090,1513.00
2025-11-18 12:55:30.982696,599618517089473090,999.00
2025-11-18 12:55:30.982696,599618517089473090,-97.00
2025-11-18 12:55:30.982696,599618517089473090,-504.00
2025-11-18 12:55:30.982696,599618517089473090,-160.00
2025-11-18 12:55:30.982696,599618517089473090,-70.00
2025-11-18 12:55:30.982696,599618517089473090,-208.00
2025-11-18 12:55:30.982696,599618517089473090,-155.00
2025-11-18 12:55:30.982696,599618517089473090,-104.00
2025-11-18 12:55:30.982696,599618517089473090,-135.00
2025-11-18 12:55:30.982696,599618517089473090,-118.00
2025-11-18 12:55:30.982696,599618517089473090,-92.00
2025-11-18 12:55:30.982696,599618517089473090,-109.00
2025-11-18 12:55:30.982696,599618517089473090,-109.00
2025-11-18 12:55:30.982696,599618517089473090,-84.00
2025-11-18 12:55:30.982696,599618517089473090,-70.00
2025-11-18 12:55:30.982696,599618517089473090,-70.00
2025-11-18 12:55:30.982696,599618517089473090,-55.00
2025-11-18 12:55:30.982696,599618517089473090,-33.00
2025-11-18 12:55:30.982696,599618517089473090,-36.00
2025-11-18 12:55:30.982696,599618517089473090,-41.00
2025-11-18 12:55:30.982696,599618517089473090,-24.00
2025-11-18 12:55:30.982696,599618517089473090,-7.00
2025-11-18 12:55:30.982696,599618517089473090,2.00
2025-11-18 12:55:30.982696,599618517089473090,4.00
2025-11-18 12:55:30.982696,599618517089473090,16.00
2025-11-18 12:55:30.982696,599618517089473090,50.00
2025-11-18 12:55:30.982696,599618517089473090,70.00
2025-11-18 12:55:30.982696,599618517089473090,82.00
2025-11-18 12:55:30.982696,599618517089473090,109.00
2025-11-18 12:55:30.982696,599618517089473090,133.00
2025-11-18 12:55:30.982696,599618517089473090,147.00
2025-11-18 12:55:30.982696,599618517089473090,162.00
2025-11-18 12:55:30.982696,599618517089473090,184.00
2025-11-18 12:55:30.982696,599618517089473090,215.00
2025-11-18 12:55:30.982696,599618517089473090,213.00
2025-11-18 12:55:30.982696,599618517089473090,201.00
2025-11-18 12:55:30.982696,599618517089473090,194.00
2025-11-18 12:55:30.982696,599618517089473090,160.00
2025-11-18 12:55:30.982696,599618517089473090,92.00
2025-11-18 12:55:30.982696,599618517089473090,31.00
2025-11-18 12:55:30.982696,599618517089473090,-31.00
2025-11-18 12:55:30.982696,599618517089473090,-94.00
2025-11-18 12:55:30.982696,599618517089473090,-130.00
2025-11-18 12:55:30.982696,599618517089473090,-157.00
2025-11-18 12:55:30.982696,599618517089473090,-181.00
2025-11-18 12:55:30.982696,599618517089473090,-174.00
2025-11-18 12:55:30.982696,599618517089473090,-169.00
2025-11-18 12:55:30.982696,599618517089473090,-177.00
2025-11-18 12:55:30.982696,599618517089473090,-169.00
2025-11-18 12:55:30.982696,599618517089473090,-152.00
2025-11-18 12:55:30.982696,599618517089473090,-152.00
2025-11-18 12:55:30.982696,599618517089473090,-157.00
2025-11-18 12:55:30.982696,599618517089473090,-145.00
2025-11-18 12:55:30.982696,599618517089473090,-135.00
2025-11-18 12:55:30.982696,599618517089473090,-140.00
2025-11-18 12:55:30.982696,599618517089473090,-140.00
2025-11-18 12:55:30.982696,599618517089473090,-123.00
2025-11-18 12:55:30.982696,599618517089473090,-121.00
2025-11-18 12:55:30.982696,599618517089473090,-123.00
2025-11-18 12:55:30.982696,599618517089473090,-116.00
2025-11-18 12:55:30.982696,599618517089473090,-118.00
2025-11-18 12:55:30.982696,599618517089473090,-126.00
2025-11-18 12:55:30.982696,599618517089473090,-109.00
2025-11-18 12:55:31.553855,599618517650139613,-97.00
2025-11-18 12:55:31.553855,599618517650139613,-113.00
2025-11-18 12:55:31.553855,599618517650139613,-113.00
2025-11-18 12:55:31.553855,599618517650139613,-92.00
2025-11-18 12:55:31.553855,599618517650139613,-94.00
2025-11-18 12:55:31.553855,599618517650139613,-111.00
2025-11-18 12:55:31.553855,599618517650139613,-104.00
2025-11-18 12:55:31.553855,599618517650139613,-97.00
2025-11-18 12:55:31.553855,599618517650139613,-101.00
2025-11-18 12:55:31.553855,599618517650139613,-101.00
2025-11-18 12:55:31.553855,599618517650139613,-92.00
2025-11-18 12:55:31.553855,599618517650139613,-84.00
2025-11-18 12:55:31.553855,599618517650139613,-82.00
2025-11-18 12:55:31.553855,599618517650139613,-80.00
2025-11-18 12:55:31.553855,599618517650139613,-84.00
2025-11-18 12:55:31.553855,599618517650139613,-97.00
2025-11-18 12:55:31.553855,599618517650139613,-94.00
2025-11-18 12:55:31.553855,599618517650139613,-82.00
2025-11-18 12:55:31.553855,599618517650139613,-89.00
2025-11-18 12:55:31.553855,599618517650139613,-80.00
2025-11-18 12:55:31.553855,599618517650139613,-53.00
2025-11-18 12:55:31.553855,599618517650139613,-63.00
2025-11-18 12:55:31.553855,599618517650139613,-82.00
2025-11-18 12:55:31.553855,599618517650139613,-77.00
