Timestamp,Device Timestamp (ns),ECG Value (uV)
2025-06-06 15:20:28.336394,599617573896391028,177.00
2025-06-06 15:20:28.336394,599617573896391028,116.00
2025-06-06 15:20:28.336394,599617573896391028,184.00
2025-06-06 15:20:28.336394,599617573896391028,197.00
2025-06-06 15:20:28.336394,599617573896391028,87.00
2025-06-06 15:20:28.336394,599617573896391028,92.00
2025-06-06 15:20:28.336394,599617573896391028,206.00
2025-06-06 15:20:28.336394,599617573896391028,209.00
2025-06-06 15:20:28.336394,599617573896391028,111.00
2025-06-06 15:20:28.336394,599617573896391028,92.00
2025-06-06 15:20:28.336394,599617573896391028,153.00
2025-06-06 15:20:28.336394,599617573896391028,160.00
2025-06-06 15:20:28.336394,599617573896391028,80.00
2025-06-06 15:20:28.336394,599617573896391028,51.00
2025-06-06 15:20:28.336394,599617573896391028,133.00
2025-06-06 15:20:28.336394,599617573896391028,167.00
2025-06-06 15:20:28.336394,599617573896391028,104.00
2025-06-06 15:20:28.336394,599617573896391028,70.00
2025-06-06 15:20:28.336394,599617573896391028,77.00
2025-06-06 15:20:28.336394,599617573896391028,75.00
2025-06-06 15:20:28.336394,599617573896391028,72.00
2025-06-06 15:20:28.336394,599617573896391028,51.00
2025-06-06 15:20:28.336394,599617573896391028,29.00
2025-06-06 15:20:28.336394,599617573896391028,70.00
2025-06-06 15:20:28.336394,599617573896391028,97.00
2025-06-06 15:20:28.336394,599617573896391028,104.00
2025-06-06 15:20:28.336394,599617573896391028,133.00
2025-06-06 15:20:28.336394,599617573896391028,102.00
2025-06-06 15:20:28.336394,599617573896391028,55.00
2025-06-06 15:20:28.336394,599617573896391028,82.00
2025-06-06 15:20:28.336394,599617573896391028,114.00
2025-06-06 15:20:28.336394,599617573896391028,116.00
2025-06-06 15:20:28.336394,599617573896391028,99.00
2025-06-06 15:20:28.336394,599617573896391028,51.00
2025-06-06 15:20:28.336394,599617573896391028,38.00
2025-06-06 15:20:28.336394,599617573896391028,77.00
2025-06-06 15:20:28.336394,599617573896391028,82.00
2025-06-06 15:20:28.336394,599617573896391028,2.00
2025-06-06 15:20:28.336394,599617573896391028,-318.00
2025-06-06 15:20:28.336394,599617573896391028,-917.00
2025-06-06 15:20:28.336394,599617573896391028,-1396.00
2025-06-06 15:20:28.336394,599617573896391028,-1396.00
2025-06-06 15:20:28.336394,599617573896391028,-829.00
2025-06-06 15:20:28.336394,599617573896391028,85.00
2025-06-06 15:20:28.336394,599617573896391028,503.00
2025-06-06 15:20:28.336394,599617573896391028,158.00
2025-06-06 15:20:28.336394,599617573896391028,-55.00
2025-06-06 15:20:28.336394,599617573896391028,99.00
2025-06-06 15:20:28.336394,599617573896391028,131.00
2025-06-06 15:20:28.336394,599617573896391028,38.00
2025-06-06 15:20:28.336394,599617573896391028,24.00
2025-06-06 15:20:28.336394,599617573896391028,31.00
2025-06-06 15:20:28.336394,599617573896391028,2.00
2025-06-06 15:20:28.336394,599617573896391028,-46.00
2025-06-06 15:20:28.336394,599617573896391028,-119.00
2025-06-06 15:20:28.336394,599617573896391028,-138.00
2025-06-06 15:20:28.336394,599617573896391028,-94.00
2025-06-06 15:20:28.336394,599617573896391028,-136.00
2025-06-06 15:20:28.336394,599617573896391028,-204.00
2025-06-06 15:20:28.336394,599617573896391028,-221.00
2025-06-06 15:20:28.336394,599617573896391028,-260.00
2025-06-06 15:20:28.336394,599617573896391028,-313.00
2025-06-06 15:20:28.336394,599617573896391028,-345.00
2025-06-06 15:20:28.336394,599617573896391028,-389.00
2025-06-06 15:20:28.336394,599617573896391028,-425.00
2025-06-06 15:20:28.336394,599617573896391028,-408.00
2025-06-06 15:20:28.336394,599617573896391028,-411.00
2025-06-06 15:20:28.336394,599617573896391028,-450.00
2025-06-06 15:20:28.336394,599617573896391028,-445.00
2025-06-06 15:20:28.336394,599617573896391028,-408.00
2025-06-06 15:20:28.336394,599617573896391028,-364.00
2025-06-06 15:20:28.336394,599617573896391028,-284.00
2025-06-06 15:20:28.336394,599617573896391028,-172.00
2025-06-06 15:20:28.904873,599617574457154195,-80.00
2025-06-06 15:20:28.904873,599617574457154195,-4.00
2025-06-06 15:20:28.904873,599617574457154195,97.00
2025-06-06 15:20:28.904873,599617574457154195,187.00
2025-06-06 15:20:28.904873,599617574457154195,223.00
2025-06-06 15:20:28.904873,599617574457154195,218.00
2025-06-06 15:20:28.904873,599617574457154195,216.00
2025-06-06 15:20:28.904873,599617574457154195,282.00
2025-06-06 15:20:28.904873,599617574457154195,326.00
2025-06-06 15:20:28.904873,599617574457154195,253.00
2025-06-06 15:20:28.904873,599617574457154195,175.00
2025-06-06 15:20:28.904873,599617574457154195,182.00
2025-06-06 15:20:28.904873,599617574457154195,194.00
2025-06-06 15:20:28.904873,599617574457154195,167.00
2025-06-06 15:20:28.904873,599617574457154195,165.00
2025-06-06 15:20:28.904873,599617574457154195,165.00
2025-06-06 15:20:28.904873,599617574457154195,167.00
2025-06-06 15:20:28.904873,599617574457154195,165.00
2025-06-06 15:20:28.904873,599617574457154195,121.00
2025-06-06 15:20:28.904873,599617574457154195,90.00
2025-06-06 15:20:28.904873,599617574457154195,97.00
2025-06-06 15:20:28.904873,599617574457154195,111.00
2025-06-06 15:20:28.904873,599617574457154195,133.00
2025-06-06 15:20:28.904873,599617574457154195,131.00
2025-06-06 15:20:28.904873,599617574457154195,128.00
2025-06-06 15:20:28.904873,599617574457154195,136.00
2025-06-06 15:20:28.904873,599617574457154195,87.00
2025-06-06 15:20:28.904873,599617574457154195,60.00
2025-06-06 15:20:28.904873,599617574457154195,114.00
2025-06-06 15:20:28.904873,599617574457154195,119.00
2025-06-06 15:20:28.904873,599617574457154195,58.00
2025-06-06 15:20:28.904873,599617574457154195,53.00
2025-06-06 15:20:28.904873,599617574457154195,109.00
2025-06-06 15:20:28.904873,599617574457154195,107.00
2025-06-06 15:20:28.904873,599617574457154195,17.00
2025-06-06 15:20:28.904873,599617574457154195,-12.00
2025-06-06 15:20:28.904873,599617574457154195,82.00
2025-06-06 15:20:28.904873,599617574457154195,133.00
2025-06-06 15:20:28.904873,599617574457154195,97.00
2025-06-06 15:20:28.904873,599617574457154195,90.00
2025-06-06 15:20:28.904873,599617574457154195,109.00
2025-06-06 15:20:28.904873,599617574457154195,94.00
2025-06-06 15:20:28.904873,599617574457154195,90.00
2025-06-06 15:20:28.904873,599617574457154195,68.00
2025-06-06 15:20:28.904873,599617574457154195,34.00
2025-06-06 15:20:28.904873,599617574457154195,102.00
2025-06-06 15:20:28.904873,599617574457154195,121.00
2025-06-06 15:20:28.904873,599617574457154195,68.00
2025-06-06 15:20:28.904873,599617574457154195,80.00
2025-06-06 15:20:28.904873,599617574457154195,85.00
2025-06-06 15:20:28.904873,599617574457154195,-9.00
2025-06-06 15:20:28.904873,599617574457154195,-335.00
2025-06-06 15:20:28.904873,599617574457154195,-922.00
2025-06-06 15:20:28.904873,599617574457154195,-1447.00
2025-06-06 15:20:28.904873,599617574457154195,-1528.00
2025-06-06 15:20:28.904873,599617574457154195,-907.00
2025-06-06 15:20:28.904873,599617574457154195,60.00
2025-06-06 15:20:28.904873,599617574457154195,406.00
2025-06-06 15:20:28.904873,599617574457154195,58.00
2025-06-06 15:20:28.904873,599617574457154195,-53.00
2025-06-06 15:20:28.904873,599617574457154195,155.00
2025-06-06 15:20:28.904873,599617574457154195,145.00
2025-06-06 15:20:28.904873,599617574457154195,7.00
2025-06-06 15:20:28.904873,599617574457154195,26.00
2025-06-06 15:20:28.904873,599617574457154195,94.00
2025-06-06 15:20:28.904873,599617574457154195,19.00
2025-06-06 15:20:28.904873,599617574457154195,-72.00
2025-06-06 15:20:28.904873,599617574457154195,-70.00
2025-06-06 15:20:28.904873,599617574457154195,-72.00
2025-06-06 15:20:28.904873,599617574457154195,-102.00
2025-06-06 15:20:28.904873,599617574457154195,-121.00
2025-06-06 15:20:28.904873,599617574457154195,-194.00
2025-06-06 15:20:28.904873,599617574457154195,-257.00
2025-06-06 15:20:29.475306,599617575017937704,-274.00
2025-06-06 15:20:29.475306,599617575017937704,-291.00
2025-06-06 15:20:29.475306,599617575017937704,-299.00
2025-06-06 15:20:29.475306,599617575017937704,-330.00
2025-06-06 15:20:29.475306,599617575017937704,-391.00
2025-06-06 15:20:29.475306,599617575017937704,-423.00
2025-06-06 15:20:29.475306,599617575017937704,-430.00
2025-06-06 15:20:29.475306,599617575017937704,-425.00
2025-06-06 15:20:29.475306,599617575017937704,-403.00
2025-06-06 15:20:29.475306,599617575017937704,-411.00
2025-06-06 15:20:29.475306,599617575017937704,-450.00
2025-06-06 15:20:29.475306,599617575017937704,-345.00
2025-06-06 15:20:29.475306,599617575017937704,-150.00
2025-06-06 15:20:29.475306,599617575017937704,-46.00
2025-06-06 15:20:29.475306,599617575017937704,26.00
2025-06-06 15:20:29.475306,599617575017937704,114.00
2025-06-06 15:20:29.475306,599617575017937704,167.00
2025-06-06 15:20:29.475306,599617575017937704,204.00
2025-06-06 15:20:29.475306,599617575017937704,238.00
2025-06-06 15:20:29.475306,599617575017937704,253.00
2025-06-06 15:20:29.475306,599617575017937704,250.00
2025-06-06 15:20:29.475306,599617575017937704,243.00
2025-06-06 15:20:29.475306,599617575017937704,214.00
2025-06-06 15:20:29.475306,599617575017937704,204.00
2025-06-06 15:20:29.475306,599617575017937704,245.00
2025-06-06 15:20:29.475306,599617575017937704,236.00
2025-06-06 15:20:29.475306,599617575017937704,201.00
2025-06-06 15:20:29.475306,599617575017937704,187.00
2025-06-06 15:20:29.475306,599617575017937704,143.00
2025-06-06 15:20:29.475306,599617575017937704,143.00
2025-06-06 15:20:29.475306,599617575017937704,153.00
2025-06-06 15:20:29.475306,599617575017937704,109.00
2025-06-06 15:20:29.475306,599617575017937704,94.00
2025-06-06 15:20:29.475306,599617575017937704,124.00
2025-06-06 15:20:29.475306,599617575017937704,128.00
2025-06-06 15:20:29.475306,599617575017937704,136.00
2025-06-06 15:20:29.475306,599617575017937704,145.00
2025-06-06 15:20:29.475306,599617575017937704,116.00
2025-06-06 15:20:29.475306,599617575017937704,94.00
2025-06-06 15:20:29.475306,599617575017937704,126.00
2025-06-06 15:20:29.475306,599617575017937704,155.00
2025-06-06 15:20:29.475306,599617575017937704,99.00
2025-06-06 15:20:29.475306,599617575017937704,38.00
2025-06-06 15:20:29.475306,599617575017937704,77.00
2025-06-06 15:20:29.475306,599617575017937704,107.00
2025-06-06 15:20:29.475306,599617575017937704,75.00
2025-06-06 15:20:29.475306,599617575017937704,58.00
2025-06-06 15:20:29.475306,599617575017937704,55.00
2025-06-06 15:20:29.475306,599617575017937704,60.00
2025-06-06 15:20:29.475306,599617575017937704,68.00
2025-06-06 15:20:29.475306,599617575017937704,99.00
2025-06-06 15:20:29.475306,599617575017937704,121.00
2025-06-06 15:20:29.475306,599617575017937704,75.00
2025-06-06 15:20:29.475306,599617575017937704,41.00
2025-06-06 15:20:29.475306,599617575017937704,94.00
2025-06-06 15:20:29.475306,599617575017937704,121.00
2025-06-06 15:20:29.475306,599617575017937704,92.00
2025-06-06 15:20:29.475306,599617575017937704,109.00
2025-06-06 15:20:29.475306,599617575017937704,124.00
2025-06-06 15:20:29.475306,599617575017937704,58.00
2025-06-06 15:20:29.475306,599617575017937704,26.00
2025-06-06 15:20:29.475306,599617575017937704,85.00
2025-06-06 15:20:29.475306,599617575017937704,92.00
2025-06-06 15:20:29.475306,599617575017937704,-109.00
2025-06-06 15:20:29.475306,599617575017937704,-562.00
2025-06-06 15:20:29.475306,599617575017937704,-1116.00
2025-06-06 15:20:29.475306,599617575017937704,-1567.00
2025-06-06 15:20:29.475306,599617575017937704,-1506.00
2025-06-06 15:20:29.475306,599617575017937704,-630.00
2025-06-06 15:20:29.475306,599617575017937704,311.00
2025-06-06 15:20:29.475306,599617575017937704,340.00
2025-06-06 15:20:29.475306,599617575017937704,-31.00
2025-06-06 15:20:29.475306,599617575017937704,46.00
2025-06-06 15:20:30.049548,599617575578711039,182.00
2025-06-06 15:20:30.049548,599617575578711039,51.00
2025-06-06 15:20:30.049548,599617575578711039,-4.00
2025-06-06 15:20:30.049548,599617575578711039,60.00
2025-06-06 15:20:30.049548,599617575578711039,72.00
2025-06-06 15:20:30.049548,599617575578711039,14.00
2025-06-06 15:20:30.049548,599617575578711039,-48.00
2025-06-06 15:20:30.049548,599617575578711039,-51.00
2025-06-06 15:20:30.049548,599617575578711039,-43.00
2025-06-06 15:20:30.049548,599617575578711039,-128.00
2025-06-06 15:20:30.049548,599617575578711039,-221.00
2025-06-06 15:20:30.049548,599617575578711039,-194.00
2025-06-06 15:20:30.049548,599617575578711039,-180.00
2025-06-06 15:20:30.049548,599617575578711039,-257.00
2025-06-06 15:20:30.049548,599617575578711039,-306.00
2025-06-06 15:20:30.049548,599617575578711039,-326.00
2025-06-06 15:20:30.049548,599617575578711039,-369.00
2025-06-06 15:20:30.049548,599617575578711039,-396.00
2025-06-06 15:20:30.049548,599617575578711039,-399.00
2025-06-06 15:20:30.049548,599617575578711039,-413.00
2025-06-06 15:20:30.049548,599617575578711039,-428.00
2025-06-06 15:20:30.049548,599617575578711039,-423.00
2025-06-06 15:20:30.049548,599617575578711039,-408.00
2025-06-06 15:20:30.049548,599617575578711039,-372.00
2025-06-06 15:20:30.049548,599617575578711039,-260.00
2025-06-06 15:20:30.049548,599617575578711039,-102.00
2025-06-06 15:20:30.049548,599617575578711039,-26.00
2025-06-06 15:20:30.049548,599617575578711039,24.00
2025-06-06 15:20:30.049548,599617575578711039,163.00
2025-06-06 15:20:30.049548,599617575578711039,253.00
2025-06-06 15:20:30.049548,599617575578711039,245.00
2025-06-06 15:20:30.049548,599617575578711039,236.00
2025-06-06 15:20:30.049548,599617575578711039,253.00
2025-06-06 15:20:30.049548,599617575578711039,265.00
2025-06-06 15:20:30.049548,599617575578711039,255.00
2025-06-06 15:20:30.049548,599617575578711039,236.00
2025-06-06 15:20:30.049548,599617575578711039,231.00
2025-06-06 15:20:30.049548,599617575578711039,231.00
2025-06-06 15:20:30.049548,599617575578711039,218.00
2025-06-06 15:20:30.049548,599617575578711039,194.00
2025-06-06 15:20:30.049548,599617575578711039,177.00
2025-06-06 15:20:30.049548,599617575578711039,175.00
2025-06-06 15:20:30.049548,599617575578711039,160.00
2025-06-06 15:20:30.049548,599617575578711039,153.00
2025-06-06 15:20:30.049548,599617575578711039,160.00
2025-06-06 15:20:30.049548,599617575578711039,158.00
2025-06-06 15:20:30.049548,599617575578711039,145.00
2025-06-06 15:20:30.049548,599617575578711039,143.00
2025-06-06 15:20:30.049548,599617575578711039,141.00
2025-06-06 15:20:30.049548,599617575578711039,133.00
2025-06-06 15:20:30.049548,599617575578711039,119.00
2025-06-06 15:20:30.049548,599617575578711039,94.00
2025-06-06 15:20:30.049548,599617575578711039,104.00
2025-06-06 15:20:30.049548,599617575578711039,148.00
2025-06-06 15:20:30.049548,599617575578711039,131.00
2025-06-06 15:20:30.049548,599617575578711039,77.00
2025-06-06 15:20:30.049548,599617575578711039,87.00
2025-06-06 15:20:30.049548,599617575578711039,97.00
2025-06-06 15:20:30.049548,599617575578711039,53.00
2025-06-06 15:20:30.049548,599617575578711039,38.00
2025-06-06 15:20:30.049548,599617575578711039,82.00
2025-06-06 15:20:30.049548,599617575578711039,131.00
2025-06-06 15:20:30.049548,599617575578711039,141.00
2025-06-06 15:20:30.049548,599617575578711039,104.00
2025-06-06 15:20:30.049548,599617575578711039,92.00
2025-06-06 15:20:30.049548,599617575578711039,121.00
2025-06-06 15:20:30.049548,599617575578711039,114.00
2025-06-06 15:20:30.049548,599617575578711039,92.00
2025-06-06 15:20:30.049548,599617575578711039,126.00
2025-06-06 15:20:30.049548,599617575578711039,155.00
2025-06-06 15:20:30.049548,599617575578711039,102.00
2025-06-06 15:20:30.049548,599617575578711039,55.00
2025-06-06 15:20:30.049548,599617575578711039,92.00
2025-06-06 15:20:30.587020,599617576139484376,99.00
2025-06-06 15:20:30.587020,599617576139484376,4.00
2025-06-06 15:20:30.587020,599617576139484376,-299.00
2025-06-06 15:20:30.587020,599617576139484376,-878.00
2025-06-06 15:20:30.587020,599617576139484376,-1389.00
2025-06-06 15:20:30.587020,599617576139484376,-1421.00
2025-06-06 15:20:30.587020,599617576139484376,-824.00
2025-06-06 15:20:30.587020,599617576139484376,128.00
2025-06-06 15:20:30.587020,599617576139484376,496.00
2025-06-06 15:20:30.587020,599617576139484376,94.00
2025-06-06 15:20:30.587020,599617576139484376,-46.00
2025-06-06 15:20:30.587020,599617576139484376,165.00
2025-06-06 15:20:30.587020,599617576139484376,116.00
2025-06-06 15:20:30.587020,599617576139484376,4.00
2025-06-06 15:20:30.587020,599617576139484376,75.00
2025-06-06 15:20:30.587020,599617576139484376,82.00
2025-06-06 15:20:30.587020,599617576139484376,-14.00
2025-06-06 15:20:30.587020,599617576139484376,-46.00
2025-06-06 15:20:30.587020,599617576139484376,-63.00
2025-06-06 15:20:30.587020,599617576139484376,-107.00
2025-06-06 15:20:30.587020,599617576139484376,-121.00
2025-06-06 15:20:30.587020,599617576139484376,-133.00
2025-06-06 15:20:30.587020,599617576139484376,-167.00
2025-06-06 15:20:30.587020,599617576139484376,-199.00
2025-06-06 15:20:30.587020,599617576139484376,-245.00
2025-06-06 15:20:30.587020,599617576139484376,-313.00
2025-06-06 15:20:30.587020,599617576139484376,-364.00
2025-06-06 15:20:30.587020,599617576139484376,-377.00
2025-06-06 15:20:30.587020,599617576139484376,-384.00
2025-06-06 15:20:30.587020,599617576139484376,-408.00
2025-06-06 15:20:30.587020,599617576139484376,-420.00
2025-06-06 15:20:30.587020,599617576139484376,-425.00
2025-06-06 15:20:30.587020,599617576139484376,-447.00
2025-06-06 15:20:30.587020,599617576139484376,-437.00
2025-06-06 15:20:30.587020,599617576139484376,-377.00
2025-06-06 15:20:30.587020,599617576139484376,-301.00
2025-06-06 15:20:30.587020,599617576139484376,-201.00
2025-06-06 15:20:30.587020,599617576139484376,-75.00
2025-06-06 15:20:30.587020,599617576139484376,21.00
2025-06-06 15:20:30.587020,599617576139484376,104.00
2025-06-06 15:20:30.587020,599617576139484376,214.00
2025-06-06 15:20:30.587020,599617576139484376,257.00
2025-06-06 15:20:30.587020,599617576139484376,240.00
2025-06-06 15:20:30.587020,599617576139484376,262.00
2025-06-06 15:20:30.587020,599617576139484376,294.00
2025-06-06 15:20:30.587020,599617576139484376,260.00
2025-06-06 15:20:30.587020,599617576139484376,214.00
2025-06-06 15:20:30.587020,599617576139484376,226.00
2025-06-06 15:20:30.587020,599617576139484376,240.00
2025-06-06 15:20:30.587020,599617576139484376,201.00
2025-06-06 15:20:30.587020,599617576139484376,160.00
2025-06-06 15:20:30.587020,599617576139484376,138.00
2025-06-06 15:20:30.587020,599617576139484376,153.00
2025-06-06 15:20:30.587020,599617576139484376,194.00
2025-06-06 15:20:30.587020,599617576139484376,184.00
2025-06-06 15:20:30.587020,599617576139484376,138.00
2025-06-06 15:20:30.587020,599617576139484376,148.00
2025-06-06 15:20:30.587020,599617576139484376,165.00
2025-06-06 15:20:30.587020,599617576139484376,128.00
2025-06-06 15:20:30.587020,599617576139484376,102.00
2025-06-06 15:20:30.587020,599617576139484376,114.00
2025-06-06 15:20:30.587020,599617576139484376,109.00
2025-06-06 15:20:30.587020,599617576139484376,97.00
2025-06-06 15:20:30.587020,599617576139484376,133.00
2025-06-06 15:20:30.587020,599617576139484376,165.00
2025-06-06 15:20:30.587020,599617576139484376,128.00
2025-06-06 15:20:30.587020,599617576139484376,87.00
2025-06-06 15:20:30.587020,599617576139484376,85.00
2025-06-06 15:20:30.587020,599617576139484376,97.00
2025-06-06 15:20:30.587020,599617576139484376,77.00
2025-06-06 15:20:30.587020,599617576139484376,31.00
2025-06-06 15:20:30.587020,599617576139484376,43.00
2025-06-06 15:20:30.587020,599617576139484376,102.00
2025-06-06 15:20:31.127068,599617576700267883,133.00
2025-06-06 15:20:31.127068,599617576700267883,141.00
2025-06-06 15:20:31.127068,599617576700267883,131.00
2025-06-06 15:20:31.127068,599617576700267883,119.00
2025-06-06 15:20:31.127068,599617576700267883,119.00
2025-06-06 15:20:31.127068,599617576700267883,107.00
2025-06-06 15:20:31.127068,599617576700267883,82.00
2025-06-06 15:20:31.127068,599617576700267883,85.00
2025-06-06 15:20:31.127068,599617576700267883,114.00
2025-06-06 15:20:31.127068,599617576700267883,104.00
2025-06-06 15:20:31.127068,599617576700267883,65.00
2025-06-06 15:20:31.127068,599617576700267883,75.00
2025-06-06 15:20:31.127068,599617576700267883,82.00
2025-06-06 15:20:31.127068,599617576700267883,-131.00
2025-06-06 15:20:31.127068,599617576700267883,-676.00
2025-06-06 15:20:31.127068,599617576700267883,-1248.00
2025-06-06 15:20:31.127068,599617576700267883,-1457.00
2025-06-06 15:20:31.127068,599617576700267883,-1133.00
2025-06-06 15:20:31.127068,599617576700267883,-284.00
2025-06-06 15:20:31.127068,599617576700267883,408.00
2025-06-06 15:20:31.127068,599617576700267883,282.00
2025-06-06 15:20:31.127068,599617576700267883,-17.00
2025-06-06 15:20:31.127068,599617576700267883,99.00
2025-06-06 15:20:31.127068,599617576700267883,184.00
2025-06-06 15:20:31.127068,599617576700267883,46.00
2025-06-06 15:20:31.127068,599617576700267883,7.00
2025-06-06 15:20:31.127068,599617576700267883,43.00
2025-06-06 15:20:31.127068,599617576700267883,-14.00
2025-06-06 15:20:31.127068,599617576700267883,-29.00
2025-06-06 15:20:31.127068,599617576700267883,7.00
2025-06-06 15:20:31.127068,599617576700267883,-53.00
2025-06-06 15:20:31.127068,599617576700267883,-119.00
2025-06-06 15:20:31.127068,599617576700267883,-124.00
2025-06-06 15:20:31.127068,599617576700267883,-148.00
2025-06-06 15:20:31.127068,599617576700267883,-199.00
2025-06-06 15:20:31.127068,599617576700267883,-248.00
2025-06-06 15:20:31.127068,599617576700267883,-287.00
2025-06-06 15:20:31.127068,599617576700267883,-318.00
2025-06-06 15:20:31.127068,599617576700267883,-345.00
2025-06-06 15:20:31.127068,599617576700267883,-377.00
2025-06-06 15:20:31.127068,599617576700267883,-403.00
2025-06-06 15:20:31.127068,599617576700267883,-420.00
2025-06-06 15:20:31.127068,599617576700267883,-430.00
2025-06-06 15:20:31.127068,599617576700267883,-433.00
2025-06-06 15:20:31.127068,599617576700267883,-420.00
2025-06-06 15:20:31.127068,599617576700267883,-384.00
2025-06-06 15:20:31.127068,599617576700267883,-313.00
2025-06-06 15:20:31.127068,599617576700267883,-216.00
2025-06-06 15:20:31.127068,599617576700267883,-104.00
2025-06-06 15:20:31.127068,599617576700267883,0.00
2025-06-06 15:20:31.127068,599617576700267883,87.00
2025-06-06 15:20:31.127068,599617576700267883,155.00
2025-06-06 15:20:31.127068,599617576700267883,204.00
2025-06-06 15:20:31.127068,599617576700267883,228.00
2025-06-06 15:20:31.127068,599617576700267883,238.00
2025-06-06 15:20:31.127068,599617576700267883,243.00
2025-06-06 15:20:31.127068,599617576700267883,238.00
2025-06-06 15:20:31.127068,599617576700267883,226.00
2025-06-06 15:20:31.127068,599617576700267883,216.00
2025-06-06 15:20:31.127068,599617576700267883,201.00
2025-06-06 15:20:31.127068,599617576700267883,184.00
2025-06-06 15:20:31.127068,599617576700267883,170.00
2025-06-06 15:20:31.127068,599617576700267883,160.00
2025-06-06 15:20:31.127068,599617576700267883,145.00
2025-06-06 15:20:31.127068,599617576700267883,133.00
2025-06-06 15:20:31.127068,599617576700267883,126.00
2025-06-06 15:20:31.127068,599617576700267883,121.00
2025-06-06 15:20:31.127068,599617576700267883,114.00
2025-06-06 15:20:31.127068,599617576700267883,111.00
2025-06-06 15:20:31.127068,599617576700267883,109.00
2025-06-06 15:20:31.127068,599617576700267883,109.00
2025-06-06 15:20:31.127068,599617576700267883,109.00
2025-06-06 15:20:31.127068,599617576700267883,107.00
2025-06-06 15:20:31.665798,599617577261031048,107.00
2025-06-06 15:20:31.665798,599617577261031048,102.00
2025-06-06 15:20:31.665798,599617577261031048,99.00
2025-06-06 15:20:31.665798,599617577261031048,102.00
2025-06-06 15:20:31.665798,599617577261031048,94.00
2025-06-06 15:20:31.665798,599617577261031048,77.00
2025-06-06 15:20:31.665798,599617577261031048,72.00
2025-06-06 15:20:31.665798,599617577261031048,77.00
2025-06-06 15:20:31.665798,599617577261031048,63.00
2025-06-06 15:20:31.665798,599617577261031048,34.00
2025-06-06 15:20:31.665798,599617577261031048,38.00
2025-06-06 15:20:31.665798,599617577261031048,75.00
2025-06-06 15:20:31.665798,599617577261031048,99.00
2025-06-06 15:20:31.665798,599617577261031048,99.00
2025-06-06 15:20:31.665798,599617577261031048,92.00
2025-06-06 15:20:31.665798,599617577261031048,90.00
2025-06-06 15:20:31.665798,599617577261031048,85.00
2025-06-06 15:20:31.665798,599617577261031048,85.00
2025-06-06 15:20:31.665798,599617577261031048,82.00
2025-06-06 15:20:31.665798,599617577261031048,77.00
2025-06-06 15:20:31.665798,599617577261031048,77.00
2025-06-06 15:20:31.665798,599617577261031048,75.00
2025-06-06 15:20:31.665798,599617577261031048,68.00
2025-06-06 15:20:31.665798,599617577261031048,68.00
2025-06-06 15:20:31.665798,599617577261031048,75.00
2025-06-06 15:20:31.665798,599617577261031048,2.00
2025-06-06 15:20:31.665798,599617577261031048,-340.00
2025-06-06 15:20:31.665798,599617577261031048,-917.00
2025-06-06 15:20:31.665798,599617577261031048,-1450.00
2025-06-06 15:20:31.665798,599617577261031048,-1559.00
2025-06-06 15:20:31.665798,599617577261031048,-929.00
2025-06-06 15:20:31.665798,599617577261031048,48.00
2025-06-06 15:20:31.665798,599617577261031048,382.00
2025-06-06 15:20:31.665798,599617577261031048,43.00
2025-06-06 15:20:31.665798,599617577261031048,-31.00
2025-06-06 15:20:31.665798,599617577261031048,160.00
2025-06-06 15:20:31.665798,599617577261031048,114.00
2025-06-06 15:20:31.665798,599617577261031048,26.00
2025-06-06 15:20:31.665798,599617577261031048,55.00
2025-06-06 15:20:31.665798,599617577261031048,43.00
2025-06-06 15:20:31.665798,599617577261031048,-7.00
2025-06-06 15:20:31.665798,599617577261031048,-24.00
2025-06-06 15:20:31.665798,599617577261031048,-38.00
2025-06-06 15:20:31.665798,599617577261031048,-75.00
2025-06-06 15:20:31.665798,599617577261031048,-107.00
2025-06-06 15:20:31.665798,599617577261031048,-131.00
2025-06-06 15:20:31.665798,599617577261031048,-165.00
2025-06-06 15:20:31.665798,599617577261031048,-204.00
2025-06-06 15:20:31.665798,599617577261031048,-243.00
2025-06-06 15:20:31.665798,599617577261031048,-277.00
2025-06-06 15:20:31.665798,599617577261031048,-311.00
2025-06-06 15:20:31.665798,599617577261031048,-350.00
2025-06-06 15:20:31.665798,599617577261031048,-386.00
2025-06-06 15:20:31.665798,599617577261031048,-403.00
2025-06-06 15:20:31.665798,599617577261031048,-413.00
2025-06-06 15:20:31.665798,599617577261031048,-428.00
2025-06-06 15:20:31.665798,599617577261031048,-428.00
2025-06-06 15:20:31.665798,599617577261031048,-408.00
2025-06-06 15:20:31.665798,599617577261031048,-357.00
2025-06-06 15:20:31.665798,599617577261031048,-274.00
2025-06-06 15:20:31.665798,599617577261031048,-172.00
2025-06-06 15:20:31.665798,599617577261031048,-65.00
2025-06-06 15:20:31.665798,599617577261031048,34.00
2025-06-06 15:20:31.665798,599617577261031048,114.00
2025-06-06 15:20:31.665798,599617577261031048,175.00
2025-06-06 15:20:31.665798,599617577261031048,209.00
2025-06-06 15:20:31.665798,599617577261031048,231.00
2025-06-06 15:20:31.665798,599617577261031048,245.00
2025-06-06 15:20:31.665798,599617577261031048,245.00
2025-06-06 15:20:31.665798,599617577261031048,233.00
2025-06-06 15:20:31.665798,599617577261031048,216.00
2025-06-06 15:20:31.665798,599617577261031048,201.00
2025-06-06 15:20:31.665798,599617577261031048,197.00
2025-06-06 15:20:32.265791,599617577821819645,187.00
2025-06-06 15:20:32.265791,599617577821819645,172.00
2025-06-06 15:20:32.265791,599617577821819645,165.00
2025-06-06 15:20:32.265791,599617577821819645,163.00
2025-06-06 15:20:32.265791,599617577821819645,155.00
2025-06-06 15:20:32.265791,599617577821819645,141.00
2025-06-06 15:20:32.265791,599617577821819645,133.00
2025-06-06 15:20:32.265791,599617577821819645,136.00
2025-06-06 15:20:32.265791,599617577821819645,136.00
2025-06-06 15:20:32.265791,599617577821819645,133.00
2025-06-06 15:20:32.265791,599617577821819645,126.00
2025-06-06 15:20:32.265791,599617577821819645,121.00
2025-06-06 15:20:32.265791,599617577821819645,119.00
2025-06-06 15:20:32.265791,599617577821819645,116.00
2025-06-06 15:20:32.265791,599617577821819645,116.00
2025-06-06 15:20:32.265791,599617577821819645,114.00
2025-06-06 15:20:32.265791,599617577821819645,102.00
2025-06-06 15:20:32.265791,599617577821819645,92.00
2025-06-06 15:20:32.265791,599617577821819645,92.00
2025-06-06 15:20:32.265791,599617577821819645,87.00
2025-06-06 15:20:32.265791,599617577821819645,58.00
2025-06-06 15:20:32.265791,599617577821819645,31.00
2025-06-06 15:20:32.265791,599617577821819645,51.00
2025-06-06 15:20:32.265791,599617577821819645,97.00
2025-06-06 15:20:32.265791,599617577821819645,114.00
2025-06-06 15:20:32.265791,599617577821819645,109.00
2025-06-06 15:20:32.265791,599617577821819645,104.00
2025-06-06 15:20:32.265791,599617577821819645,94.00
2025-06-06 15:20:32.265791,599617577821819645,87.00
2025-06-06 15:20:32.265791,599617577821819645,87.00
2025-06-06 15:20:32.265791,599617577821819645,87.00
2025-06-06 15:20:32.265791,599617577821819645,85.00
2025-06-06 15:20:32.265791,599617577821819645,85.00
2025-06-06 15:20:32.265791,599617577821819645,82.00
2025-06-06 15:20:32.265791,599617577821819645,75.00
2025-06-06 15:20:32.265791,599617577821819645,72.00
2025-06-06 15:20:32.265791,599617577821819645,38.00
2025-06-06 15:20:32.265791,599617577821819645,-192.00
2025-06-06 15:20:32.265791,599617577821819645,-725.00
2025-06-06 15:20:32.265791,599617577821819645,-1294.00
2025-06-06 15:20:32.265791,599617577821819645,-1554.00
2025-06-06 15:20:32.265791,599617577821819645,-1231.00
2025-06-06 15:20:32.265791,599617577821819645,-279.00
2025-06-06 15:20:32.265791,599617577821819645,437.00
2025-06-06 15:20:32.265791,599617577821819645,248.00
2025-06-06 15:20:32.265791,599617577821819645,-55.00
2025-06-06 15:20:32.265791,599617577821819645,85.00
2025-06-06 15:20:32.265791,599617577821819645,153.00
2025-06-06 15:20:32.265791,599617577821819645,36.00
2025-06-06 15:20:32.265791,599617577821819645,24.00
2025-06-06 15:20:32.265791,599617577821819645,36.00
2025-06-06 15:20:32.265791,599617577821819645,-14.00
2025-06-06 15:20:32.265791,599617577821819645,-38.00
2025-06-06 15:20:32.265791,599617577821819645,-46.00
2025-06-06 15:20:32.265791,599617577821819645,-87.00
2025-06-06 15:20:32.265791,599617577821819645,-124.00
2025-06-06 15:20:32.265791,599617577821819645,-148.00
2025-06-06 15:20:32.265791,599617577821819645,-182.00
2025-06-06 15:20:32.265791,599617577821819645,-226.00
2025-06-06 15:20:32.265791,599617577821819645,-255.00
2025-06-06 15:20:32.265791,599617577821819645,-287.00
2025-06-06 15:20:32.265791,599617577821819645,-333.00
2025-06-06 15:20:32.265791,599617577821819645,-382.00
2025-06-06 15:20:32.265791,599617577821819645,-420.00
2025-06-06 15:20:32.265791,599617577821819645,-440.00
2025-06-06 15:20:32.265791,599617577821819645,-450.00
2025-06-06 15:20:32.265791,599617577821819645,-464.00
2025-06-06 15:20:32.265791,599617577821819645,-469.00
2025-06-06 15:20:32.265791,599617577821819645,-462.00
2025-06-06 15:20:32.265791,599617577821819645,-428.00
2025-06-06 15:20:32.265791,599617577821819645,-355.00
2025-06-06 15:20:32.265791,599617577821819645,-255.00
2025-06-06 15:20:32.265791,599617577821819645,-143.00
2025-06-06 15:20:32.835475,599617578382608240,-34.00
2025-06-06 15:20:32.835475,599617578382608240,58.00
2025-06-06 15:20:32.835475,599617578382608240,124.00
2025-06-06 15:20:32.835475,599617578382608240,175.00
2025-06-06 15:20:32.835475,599617578382608240,209.00
2025-06-06 15:20:32.835475,599617578382608240,218.00
2025-06-06 15:20:32.835475,599617578382608240,216.00
2025-06-06 15:20:32.835475,599617578382608240,214.00
2025-06-06 15:20:32.835475,599617578382608240,209.00
2025-06-06 15:20:32.835475,599617578382608240,194.00
2025-06-06 15:20:32.835475,599617578382608240,175.00
2025-06-06 15:20:32.835475,599617578382608240,160.00
2025-06-06 15:20:32.835475,599617578382608240,148.00
2025-06-06 15:20:32.835475,599617578382608240,136.00
2025-06-06 15:20:32.835475,599617578382608240,126.00
2025-06-06 15:20:32.835475,599617578382608240,116.00
2025-06-06 15:20:32.835475,599617578382608240,107.00
2025-06-06 15:20:32.835475,599617578382608240,102.00
2025-06-06 15:20:32.835475,599617578382608240,99.00
2025-06-06 15:20:32.835475,599617578382608240,92.00
2025-06-06 15:20:32.835475,599617578382608240,82.00
2025-06-06 15:20:32.835475,599617578382608240,75.00
2025-06-06 15:20:32.835475,599617578382608240,75.00
2025-06-06 15:20:32.835475,599617578382608240,72.00
2025-06-06 15:20:32.835475,599617578382608240,55.00
2025-06-06 15:20:32.835475,599617578382608240,38.00
2025-06-06 15:20:32.835475,599617578382608240,48.00
2025-06-06 15:20:32.835475,599617578382608240,53.00
2025-06-06 15:20:32.835475,599617578382608240,29.00
2025-06-06 15:20:32.835475,599617578382608240,21.00
2025-06-06 15:20:32.835475,599617578382608240,46.00
2025-06-06 15:20:32.835475,599617578382608240,72.00
2025-06-06 15:20:32.835475,599617578382608240,85.00
2025-06-06 15:20:32.835475,599617578382608240,77.00
2025-06-06 15:20:32.835475,599617578382608240,68.00
2025-06-06 15:20:32.835475,599617578382608240,70.00
2025-06-06 15:20:32.835475,599617578382608240,70.00
2025-06-06 15:20:32.835475,599617578382608240,65.00
2025-06-06 15:20:32.835475,599617578382608240,60.00
2025-06-06 15:20:32.835475,599617578382608240,60.00
2025-06-06 15:20:32.835475,599617578382608240,53.00
2025-06-06 15:20:32.835475,599617578382608240,43.00
2025-06-06 15:20:32.835475,599617578382608240,38.00
2025-06-06 15:20:32.835475,599617578382608240,38.00
2025-06-06 15:20:32.835475,599617578382608240,29.00
2025-06-06 15:20:32.835475,599617578382608240,-114.00
2025-06-06 15:20:32.835475,599617578382608240,-557.00
2025-06-06 15:20:32.835475,599617578382608240,-1109.00
2025-06-06 15:20:32.835475,599617578382608240,-1357.00
2025-06-06 15:20:32.835475,599617578382608240,-1121.00
2025-06-06 15:20:32.835475,599617578382608240,-423.00
2025-06-06 15:20:32.835475,599617578382608240,296.00
2025-06-06 15:20:32.835475,599617578382608240,323.00
2025-06-06 15:20:32.835475,599617578382608240,-41.00
2025-06-06 15:20:32.835475,599617578382608240,-34.00
2025-06-06 15:20:32.835475,599617578382608240,99.00
2025-06-06 15:20:32.835475,599617578382608240,14.00
2025-06-06 15:20:32.835475,599617578382608240,-38.00
2025-06-06 15:20:32.835475,599617578382608240,-12.00
2025-06-06 15:20:32.835475,599617578382608240,-41.00
2025-06-06 15:20:32.835475,599617578382608240,-90.00
2025-06-06 15:20:32.835475,599617578382608240,-102.00
2025-06-06 15:20:32.835475,599617578382608240,-124.00
2025-06-06 15:20:32.835475,599617578382608240,-160.00
2025-06-06 15:20:32.835475,599617578382608240,-189.00
2025-06-06 15:20:32.835475,599617578382608240,-221.00
2025-06-06 15:20:32.835475,599617578382608240,-253.00
2025-06-06 15:20:32.835475,599617578382608240,-289.00
2025-06-06 15:20:32.835475,599617578382608240,-323.00
2025-06-06 15:20:32.835475,599617578382608240,-360.00
2025-06-06 15:20:32.835475,599617578382608240,-394.00
2025-06-06 15:20:32.835475,599617578382608240,-430.00
2025-06-06 15:20:32.835475,599617578382608240,-459.00
2025-06-06 15:20:33.374177,599617578943381575,-472.00
2025-06-06 15:20:33.374177,599617578943381575,-479.00
2025-06-06 15:20:33.374177,599617578943381575,-486.00
2025-06-06 15:20:33.374177,599617578943381575,-476.00
2025-06-06 15:20:33.374177,599617578943381575,-440.00
2025-06-06 15:20:33.374177,599617578943381575,-374.00
2025-06-06 15:20:33.374177,599617578943381575,-274.00
2025-06-06 15:20:33.374177,599617578943381575,-165.00
2025-06-06 15:20:33.374177,599617578943381575,-60.00
2025-06-06 15:20:33.374177,599617578943381575,34.00
2025-06-06 15:20:33.374177,599617578943381575,109.00
2025-06-06 15:20:33.374177,599617578943381575,153.00
2025-06-06 15:20:33.374177,599617578943381575,182.00
2025-06-06 15:20:33.374177,599617578943381575,199.00
2025-06-06 15:20:33.374177,599617578943381575,201.00
2025-06-06 15:20:33.374177,599617578943381575,197.00
2025-06-06 15:20:33.374177,599617578943381575,189.00
2025-06-06 15:20:33.374177,599617578943381575,177.00
2025-06-06 15:20:33.374177,599617578943381575,163.00
2025-06-06 15:20:33.374177,599617578943381575,150.00
2025-06-06 15:20:33.374177,599617578943381575,133.00
2025-06-06 15:20:33.374177,599617578943381575,119.00
2025-06-06 15:20:33.374177,599617578943381575,107.00
2025-06-06 15:20:33.374177,599617578943381575,99.00
2025-06-06 15:20:33.374177,599617578943381575,94.00
2025-06-06 15:20:33.374177,599617578943381575,90.00
2025-06-06 15:20:33.374177,599617578943381575,80.00
2025-06-06 15:20:33.374177,599617578943381575,70.00
2025-06-06 15:20:33.374177,599617578943381575,63.00
2025-06-06 15:20:33.374177,599617578943381575,68.00
2025-06-06 15:20:33.374177,599617578943381575,70.00
2025-06-06 15:20:33.374177,599617578943381575,53.00
2025-06-06 15:20:33.374177,599617578943381575,34.00
2025-06-06 15:20:33.374177,599617578943381575,38.00
2025-06-06 15:20:33.374177,599617578943381575,51.00
2025-06-06 15:20:33.374177,599617578943381575,36.00
2025-06-06 15:20:33.374177,599617578943381575,14.00
2025-06-06 15:20:33.374177,599617578943381575,29.00
2025-06-06 15:20:33.374177,599617578943381575,70.00
2025-06-06 15:20:33.374177,599617578943381575,92.00
2025-06-06 15:20:33.374177,599617578943381575,90.00
2025-06-06 15:20:33.374177,599617578943381575,90.00
2025-06-06 15:20:33.374177,599617578943381575,90.00
2025-06-06 15:20:33.374177,599617578943381575,85.00
2025-06-06 15:20:33.374177,599617578943381575,80.00
2025-06-06 15:20:33.374177,599617578943381575,82.00
2025-06-06 15:20:33.374177,599617578943381575,77.00
2025-06-06 15:20:33.374177,599617578943381575,72.00
2025-06-06 15:20:33.374177,599617578943381575,68.00
2025-06-06 15:20:33.374177,599617578943381575,63.00
2025-06-06 15:20:33.374177,599617578943381575,60.00
2025-06-06 15:20:33.374177,599617578943381575,60.00
2025-06-06 15:20:33.374177,599617578943381575,-17.00
2025-06-06 15:20:33.374177,599617578943381575,-364.00
2025-06-06 15:20:33.374177,599617578943381575,-934.00
2025-06-06 15:20:33.374177,599617578943381575,-1343.00
2025-06-06 15:20:33.374177,599617578943381575,-1323.00
2025-06-06 15:20:33.374177,599617578943381575,-759.00
2025-06-06 15:20:33.374177,599617578943381575,116.00
2025-06-06 15:20:33.374177,599617578943381575,440.00
2025-06-06 15:20:33.374177,599617578943381575,80.00
2025-06-06 15:20:33.374177,599617578943381575,-48.00
2025-06-06 15:20:33.374177,599617578943381575,126.00
2025-06-06 15:20:33.374177,599617578943381575,90.00
2025-06-06 15:20:33.374177,599617578943381575,0.00
2025-06-06 15:20:33.374177,599617578943381575,29.00
2025-06-06 15:20:33.374177,599617578943381575,19.00
2025-06-06 15:20:33.374177,599617578943381575,-38.00
2025-06-06 15:20:33.374177,599617578943381575,-55.00
2025-06-06 15:20:33.374177,599617578943381575,-68.00
2025-06-06 15:20:33.374177,599617578943381575,-104.00
2025-06-06 15:20:33.374177,599617578943381575,-136.00
2025-06-06 15:20:33.374177,599617578943381575,-163.00
2025-06-06 15:20:33.946136,599617579504154912,-197.00
2025-06-06 15:20:33.946136,599617579504154912,-236.00
2025-06-06 15:20:33.946136,599617579504154912,-272.00
2025-06-06 15:20:33.946136,599617579504154912,-309.00
2025-06-06 15:20:33.946136,599617579504154912,-340.00
2025-06-06 15:20:33.946136,599617579504154912,-369.00
2025-06-06 15:20:33.946136,599617579504154912,-401.00
2025-06-06 15:20:33.946136,599617579504154912,-423.00
2025-06-06 15:20:33.946136,599617579504154912,-435.00
2025-06-06 15:20:33.946136,599617579504154912,-440.00
2025-06-06 15:20:33.946136,599617579504154912,-437.00
2025-06-06 15:20:33.946136,599617579504154912,-411.00
2025-06-06 15:20:33.946136,599617579504154912,-355.00
2025-06-06 15:20:33.946136,599617579504154912,-267.00
2025-06-06 15:20:33.946136,599617579504154912,-160.00
2025-06-06 15:20:33.946136,599617579504154912,-48.00
2025-06-06 15:20:33.946136,599617579504154912,51.00
2025-06-06 15:20:33.946136,599617579504154912,126.00
2025-06-06 15:20:33.946136,599617579504154912,180.00
2025-06-06 15:20:33.946136,599617579504154912,211.00
2025-06-06 15:20:33.946136,599617579504154912,228.00
2025-06-06 15:20:33.946136,599617579504154912,238.00
2025-06-06 15:20:33.946136,599617579504154912,238.00
2025-06-06 15:20:33.946136,599617579504154912,226.00
2025-06-06 15:20:33.946136,599617579504154912,214.00
2025-06-06 15:20:33.946136,599617579504154912,201.00
2025-06-06 15:20:33.946136,599617579504154912,187.00
2025-06-06 15:20:33.946136,599617579504154912,172.00
2025-06-06 15:20:33.946136,599617579504154912,163.00
2025-06-06 15:20:33.946136,599617579504154912,155.00
2025-06-06 15:20:33.946136,599617579504154912,145.00
2025-06-06 15:20:33.946136,599617579504154912,133.00
2025-06-06 15:20:33.946136,599617579504154912,124.00
2025-06-06 15:20:33.946136,599617579504154912,116.00
2025-06-06 15:20:33.946136,599617579504154912,116.00
2025-06-06 15:20:33.946136,599617579504154912,116.00
2025-06-06 15:20:33.946136,599617579504154912,111.00
2025-06-06 15:20:33.946136,599617579504154912,102.00
2025-06-06 15:20:33.946136,599617579504154912,99.00
2025-06-06 15:20:33.946136,599617579504154912,104.00
2025-06-06 15:20:33.946136,599617579504154912,92.00
2025-06-06 15:20:33.946136,599617579504154912,75.00
2025-06-06 15:20:33.946136,599617579504154912,82.00
2025-06-06 15:20:33.946136,599617579504154912,90.00
2025-06-06 15:20:33.946136,599617579504154912,68.00
2025-06-06 15:20:33.946136,599617579504154912,43.00
2025-06-06 15:20:33.946136,599617579504154912,60.00
2025-06-06 15:20:33.946136,599617579504154912,99.00
2025-06-06 15:20:33.946136,599617579504154912,114.00
2025-06-06 15:20:33.946136,599617579504154912,109.00
2025-06-06 15:20:33.946136,599617579504154912,107.00
2025-06-06 15:20:33.946136,599617579504154912,107.00
2025-06-06 15:20:33.946136,599617579504154912,102.00
2025-06-06 15:20:33.946136,599617579504154912,102.00
2025-06-06 15:20:33.946136,599617579504154912,109.00
2025-06-06 15:20:33.946136,599617579504154912,102.00
2025-06-06 15:20:33.946136,599617579504154912,94.00
2025-06-06 15:20:33.946136,599617579504154912,90.00
2025-06-06 15:20:33.946136,599617579504154912,85.00
2025-06-06 15:20:33.946136,599617579504154912,82.00
2025-06-06 15:20:33.946136,599617579504154912,80.00
2025-06-06 15:20:33.946136,599617579504154912,-38.00
2025-06-06 15:20:33.946136,599617579504154912,-437.00
2025-06-06 15:20:33.946136,599617579504154912,-992.00
2025-06-06 15:20:33.946136,599617579504154912,-1367.00
2025-06-06 15:20:33.946136,599617579504154912,-1267.00
2025-06-06 15:20:33.946136,599617579504154912,-579.00
2025-06-06 15:20:33.946136,599617579504154912,216.00
2025-06-06 15:20:33.946136,599617579504154912,352.00
2025-06-06 15:20:33.946136,599617579504154912,31.00
2025-06-06 15:20:33.946136,599617579504154912,12.00
2025-06-06 15:20:33.946136,599617579504154912,155.00
2025-06-06 15:20:33.946136,599617579504154912,92.00
2025-06-06 15:20:34.485516,599617580064943507,31.00
2025-06-06 15:20:34.485516,599617580064943507,58.00
2025-06-06 15:20:34.485516,599617580064943507,31.00
2025-06-06 15:20:34.485516,599617580064943507,-17.00
2025-06-06 15:20:34.485516,599617580064943507,-26.00
2025-06-06 15:20:34.485516,599617580064943507,-46.00
2025-06-06 15:20:34.485516,599617580064943507,-77.00
2025-06-06 15:20:34.485516,599617580064943507,-104.00
2025-06-06 15:20:34.485516,599617580064943507,-131.00
2025-06-06 15:20:34.485516,599617580064943507,-167.00
2025-06-06 15:20:34.485516,599617580064943507,-201.00
2025-06-06 15:20:34.485516,599617580064943507,-233.00
2025-06-06 15:20:34.485516,599617580064943507,-272.00
2025-06-06 15:20:34.485516,599617580064943507,-313.00
2025-06-06 15:20:34.485516,599617580064943507,-347.00
2025-06-06 15:20:34.485516,599617580064943507,-377.00
2025-06-06 15:20:34.485516,599617580064943507,-399.00
2025-06-06 15:20:34.485516,599617580064943507,-418.00
2025-06-06 15:20:34.485516,599617580064943507,-420.00
2025-06-06 15:20:34.485516,599617580064943507,-413.00
2025-06-06 15:20:34.485516,599617580064943507,-389.00
2025-06-06 15:20:34.485516,599617580064943507,-330.00
2025-06-06 15:20:34.485516,599617580064943507,-233.00
2025-06-06 15:20:34.485516,599617580064943507,-124.00
2025-06-06 15:20:34.485516,599617580064943507,-17.00
2025-06-06 15:20:34.485516,599617580064943507,80.00
2025-06-06 15:20:34.485516,599617580064943507,153.00
2025-06-06 15:20:34.485516,599617580064943507,201.00
2025-06-06 15:20:34.485516,599617580064943507,228.00
2025-06-06 15:20:34.485516,599617580064943507,233.00
2025-06-06 15:20:34.485516,599617580064943507,236.00
2025-06-06 15:20:34.485516,599617580064943507,240.00
2025-06-06 15:20:34.485516,599617580064943507,236.00
2025-06-06 15:20:34.485516,599617580064943507,218.00
2025-06-06 15:20:34.485516,599617580064943507,201.00
2025-06-06 15:20:34.485516,599617580064943507,192.00
2025-06-06 15:20:34.485516,599617580064943507,184.00
2025-06-06 15:20:34.485516,599617580064943507,165.00
2025-06-06 15:20:34.485516,599617580064943507,145.00
2025-06-06 15:20:34.485516,599617580064943507,141.00
2025-06-06 15:20:34.485516,599617580064943507,143.00
2025-06-06 15:20:34.485516,599617580064943507,138.00
2025-06-06 15:20:34.485516,599617580064943507,128.00
2025-06-06 15:20:34.485516,599617580064943507,124.00
2025-06-06 15:20:34.485516,599617580064943507,119.00
2025-06-06 15:20:34.485516,599617580064943507,119.00
2025-06-06 15:20:34.485516,599617580064943507,119.00
2025-06-06 15:20:34.485516,599617580064943507,116.00
2025-06-06 15:20:34.485516,599617580064943507,114.00
2025-06-06 15:20:34.485516,599617580064943507,109.00
2025-06-06 15:20:34.485516,599617580064943507,104.00
2025-06-06 15:20:34.485516,599617580064943507,97.00
2025-06-06 15:20:34.485516,599617580064943507,82.00
2025-06-06 15:20:34.485516,599617580064943507,72.00
2025-06-06 15:20:34.485516,599617580064943507,82.00
2025-06-06 15:20:34.485516,599617580064943507,85.00
2025-06-06 15:20:34.485516,599617580064943507,58.00
2025-06-06 15:20:34.485516,599617580064943507,38.00
2025-06-06 15:20:34.485516,599617580064943507,65.00
2025-06-06 15:20:34.485516,599617580064943507,99.00
2025-06-06 15:20:34.485516,599617580064943507,107.00
2025-06-06 15:20:34.485516,599617580064943507,104.00
2025-06-06 15:20:34.485516,599617580064943507,102.00
2025-06-06 15:20:34.485516,599617580064943507,102.00
2025-06-06 15:20:34.485516,599617580064943507,97.00
2025-06-06 15:20:34.485516,599617580064943507,97.00
2025-06-06 15:20:34.485516,599617580064943507,97.00
2025-06-06 15:20:34.485516,599617580064943507,94.00
2025-06-06 15:20:34.485516,599617580064943507,90.00
2025-06-06 15:20:34.485516,599617580064943507,85.00
2025-06-06 15:20:34.485516,599617580064943507,80.00
2025-06-06 15:20:34.485516,599617580064943507,77.00
2025-06-06 15:20:34.485516,599617580064943507,70.00
2025-06-06 15:20:35.086062,599617580625701584,-87.00
2025-06-06 15:20:35.086062,599617580625701584,-530.00
2025-06-06 15:20:35.086062,599617580625701584,-1070.00
2025-06-06 15:20:35.086062,599617580625701584,-1382.00
2025-06-06 15:20:35.086062,599617580625701584,-1216.00
2025-06-06 15:20:35.086062,599617580625701584,-450.00
2025-06-06 15:20:35.086062,599617580625701584,333.00
2025-06-06 15:20:35.086062,599617580625701584,347.00
2025-06-06 15:20:35.086062,599617580625701584,0.00
2025-06-06 15:20:35.086062,599617580625701584,36.00
2025-06-06 15:20:35.086062,599617580625701584,163.00
2025-06-06 15:20:35.086062,599617580625701584,70.00
2025-06-06 15:20:35.086062,599617580625701584,26.00
2025-06-06 15:20:35.086062,599617580625701584,55.00
2025-06-06 15:20:35.086062,599617580625701584,21.00
2025-06-06 15:20:35.086062,599617580625701584,-19.00
2025-06-06 15:20:35.086062,599617580625701584,-24.00
2025-06-06 15:20:35.086062,599617580625701584,-51.00
2025-06-06 15:20:35.086062,599617580625701584,-92.00
2025-06-06 15:20:35.086062,599617580625701584,-114.00
2025-06-06 15:20:35.086062,599617580625701584,-143.00
2025-06-06 15:20:35.086062,599617580625701584,-180.00
2025-06-06 15:20:35.086062,599617580625701584,-214.00
2025-06-06 15:20:35.086062,599617580625701584,-250.00
2025-06-06 15:20:35.086062,599617580625701584,-289.00
2025-06-06 15:20:35.086062,599617580625701584,-326.00
2025-06-06 15:20:35.086062,599617580625701584,-360.00
2025-06-06 15:20:35.086062,599617580625701584,-389.00
2025-06-06 15:20:35.086062,599617580625701584,-413.00
2025-06-06 15:20:35.086062,599617580625701584,-423.00
2025-06-06 15:20:35.086062,599617580625701584,-423.00
2025-06-06 15:20:35.086062,599617580625701584,-420.00
2025-06-06 15:20:35.086062,599617580625701584,-401.00
2025-06-06 15:20:35.086062,599617580625701584,-338.00
2025-06-06 15:20:35.086062,599617580625701584,-240.00
2025-06-06 15:20:35.086062,599617580625701584,-131.00
2025-06-06 15:20:35.086062,599617580625701584,-21.00
2025-06-06 15:20:35.086062,599617580625701584,75.00
2025-06-06 15:20:35.086062,599617580625701584,150.00
2025-06-06 15:20:35.086062,599617580625701584,204.00
2025-06-06 15:20:35.086062,599617580625701584,233.00
2025-06-06 15:20:35.086062,599617580625701584,253.00
2025-06-06 15:20:35.086062,599617580625701584,260.00
2025-06-06 15:20:35.086062,599617580625701584,250.00
2025-06-06 15:20:35.086062,599617580625701584,236.00
2025-06-06 15:20:35.086062,599617580625701584,231.00
2025-06-06 15:20:35.086062,599617580625701584,216.00
2025-06-06 15:20:35.086062,599617580625701584,199.00
2025-06-06 15:20:35.086062,599617580625701584,194.00
2025-06-06 15:20:35.086062,599617580625701584,187.00
2025-06-06 15:20:35.086062,599617580625701584,165.00
2025-06-06 15:20:35.086062,599617580625701584,153.00
2025-06-06 15:20:35.086062,599617580625701584,150.00
2025-06-06 15:20:35.086062,599617580625701584,150.00
2025-06-06 15:20:35.086062,599617580625701584,150.00
2025-06-06 15:20:35.086062,599617580625701584,138.00
2025-06-06 15:20:35.086062,599617580625701584,131.00
2025-06-06 15:20:35.086062,599617580625701584,136.00
2025-06-06 15:20:35.086062,599617580625701584,126.00
2025-06-06 15:20:35.086062,599617580625701584,116.00
2025-06-06 15:20:35.086062,599617580625701584,143.00
2025-06-06 15:20:35.086062,599617580625701584,158.00
2025-06-06 15:20:35.086062,599617580625701584,128.00
2025-06-06 15:20:35.086062,599617580625701584,119.00
2025-06-06 15:20:35.086062,599617580625701584,126.00
2025-06-06 15:20:35.086062,599617580625701584,104.00
2025-06-06 15:20:35.086062,599617580625701584,90.00
2025-06-06 15:20:35.086062,599617580625701584,102.00
2025-06-06 15:20:35.086062,599617580625701584,85.00
2025-06-06 15:20:35.086062,599617580625701584,68.00
2025-06-06 15:20:35.086062,599617580625701584,70.00
2025-06-06 15:20:35.086062,599617580625701584,63.00
2025-06-06 15:20:35.086062,599617580625701584,46.00
2025-06-06 15:20:35.657329,599617581186490181,55.00
2025-06-06 15:20:35.657329,599617581186490181,90.00
2025-06-06 15:20:35.657329,599617581186490181,114.00
2025-06-06 15:20:35.657329,599617581186490181,111.00
2025-06-06 15:20:35.657329,599617581186490181,116.00
2025-06-06 15:20:35.657329,599617581186490181,126.00
2025-06-06 15:20:35.657329,599617581186490181,82.00
2025-06-06 15:20:35.657329,599617581186490181,43.00
2025-06-06 15:20:35.657329,599617581186490181,70.00
2025-06-06 15:20:35.657329,599617581186490181,97.00
2025-06-06 15:20:35.657329,599617581186490181,92.00
2025-06-06 15:20:35.657329,599617581186490181,94.00
2025-06-06 15:20:35.657329,599617581186490181,92.00
2025-06-06 15:20:35.657329,599617581186490181,92.00
2025-06-06 15:20:35.657329,599617581186490181,99.00
2025-06-06 15:20:35.657329,599617581186490181,24.00
2025-06-06 15:20:35.657329,599617581186490181,-313.00
2025-06-06 15:20:35.657329,599617581186490181,-868.00
2025-06-06 15:20:35.657329,599617581186490181,-1284.00
2025-06-06 15:20:35.657329,599617581186490181,-1277.00
2025-06-06 15:20:35.657329,599617581186490181,-729.00
2025-06-06 15:20:35.657329,599617581186490181,94.00
2025-06-06 15:20:35.657329,599617581186490181,408.00
2025-06-06 15:20:35.657329,599617581186490181,85.00
2025-06-06 15:20:35.657329,599617581186490181,-38.00
2025-06-06 15:20:35.657329,599617581186490181,131.00
2025-06-06 15:20:35.657329,599617581186490181,114.00
2025-06-06 15:20:35.657329,599617581186490181,24.00
2025-06-06 15:20:35.657329,599617581186490181,21.00
2025-06-06 15:20:35.657329,599617581186490181,9.00
2025-06-06 15:20:35.657329,599617581186490181,-26.00
2025-06-06 15:20:35.657329,599617581186490181,-51.00
2025-06-06 15:20:35.657329,599617581186490181,-63.00
2025-06-06 15:20:35.657329,599617581186490181,-82.00
2025-06-06 15:20:35.657329,599617581186490181,-119.00
2025-06-06 15:20:35.657329,599617581186490181,-165.00
2025-06-06 15:20:35.657329,599617581186490181,-214.00
2025-06-06 15:20:35.657329,599617581186490181,-221.00
2025-06-06 15:20:35.657329,599617581186490181,-221.00
2025-06-06 15:20:35.657329,599617581186490181,-270.00
2025-06-06 15:20:35.657329,599617581186490181,-328.00
2025-06-06 15:20:35.657329,599617581186490181,-352.00
2025-06-06 15:20:35.657329,599617581186490181,-357.00
2025-06-06 15:20:35.657329,599617581186490181,-399.00
2025-06-06 15:20:35.657329,599617581186490181,-452.00
2025-06-06 15:20:35.657329,599617581186490181,-455.00
2025-06-06 15:20:35.657329,599617581186490181,-440.00
2025-06-06 15:20:35.657329,599617581186490181,-440.00
2025-06-06 15:20:35.657329,599617581186490181,-399.00
2025-06-06 15:20:35.657329,599617581186490181,-304.00
2025-06-06 15:20:35.657329,599617581186490181,-187.00
2025-06-06 15:20:35.657329,599617581186490181,-68.00
2025-06-06 15:20:35.657329,599617581186490181,26.00
2025-06-06 15:20:35.657329,599617581186490181,90.00
2025-06-06 15:20:35.657329,599617581186490181,145.00
2025-06-06 15:20:35.657329,599617581186490181,180.00
2025-06-06 15:20:35.657329,599617581186490181,172.00
2025-06-06 15:20:35.657329,599617581186490181,175.00
2025-06-06 15:20:35.657329,599617581186490181,221.00
2025-06-06 15:20:35.657329,599617581186490181,257.00
2025-06-06 15:20:35.657329,599617581186490181,228.00
2025-06-06 15:20:35.657329,599617581186490181,165.00
2025-06-06 15:20:35.657329,599617581186490181,172.00
2025-06-06 15:20:35.657329,599617581186490181,218.00
2025-06-06 15:20:35.657329,599617581186490181,163.00
2025-06-06 15:20:35.657329,599617581186490181,90.00
2025-06-06 15:20:35.657329,599617581186490181,109.00
2025-06-06 15:20:35.657329,599617581186490181,136.00
2025-06-06 15:20:35.657329,599617581186490181,153.00
2025-06-06 15:20:35.657329,599617581186490181,143.00
2025-06-06 15:20:35.657329,599617581186490181,58.00
2025-06-06 15:20:35.657329,599617581186490181,43.00
2025-06-06 15:20:35.657329,599617581186490181,133.00
2025-06-06 15:20:36.196079,599617581747248258,128.00
2025-06-06 15:20:36.196079,599617581747248258,63.00
2025-06-06 15:20:36.196079,599617581747248258,68.00
2025-06-06 15:20:36.196079,599617581747248258,107.00
2025-06-06 15:20:36.196079,599617581747248258,126.00
2025-06-06 15:20:36.196079,599617581747248258,121.00
2025-06-06 15:20:36.196079,599617581747248258,107.00
2025-06-06 15:20:36.196079,599617581747248258,97.00
2025-06-06 15:20:36.196079,599617581747248258,75.00
2025-06-06 15:20:36.196079,599617581747248258,75.00
2025-06-06 15:20:36.196079,599617581747248258,92.00
2025-06-06 15:20:36.196079,599617581747248258,94.00
2025-06-06 15:20:36.196079,599617581747248258,92.00
2025-06-06 15:20:36.196079,599617581747248258,80.00
2025-06-06 15:20:36.196079,599617581747248258,55.00
2025-06-06 15:20:36.196079,599617581747248258,41.00
2025-06-06 15:20:36.196079,599617581747248258,46.00
2025-06-06 15:20:36.196079,599617581747248258,82.00
2025-06-06 15:20:36.196079,599617581747248258,90.00
2025-06-06 15:20:36.196079,599617581747248258,46.00
2025-06-06 15:20:36.196079,599617581747248258,14.00
2025-06-06 15:20:36.196079,599617581747248258,7.00
2025-06-06 15:20:36.196079,599617581747248258,36.00
2025-06-06 15:20:36.196079,599617581747248258,72.00
2025-06-06 15:20:36.196079,599617581747248258,63.00
2025-06-06 15:20:36.196079,599617581747248258,60.00
2025-06-06 15:20:36.196079,599617581747248258,77.00
2025-06-06 15:20:36.196079,599617581747248258,68.00
2025-06-06 15:20:36.196079,599617581747248258,53.00
2025-06-06 15:20:36.196079,599617581747248258,46.00
2025-06-06 15:20:36.196079,599617581747248258,63.00
2025-06-06 15:20:36.196079,599617581747248258,87.00
2025-06-06 15:20:36.196079,599617581747248258,63.00
2025-06-06 15:20:36.196079,599617581747248258,36.00
2025-06-06 15:20:36.196079,599617581747248258,51.00
2025-06-06 15:20:36.196079,599617581747248258,-12.00
2025-06-06 15:20:36.196079,599617581747248258,-343.00
2025-06-06 15:20:36.196079,599617581747248258,-883.00
2025-06-06 15:20:36.196079,599617581747248258,-1335.00
2025-06-06 15:20:36.196079,599617581747248258,-1394.00
2025-06-06 15:20:36.196079,599617581747248258,-861.00
2025-06-06 15:20:36.196079,599617581747248258,2.00
2025-06-06 15:20:36.196079,599617581747248258,369.00
2025-06-06 15:20:36.196079,599617581747248258,65.00
2025-06-06 15:20:36.196079,599617581747248258,-68.00
2025-06-06 15:20:36.196079,599617581747248258,99.00
2025-06-06 15:20:36.196079,599617581747248258,97.00
2025-06-06 15:20:36.196079,599617581747248258,17.00
2025-06-06 15:20:36.196079,599617581747248258,0.00
2025-06-06 15:20:36.196079,599617581747248258,-29.00
2025-06-06 15:20:36.196079,599617581747248258,-26.00
2025-06-06 15:20:36.196079,599617581747248258,-7.00
2025-06-06 15:20:36.196079,599617581747248258,-63.00
2025-06-06 15:20:36.196079,599617581747248258,-111.00
2025-06-06 15:20:36.196079,599617581747248258,-111.00
2025-06-06 15:20:36.196079,599617581747248258,-138.00
2025-06-06 15:20:36.196079,599617581747248258,-189.00
2025-06-06 15:20:36.196079,599617581747248258,-218.00
2025-06-06 15:20:36.196079,599617581747248258,-245.00
2025-06-06 15:20:36.196079,599617581747248258,-279.00
2025-06-06 15:20:36.196079,599617581747248258,-318.00
2025-06-06 15:20:36.196079,599617581747248258,-355.00
2025-06-06 15:20:36.196079,599617581747248258,-386.00
2025-06-06 15:20:36.196079,599617581747248258,-411.00
2025-06-06 15:20:36.196079,599617581747248258,-425.00
2025-06-06 15:20:36.196079,599617581747248258,-430.00
2025-06-06 15:20:36.196079,599617581747248258,-428.00
2025-06-06 15:20:36.196079,599617581747248258,-413.00
2025-06-06 15:20:36.196079,599617581747248258,-377.00
2025-06-06 15:20:36.196079,599617581747248258,-306.00
2025-06-06 15:20:36.196079,599617581747248258,-206.00
2025-06-06 15:20:36.196079,599617581747248258,-97.00
2025-06-06 15:20:36.196079,599617581747248258,-2.00
2025-06-06 15:20:36.735523,599617582308036853,68.00
2025-06-06 15:20:36.735523,599617582308036853,138.00
2025-06-06 15:20:36.735523,599617582308036853,199.00
2025-06-06 15:20:36.735523,599617582308036853,223.00
2025-06-06 15:20:36.735523,599617582308036853,238.00
2025-06-06 15:20:36.735523,599617582308036853,250.00
2025-06-06 15:20:36.735523,599617582308036853,236.00
2025-06-06 15:20:36.735523,599617582308036853,218.00
2025-06-06 15:20:36.735523,599617582308036853,211.00
2025-06-06 15:20:36.735523,599617582308036853,201.00
2025-06-06 15:20:36.735523,599617582308036853,184.00
2025-06-06 15:20:36.735523,599617582308036853,170.00
2025-06-06 15:20:36.735523,599617582308036853,158.00
2025-06-06 15:20:36.735523,599617582308036853,150.00
2025-06-06 15:20:36.735523,599617582308036853,148.00
2025-06-06 15:20:36.735523,599617582308036853,138.00
2025-06-06 15:20:36.735523,599617582308036853,131.00
2025-06-06 15:20:36.735523,599617582308036853,131.00
2025-06-06 15:20:36.735523,599617582308036853,128.00
2025-06-06 15:20:36.735523,599617582308036853,124.00
2025-06-06 15:20:36.735523,599617582308036853,131.00
2025-06-06 15:20:36.735523,599617582308036853,136.00
2025-06-06 15:20:36.735523,599617582308036853,128.00
2025-06-06 15:20:36.735523,599617582308036853,121.00
2025-06-06 15:20:36.735523,599617582308036853,126.00
2025-06-06 15:20:36.735523,599617582308036853,128.00
2025-06-06 15:20:36.735523,599617582308036853,126.00
2025-06-06 15:20:36.735523,599617582308036853,131.00
2025-06-06 15:20:36.735523,599617582308036853,131.00
2025-06-06 15:20:36.735523,599617582308036853,114.00
2025-06-06 15:20:36.735523,599617582308036853,102.00
2025-06-06 15:20:36.735523,599617582308036853,102.00
2025-06-06 15:20:36.735523,599617582308036853,99.00
2025-06-06 15:20:36.735523,599617582308036853,92.00
2025-06-06 15:20:36.735523,599617582308036853,87.00
2025-06-06 15:20:36.735523,599617582308036853,82.00
2025-06-06 15:20:36.735523,599617582308036853,65.00
2025-06-06 15:20:36.735523,599617582308036853,51.00
2025-06-06 15:20:36.735523,599617582308036853,53.00
2025-06-06 15:20:36.735523,599617582308036853,58.00
2025-06-06 15:20:36.735523,599617582308036853,43.00
2025-06-06 15:20:36.735523,599617582308036853,9.00
2025-06-06 15:20:36.735523,599617582308036853,4.00
2025-06-06 15:20:36.735523,599617582308036853,48.00
2025-06-06 15:20:36.735523,599617582308036853,82.00
2025-06-06 15:20:36.735523,599617582308036853,63.00
2025-06-06 15:20:36.735523,599617582308036853,46.00
2025-06-06 15:20:36.735523,599617582308036853,65.00
2025-06-06 15:20:36.735523,599617582308036853,72.00
2025-06-06 15:20:36.735523,599617582308036853,51.00
2025-06-06 15:20:36.735523,599617582308036853,43.00
2025-06-06 15:20:36.735523,599617582308036853,55.00
2025-06-06 15:20:36.735523,599617582308036853,53.00
2025-06-06 15:20:36.735523,599617582308036853,43.00
2025-06-06 15:20:36.735523,599617582308036853,43.00
2025-06-06 15:20:36.735523,599617582308036853,46.00
2025-06-06 15:20:36.735523,599617582308036853,29.00
2025-06-06 15:20:36.735523,599617582308036853,-111.00
2025-06-06 15:20:36.735523,599617582308036853,-479.00
2025-06-06 15:20:36.735523,599617582308036853,-958.00
2025-06-06 15:20:36.735523,599617582308036853,-1340.00
2025-06-06 15:20:36.735523,599617582308036853,-1282.00
2025-06-06 15:20:36.735523,599617582308036853,-569.00
2025-06-06 15:20:36.735523,599617582308036853,218.00
2025-06-06 15:20:36.735523,599617582308036853,279.00
2025-06-06 15:20:36.735523,599617582308036853,-53.00
2025-06-06 15:20:36.735523,599617582308036853,-9.00
2025-06-06 15:20:36.735523,599617582308036853,138.00
2025-06-06 15:20:36.735523,599617582308036853,43.00
2025-06-06 15:20:36.735523,599617582308036853,-9.00
2025-06-06 15:20:36.735523,599617582308036853,31.00
2025-06-06 15:20:36.735523,599617582308036853,4.00
2025-06-06 15:20:36.735523,599617582308036853,-48.00
2025-06-06 15:20:37.305570,599617582868794930,-68.00
2025-06-06 15:20:37.305570,599617582868794930,-80.00
2025-06-06 15:20:37.305570,599617582868794930,-109.00
2025-06-06 15:20:37.305570,599617582868794930,-141.00
2025-06-06 15:20:37.305570,599617582868794930,-163.00
2025-06-06 15:20:37.305570,599617582868794930,-187.00
2025-06-06 15:20:37.305570,599617582868794930,-221.00
2025-06-06 15:20:37.305570,599617582868794930,-257.00
2025-06-06 15:20:37.305570,599617582868794930,-289.00
2025-06-06 15:20:37.305570,599617582868794930,-318.00
2025-06-06 15:20:37.305570,599617582868794930,-352.00
2025-06-06 15:20:37.305570,599617582868794930,-384.00
2025-06-06 15:20:37.305570,599617582868794930,-403.00
2025-06-06 15:20:37.305570,599617582868794930,-411.00
2025-06-06 15:20:37.305570,599617582868794930,-420.00
2025-06-06 15:20:37.305570,599617582868794930,-418.00
2025-06-06 15:20:37.305570,599617582868794930,-391.00
2025-06-06 15:20:37.305570,599617582868794930,-345.00
2025-06-06 15:20:37.305570,599617582868794930,-272.00
2025-06-06 15:20:37.305570,599617582868794930,-180.00
2025-06-06 15:20:37.305570,599617582868794930,-80.00
2025-06-06 15:20:37.305570,599617582868794930,19.00
2025-06-06 15:20:37.305570,599617582868794930,99.00
2025-06-06 15:20:37.305570,599617582868794930,158.00
2025-06-06 15:20:37.305570,599617582868794930,197.00
2025-06-06 15:20:37.305570,599617582868794930,216.00
2025-06-06 15:20:37.305570,599617582868794930,221.00
2025-06-06 15:20:37.305570,599617582868794930,223.00
2025-06-06 15:20:37.305570,599617582868794930,211.00
2025-06-06 15:20:37.305570,599617582868794930,197.00
2025-06-06 15:20:37.305570,599617582868794930,201.00
2025-06-06 15:20:37.305570,599617582868794930,197.00
2025-06-06 15:20:37.305570,599617582868794930,175.00
2025-06-06 15:20:37.305570,599617582868794930,167.00
2025-06-06 15:20:37.305570,599617582868794930,165.00
2025-06-06 15:20:37.305570,599617582868794930,145.00
2025-06-06 15:20:37.305570,599617582868794930,143.00
2025-06-06 15:20:37.305570,599617582868794930,153.00
2025-06-06 15:20:37.305570,599617582868794930,148.00
2025-06-06 15:20:37.305570,599617582868794930,128.00
2025-06-06 15:20:37.305570,599617582868794930,119.00
2025-06-06 15:20:37.305570,599617582868794930,116.00
2025-06-06 15:20:37.305570,599617582868794930,119.00
2025-06-06 15:20:37.305570,599617582868794930,128.00
2025-06-06 15:20:37.305570,599617582868794930,128.00
2025-06-06 15:20:37.305570,599617582868794930,128.00
2025-06-06 15:20:37.305570,599617582868794930,128.00
2025-06-06 15:20:37.305570,599617582868794930,124.00
2025-06-06 15:20:37.305570,599617582868794930,124.00
2025-06-06 15:20:37.305570,599617582868794930,133.00
2025-06-06 15:20:37.305570,599617582868794930,128.00
2025-06-06 15:20:37.305570,599617582868794930,111.00
2025-06-06 15:20:37.305570,599617582868794930,102.00
2025-06-06 15:20:37.305570,599617582868794930,104.00
2025-06-06 15:20:37.305570,599617582868794930,107.00
2025-06-06 15:20:37.305570,599617582868794930,99.00
2025-06-06 15:20:37.305570,599617582868794930,92.00
2025-06-06 15:20:37.305570,599617582868794930,90.00
2025-06-06 15:20:37.305570,599617582868794930,85.00
2025-06-06 15:20:37.305570,599617582868794930,80.00
2025-06-06 15:20:37.305570,599617582868794930,70.00
2025-06-06 15:20:37.305570,599617582868794930,51.00
2025-06-06 15:20:37.305570,599617582868794930,38.00
2025-06-06 15:20:37.305570,599617582868794930,46.00
2025-06-06 15:20:37.305570,599617582868794930,36.00
2025-06-06 15:20:37.305570,599617582868794930,7.00
2025-06-06 15:20:37.305570,599617582868794930,2.00
2025-06-06 15:20:37.305570,599617582868794930,43.00
2025-06-06 15:20:37.305570,599617582868794930,72.00
2025-06-06 15:20:37.305570,599617582868794930,65.00
2025-06-06 15:20:37.305570,599617582868794930,63.00
2025-06-06 15:20:37.305570,599617582868794930,58.00
2025-06-06 15:20:37.305570,599617582868794930,46.00
2025-06-06 15:20:37.844622,599617583429583525,46.00
2025-06-06 15:20:37.844622,599617583429583525,53.00
2025-06-06 15:20:37.844622,599617583429583525,55.00
2025-06-06 15:20:37.844622,599617583429583525,51.00
2025-06-06 15:20:37.844622,599617583429583525,46.00
2025-06-06 15:20:37.844622,599617583429583525,41.00
2025-06-06 15:20:37.844622,599617583429583525,48.00
2025-06-06 15:20:37.844622,599617583429583525,51.00
2025-06-06 15:20:37.844622,599617583429583525,-126.00
2025-06-06 15:20:37.844622,599617583429583525,-591.00
2025-06-06 15:20:37.844622,599617583429583525,-1129.00
2025-06-06 15:20:37.844622,599617583429583525,-1442.00
2025-06-06 15:20:37.844622,599617583429583525,-1219.00
2025-06-06 15:20:37.844622,599617583429583525,-350.00
2025-06-06 15:20:37.844622,599617583429583525,360.00
2025-06-06 15:20:37.844622,599617583429583525,204.00
2025-06-06 15:20:37.844622,599617583429583525,-107.00
2025-06-06 15:20:37.844622,599617583429583525,43.00
2025-06-06 15:20:37.844622,599617583429583525,150.00
2025-06-06 15:20:37.844622,599617583429583525,29.00
2025-06-06 15:20:37.844622,599617583429583525,4.00
2025-06-06 15:20:37.844622,599617583429583525,36.00
2025-06-06 15:20:37.844622,599617583429583525,-7.00
2025-06-06 15:20:37.844622,599617583429583525,-41.00
2025-06-06 15:20:37.844622,599617583429583525,-43.00
2025-06-06 15:20:37.844622,599617583429583525,-75.00
2025-06-06 15:20:37.844622,599617583429583525,-111.00
2025-06-06 15:20:37.844622,599617583429583525,-138.00
2025-06-06 15:20:37.844622,599617583429583525,-165.00
2025-06-06 15:20:37.844622,599617583429583525,-192.00
2025-06-06 15:20:37.844622,599617583429583525,-221.00
2025-06-06 15:20:37.844622,599617583429583525,-248.00
2025-06-06 15:20:37.844622,599617583429583525,-272.00
2025-06-06 15:20:37.844622,599617583429583525,-311.00
2025-06-06 15:20:37.844622,599617583429583525,-347.00
2025-06-06 15:20:37.844622,599617583429583525,-350.00
2025-06-06 15:20:37.844622,599617583429583525,-357.00
2025-06-06 15:20:37.844622,599617583429583525,-377.00
2025-06-06 15:20:37.844622,599617583429583525,-379.00
2025-06-06 15:20:37.844622,599617583429583525,-364.00
2025-06-06 15:20:37.844622,599617583429583525,-335.00
2025-06-06 15:20:37.844622,599617583429583525,-296.00
2025-06-06 15:20:37.844622,599617583429583525,-243.00
2025-06-06 15:20:37.844622,599617583429583525,-155.00
2025-06-06 15:20:37.844622,599617583429583525,-65.00
2025-06-06 15:20:37.844622,599617583429583525,14.00
2025-06-06 15:20:37.844622,599617583429583525,92.00
2025-06-06 15:20:37.844622,599617583429583525,145.00
2025-06-06 15:20:37.844622,599617583429583525,180.00
2025-06-06 15:20:37.844622,599617583429583525,209.00
2025-06-06 15:20:37.844622,599617583429583525,209.00
2025-06-06 15:20:37.844622,599617583429583525,197.00
2025-06-06 15:20:37.844622,599617583429583525,201.00
2025-06-06 15:20:37.844622,599617583429583525,197.00
2025-06-06 15:20:37.844622,599617583429583525,182.00
2025-06-06 15:20:37.844622,599617583429583525,170.00
2025-06-06 15:20:37.844622,599617583429583525,158.00
2025-06-06 15:20:37.844622,599617583429583525,145.00
2025-06-06 15:20:37.844622,599617583429583525,141.00
2025-06-06 15:20:37.844622,599617583429583525,136.00
2025-06-06 15:20:37.844622,599617583429583525,119.00
2025-06-06 15:20:37.844622,599617583429583525,104.00
2025-06-06 15:20:37.844622,599617583429583525,107.00
2025-06-06 15:20:37.844622,599617583429583525,107.00
2025-06-06 15:20:37.844622,599617583429583525,102.00
2025-06-06 15:20:37.844622,599617583429583525,111.00
2025-06-06 15:20:37.844622,599617583429583525,111.00
2025-06-06 15:20:37.844622,599617583429583525,97.00
2025-06-06 15:20:37.844622,599617583429583525,99.00
2025-06-06 15:20:37.844622,599617583429583525,109.00
2025-06-06 15:20:37.844622,599617583429583525,109.00
2025-06-06 15:20:37.844622,599617583429583525,109.00
2025-06-06 15:20:37.844622,599617583429583525,104.00
2025-06-06 15:20:38.415801,599617583990341602,102.00
2025-06-06 15:20:38.415801,599617583990341602,109.00
2025-06-06 15:20:38.415801,599617583990341602,102.00
2025-06-06 15:20:38.415801,599617583990341602,77.00
2025-06-06 15:20:38.415801,599617583990341602,77.00
2025-06-06 15:20:38.415801,599617583990341602,94.00
2025-06-06 15:20:38.415801,599617583990341602,97.00
2025-06-06 15:20:38.415801,599617583990341602,94.00
2025-06-06 15:20:38.415801,599617583990341602,82.00
2025-06-06 15:20:38.415801,599617583990341602,58.00
2025-06-06 15:20:38.415801,599617583990341602,55.00
2025-06-06 15:20:38.415801,599617583990341602,51.00
2025-06-06 15:20:38.415801,599617583990341602,36.00
2025-06-06 15:20:38.415801,599617583990341602,36.00
2025-06-06 15:20:38.415801,599617583990341602,38.00
2025-06-06 15:20:38.415801,599617583990341602,14.00
2025-06-06 15:20:38.415801,599617583990341602,-12.00
2025-06-06 15:20:38.415801,599617583990341602,0.00
2025-06-06 15:20:38.415801,599617583990341602,43.00
2025-06-06 15:20:38.415801,599617583990341602,55.00
2025-06-06 15:20:38.415801,599617583990341602,38.00
2025-06-06 15:20:38.415801,599617583990341602,38.00
2025-06-06 15:20:38.415801,599617583990341602,43.00
2025-06-06 15:20:38.415801,599617583990341602,36.00
2025-06-06 15:20:38.415801,599617583990341602,29.00
2025-06-06 15:20:38.415801,599617583990341602,31.00
2025-06-06 15:20:38.415801,599617583990341602,36.00
2025-06-06 15:20:38.415801,599617583990341602,38.00
2025-06-06 15:20:38.415801,599617583990341602,43.00
2025-06-06 15:20:38.415801,599617583990341602,43.00
2025-06-06 15:20:38.415801,599617583990341602,34.00
2025-06-06 15:20:38.415801,599617583990341602,-38.00
2025-06-06 15:20:38.415801,599617583990341602,-343.00
2025-06-06 15:20:38.415801,599617583990341602,-883.00
2025-06-06 15:20:38.415801,599617583990341602,-1389.00
2025-06-06 15:20:38.415801,599617583990341602,-1528.00
2025-06-06 15:20:38.415801,599617583990341602,-966.00
2025-06-06 15:20:38.415801,599617583990341602,26.00
2025-06-06 15:20:38.415801,599617583990341602,399.00
2025-06-06 15:20:38.415801,599617583990341602,24.00
2025-06-06 15:20:38.415801,599617583990341602,-82.00
2025-06-06 15:20:38.415801,599617583990341602,131.00
2025-06-06 15:20:38.415801,599617583990341602,94.00
2025-06-06 15:20:38.415801,599617583990341602,0.00
2025-06-06 15:20:38.415801,599617583990341602,34.00
2025-06-06 15:20:38.415801,599617583990341602,29.00
2025-06-06 15:20:38.415801,599617583990341602,-19.00
2025-06-06 15:20:38.415801,599617583990341602,-31.00
2025-06-06 15:20:38.415801,599617583990341602,-48.00
2025-06-06 15:20:38.415801,599617583990341602,-80.00
2025-06-06 15:20:38.415801,599617583990341602,-107.00
2025-06-06 15:20:38.415801,599617583990341602,-133.00
2025-06-06 15:20:38.415801,599617583990341602,-163.00
2025-06-06 15:20:38.415801,599617583990341602,-192.00
2025-06-06 15:20:38.415801,599617583990341602,-218.00
2025-06-06 15:20:38.415801,599617583990341602,-240.00
2025-06-06 15:20:38.415801,599617583990341602,-262.00
2025-06-06 15:20:38.415801,599617583990341602,-291.00
2025-06-06 15:20:38.415801,599617583990341602,-326.00
2025-06-06 15:20:38.415801,599617583990341602,-335.00
2025-06-06 15:20:38.415801,599617583990341602,-338.00
2025-06-06 15:20:38.415801,599617583990341602,-347.00
2025-06-06 15:20:38.415801,599617583990341602,-350.00
2025-06-06 15:20:38.415801,599617583990341602,-321.00
2025-06-06 15:20:38.415801,599617583990341602,-279.00
2025-06-06 15:20:38.415801,599617583990341602,-248.00
2025-06-06 15:20:38.415801,599617583990341602,-192.00
2025-06-06 15:20:38.415801,599617583990341602,-99.00
2025-06-06 15:20:38.415801,599617583990341602,-19.00
2025-06-06 15:20:38.415801,599617583990341602,46.00
2025-06-06 15:20:38.415801,599617583990341602,116.00
2025-06-06 15:20:38.415801,599617583990341602,163.00
2025-06-06 15:20:38.415801,599617583990341602,177.00
2025-06-06 15:20:39.044611,599617584551130199,194.00
2025-06-06 15:20:39.044611,599617584551130199,206.00
2025-06-06 15:20:39.044611,599617584551130199,201.00
2025-06-06 15:20:39.044611,599617584551130199,194.00
2025-06-06 15:20:39.044611,599617584551130199,177.00
2025-06-06 15:20:39.044611,599617584551130199,165.00
2025-06-06 15:20:39.044611,599617584551130199,170.00
2025-06-06 15:20:39.044611,599617584551130199,160.00
2025-06-06 15:20:39.044611,599617584551130199,133.00
2025-06-06 15:20:39.044611,599617584551130199,126.00
2025-06-06 15:20:39.044611,599617584551130199,133.00
2025-06-06 15:20:39.044611,599617584551130199,124.00
2025-06-06 15:20:39.044611,599617584551130199,104.00
2025-06-06 15:20:39.044611,599617584551130199,104.00
2025-06-06 15:20:39.044611,599617584551130199,107.00
2025-06-06 15:20:39.044611,599617584551130199,104.00
2025-06-06 15:20:39.044611,599617584551130199,109.00
2025-06-06 15:20:39.044611,599617584551130199,104.00
2025-06-06 15:20:39.044611,599617584551130199,99.00
2025-06-06 15:20:39.044611,599617584551130199,102.00
2025-06-06 15:20:39.044611,599617584551130199,109.00
2025-06-06 15:20:39.044611,599617584551130199,104.00
2025-06-06 15:20:39.044611,599617584551130199,92.00
2025-06-06 15:20:39.044611,599617584551130199,97.00
2025-06-06 15:20:39.044611,599617584551130199,99.00
2025-06-06 15:20:39.044611,599617584551130199,87.00
2025-06-06 15:20:39.044611,599617584551130199,75.00
2025-06-06 15:20:39.044611,599617584551130199,82.00
2025-06-06 15:20:39.044611,599617584551130199,92.00
2025-06-06 15:20:39.044611,599617584551130199,87.00
2025-06-06 15:20:39.044611,599617584551130199,75.00
2025-06-06 15:20:39.044611,599617584551130199,70.00
2025-06-06 15:20:39.044611,599617584551130199,70.00
2025-06-06 15:20:39.044611,599617584551130199,60.00
2025-06-06 15:20:39.044611,599617584551130199,43.00
2025-06-06 15:20:39.044611,599617584551130199,41.00
2025-06-06 15:20:39.044611,599617584551130199,38.00
2025-06-06 15:20:39.044611,599617584551130199,14.00
2025-06-06 15:20:39.044611,599617584551130199,-9.00
2025-06-06 15:20:39.044611,599617584551130199,-4.00
2025-06-06 15:20:39.044611,599617584551130199,26.00
2025-06-06 15:20:39.044611,599617584551130199,53.00
2025-06-06 15:20:39.044611,599617584551130199,51.00
2025-06-06 15:20:39.044611,599617584551130199,41.00
2025-06-06 15:20:39.044611,599617584551130199,48.00
2025-06-06 15:20:39.044611,599617584551130199,58.00
2025-06-06 15:20:39.044611,599617584551130199,48.00
2025-06-06 15:20:39.044611,599617584551130199,31.00
2025-06-06 15:20:39.044611,599617584551130199,29.00
2025-06-06 15:20:39.044611,599617584551130199,38.00
2025-06-06 15:20:39.044611,599617584551130199,41.00
2025-06-06 15:20:39.044611,599617584551130199,34.00
2025-06-06 15:20:39.044611,599617584551130199,38.00
2025-06-06 15:20:39.044611,599617584551130199,19.00
2025-06-06 15:20:39.044611,599617584551130199,-209.00
2025-06-06 15:20:39.044611,599617584551130199,-727.00
2025-06-06 15:20:39.044611,599617584551130199,-1282.00
2025-06-06 15:20:39.044611,599617584551130199,-1547.00
2025-06-06 15:20:39.044611,599617584551130199,-1160.00
2025-06-06 15:20:39.044611,599617584551130199,-158.00
2025-06-06 15:20:39.044611,599617584551130199,425.00
2025-06-06 15:20:39.044611,599617584551130199,109.00
2025-06-06 15:20:39.044611,599617584551130199,-116.00
2025-06-06 15:20:39.044611,599617584551130199,92.00
2025-06-06 15:20:39.044611,599617584551130199,126.00
2025-06-06 15:20:39.044611,599617584551130199,12.00
2025-06-06 15:20:39.044611,599617584551130199,24.00
2025-06-06 15:20:39.044611,599617584551130199,31.00
2025-06-06 15:20:39.044611,599617584551130199,-12.00
2025-06-06 15:20:39.044611,599617584551130199,-29.00
2025-06-06 15:20:39.044611,599617584551130199,-41.00
2025-06-06 15:20:39.044611,599617584551130199,-75.00
2025-06-06 15:20:39.044611,599617584551130199,-107.00
2025-06-06 15:20:39.556297,599617585111898448,-128.00
2025-06-06 15:20:39.556297,599617585111898448,-150.00
2025-06-06 15:20:39.556297,599617585111898448,-180.00
2025-06-06 15:20:39.556297,599617585111898448,-214.00
2025-06-06 15:20:39.556297,599617585111898448,-240.00
2025-06-06 15:20:39.556297,599617585111898448,-260.00
2025-06-06 15:20:39.556297,599617585111898448,-287.00
2025-06-06 15:20:39.556297,599617585111898448,-309.00
2025-06-06 15:20:39.556297,599617585111898448,-321.00
2025-06-06 15:20:39.556297,599617585111898448,-328.00
2025-06-06 15:20:39.556297,599617585111898448,-323.00
2025-06-06 15:20:39.556297,599617585111898448,-313.00
2025-06-06 15:20:39.556297,599617585111898448,-313.00
2025-06-06 15:20:39.556297,599617585111898448,-296.00
2025-06-06 15:20:39.556297,599617585111898448,-255.00
2025-06-06 15:20:39.556297,599617585111898448,-201.00
2025-06-06 15:20:39.556297,599617585111898448,-124.00
2025-06-06 15:20:39.556297,599617585111898448,-31.00
2025-06-06 15:20:39.556297,599617585111898448,41.00
2025-06-06 15:20:39.556297,599617585111898448,92.00
2025-06-06 15:20:39.556297,599617585111898448,128.00
2025-06-06 15:20:39.556297,599617585111898448,155.00
2025-06-06 15:20:39.556297,599617585111898448,177.00
2025-06-06 15:20:39.556297,599617585111898448,194.00
2025-06-06 15:20:39.556297,599617585111898448,192.00
2025-06-06 15:20:39.556297,599617585111898448,184.00
2025-06-06 15:20:39.556297,599617585111898448,180.00
2025-06-06 15:20:39.556297,599617585111898448,165.00
2025-06-06 15:20:39.556297,599617585111898448,148.00
2025-06-06 15:20:39.556297,599617585111898448,136.00
2025-06-06 15:20:39.556297,599617585111898448,131.00
2025-06-06 15:20:39.556297,599617585111898448,126.00
2025-06-06 15:20:39.556297,599617585111898448,114.00
2025-06-06 15:20:39.556297,599617585111898448,102.00
2025-06-06 15:20:39.556297,599617585111898448,99.00
2025-06-06 15:20:39.556297,599617585111898448,97.00
2025-06-06 15:20:39.556297,599617585111898448,99.00
2025-06-06 15:20:39.556297,599617585111898448,104.00
2025-06-06 15:20:39.556297,599617585111898448,102.00
2025-06-06 15:20:39.556297,599617585111898448,90.00
2025-06-06 15:20:39.556297,599617585111898448,85.00
2025-06-06 15:20:39.556297,599617585111898448,94.00
2025-06-06 15:20:39.556297,599617585111898448,94.00
2025-06-06 15:20:39.556297,599617585111898448,92.00
2025-06-06 15:20:39.556297,599617585111898448,94.00
2025-06-06 15:20:39.556297,599617585111898448,92.00
2025-06-06 15:20:39.556297,599617585111898448,90.00
2025-06-06 15:20:39.556297,599617585111898448,94.00
2025-06-06 15:20:39.556297,599617585111898448,92.00
2025-06-06 15:20:39.556297,599617585111898448,77.00
2025-06-06 15:20:39.556297,599617585111898448,75.00
2025-06-06 15:20:39.556297,599617585111898448,75.00
2025-06-06 15:20:39.556297,599617585111898448,70.00
2025-06-06 15:20:39.556297,599617585111898448,60.00
2025-06-06 15:20:39.556297,599617585111898448,43.00
2025-06-06 15:20:39.556297,599617585111898448,29.00
2025-06-06 15:20:39.556297,599617585111898448,38.00
2025-06-06 15:20:39.556297,599617585111898448,36.00
2025-06-06 15:20:39.556297,599617585111898448,0.00
2025-06-06 15:20:39.556297,599617585111898448,-14.00
2025-06-06 15:20:39.556297,599617585111898448,19.00
2025-06-06 15:20:39.556297,599617585111898448,55.00
2025-06-06 15:20:39.556297,599617585111898448,55.00
2025-06-06 15:20:39.556297,599617585111898448,51.00
2025-06-06 15:20:39.556297,599617585111898448,53.00
2025-06-06 15:20:39.556297,599617585111898448,51.00
2025-06-06 15:20:39.556297,599617585111898448,43.00
2025-06-06 15:20:39.556297,599617585111898448,41.00
2025-06-06 15:20:39.556297,599617585111898448,43.00
2025-06-06 15:20:39.556297,599617585111898448,41.00
2025-06-06 15:20:39.556297,599617585111898448,36.00
2025-06-06 15:20:39.556297,599617585111898448,31.00
2025-06-06 15:20:39.556297,599617585111898448,36.00
2025-06-06 15:20:40.126317,599617585672692129,34.00
2025-06-06 15:20:40.126317,599617585672692129,-128.00
2025-06-06 15:20:40.126317,599617585672692129,-596.00
2025-06-06 15:20:40.126317,599617585672692129,-1172.00
2025-06-06 15:20:40.126317,599617585672692129,-1520.00
2025-06-06 15:20:40.126317,599617585672692129,-1287.00
2025-06-06 15:20:40.126317,599617585672692129,-355.00
2025-06-06 15:20:40.126317,599617585672692129,401.00
2025-06-06 15:20:40.126317,599617585672692129,209.00
2025-06-06 15:20:40.126317,599617585672692129,-128.00
2025-06-06 15:20:40.126317,599617585672692129,36.00
2025-06-06 15:20:40.126317,599617585672692129,133.00
2025-06-06 15:20:40.126317,599617585672692129,12.00
2025-06-06 15:20:40.126317,599617585672692129,4.00
2025-06-06 15:20:40.126317,599617585672692129,34.00
2025-06-06 15:20:40.126317,599617585672692129,-19.00
2025-06-06 15:20:40.126317,599617585672692129,-46.00
2025-06-06 15:20:40.126317,599617585672692129,-48.00
2025-06-06 15:20:40.126317,599617585672692129,-80.00
2025-06-06 15:20:40.126317,599617585672692129,-114.00
2025-06-06 15:20:40.126317,599617585672692129,-136.00
2025-06-06 15:20:40.126317,599617585672692129,-163.00
2025-06-06 15:20:40.126317,599617585672692129,-192.00
2025-06-06 15:20:40.126317,599617585672692129,-216.00
2025-06-06 15:20:40.126317,599617585672692129,-240.00
2025-06-06 15:20:40.126317,599617585672692129,-270.00
2025-06-06 15:20:40.126317,599617585672692129,-291.00
2025-06-06 15:20:40.126317,599617585672692129,-311.00
2025-06-06 15:20:40.126317,599617585672692129,-323.00
2025-06-06 15:20:40.126317,599617585672692129,-330.00
2025-06-06 15:20:40.126317,599617585672692129,-333.00
2025-06-06 15:20:40.126317,599617585672692129,-328.00
2025-06-06 15:20:40.126317,599617585672692129,-318.00
2025-06-06 15:20:40.126317,599617585672692129,-301.00
2025-06-06 15:20:40.126317,599617585672692129,-265.00
2025-06-06 15:20:40.126317,599617585672692129,-209.00
2025-06-06 15:20:40.126317,599617585672692129,-141.00
2025-06-06 15:20:40.126317,599617585672692129,-65.00
2025-06-06 15:20:40.126317,599617585672692129,9.00
2025-06-06 15:20:40.126317,599617585672692129,77.00
2025-06-06 15:20:40.126317,599617585672692129,126.00
2025-06-06 15:20:40.126317,599617585672692129,155.00
2025-06-06 15:20:40.126317,599617585672692129,170.00
2025-06-06 15:20:40.126317,599617585672692129,182.00
2025-06-06 15:20:40.126317,599617585672692129,187.00
2025-06-06 15:20:40.126317,599617585672692129,177.00
2025-06-06 15:20:40.126317,599617585672692129,167.00
2025-06-06 15:20:40.126317,599617585672692129,158.00
2025-06-06 15:20:40.126317,599617585672692129,143.00
2025-06-06 15:20:40.126317,599617585672692129,128.00
2025-06-06 15:20:40.126317,599617585672692129,124.00
2025-06-06 15:20:40.126317,599617585672692129,116.00
2025-06-06 15:20:40.126317,599617585672692129,109.00
2025-06-06 15:20:40.126317,599617585672692129,104.00
2025-06-06 15:20:40.126317,599617585672692129,102.00
2025-06-06 15:20:40.126317,599617585672692129,97.00
2025-06-06 15:20:40.126317,599617585672692129,97.00
2025-06-06 15:20:40.126317,599617585672692129,97.00
2025-06-06 15:20:40.126317,599617585672692129,94.00
2025-06-06 15:20:40.126317,599617585672692129,94.00
2025-06-06 15:20:40.126317,599617585672692129,94.00
2025-06-06 15:20:40.126317,599617585672692129,92.00
2025-06-06 15:20:40.126317,599617585672692129,92.00
2025-06-06 15:20:40.126317,599617585672692129,97.00
2025-06-06 15:20:40.126317,599617585672692129,97.00
2025-06-06 15:20:40.126317,599617585672692129,92.00
2025-06-06 15:20:40.126317,599617585672692129,87.00
2025-06-06 15:20:40.126317,599617585672692129,85.00
2025-06-06 15:20:40.126317,599617585672692129,85.00
2025-06-06 15:20:40.126317,599617585672692129,80.00
2025-06-06 15:20:40.126317,599617585672692129,77.00
2025-06-06 15:20:40.126317,599617585672692129,72.00
2025-06-06 15:20:40.126317,599617585672692129,63.00
2025-06-06 15:20:40.666550,599617586233465466,46.00
2025-06-06 15:20:40.666550,599617586233465466,31.00
2025-06-06 15:20:40.666550,599617586233465466,34.00
2025-06-06 15:20:40.666550,599617586233465466,34.00
2025-06-06 15:20:40.666550,599617586233465466,7.00
2025-06-06 15:20:40.666550,599617586233465466,-7.00
2025-06-06 15:20:40.666550,599617586233465466,24.00
2025-06-06 15:20:40.666550,599617586233465466,60.00
2025-06-06 15:20:40.666550,599617586233465466,63.00
2025-06-06 15:20:40.666550,599617586233465466,58.00
2025-06-06 15:20:40.666550,599617586233465466,58.00
2025-06-06 15:20:40.666550,599617586233465466,51.00
2025-06-06 15:20:40.666550,599617586233465466,48.00
2025-06-06 15:20:40.666550,599617586233465466,51.00
2025-06-06 15:20:40.666550,599617586233465466,55.00
2025-06-06 15:20:40.666550,599617586233465466,48.00
2025-06-06 15:20:40.666550,599617586233465466,36.00
2025-06-06 15:20:40.666550,599617586233465466,34.00
2025-06-06 15:20:40.666550,599617586233465466,36.00
2025-06-06 15:20:40.666550,599617586233465466,0.00
2025-06-06 15:20:40.666550,599617586233465466,-245.00
2025-06-06 15:20:40.666550,599617586233465466,-788.00
2025-06-06 15:20:40.666550,599617586233465466,-1318.00
2025-06-06 15:20:40.666550,599617586233465466,-1491.00
2025-06-06 15:20:40.666550,599617586233465466,-1080.00
2025-06-06 15:20:40.666550,599617586233465466,-97.00
2025-06-06 15:20:40.666550,599617586233465466,520.00
2025-06-06 15:20:40.666550,599617586233465466,170.00
2025-06-06 15:20:40.666550,599617586233465466,-128.00
2025-06-06 15:20:40.666550,599617586233465466,75.00
2025-06-06 15:20:40.666550,599617586233465466,114.00
2025-06-06 15:20:40.666550,599617586233465466,-12.00
2025-06-06 15:20:40.666550,599617586233465466,2.00
2025-06-06 15:20:40.666550,599617586233465466,19.00
2025-06-06 15:20:40.666550,599617586233465466,-34.00
2025-06-06 15:20:40.666550,599617586233465466,-60.00
2025-06-06 15:20:40.666550,599617586233465466,-70.00
2025-06-06 15:20:40.666550,599617586233465466,-102.00
2025-06-06 15:20:40.666550,599617586233465466,-128.00
2025-06-06 15:20:40.666550,599617586233465466,-148.00
2025-06-06 15:20:40.666550,599617586233465466,-177.00
2025-06-06 15:20:40.666550,599617586233465466,-206.00
2025-06-06 15:20:40.666550,599617586233465466,-236.00
2025-06-06 15:20:40.666550,599617586233465466,-265.00
2025-06-06 15:20:40.666550,599617586233465466,-294.00
2025-06-06 15:20:40.666550,599617586233465466,-313.00
2025-06-06 15:20:40.666550,599617586233465466,-330.00
2025-06-06 15:20:40.666550,599617586233465466,-340.00
2025-06-06 15:20:40.666550,599617586233465466,-343.00
2025-06-06 15:20:40.666550,599617586233465466,-345.00
2025-06-06 15:20:40.666550,599617586233465466,-340.00
2025-06-06 15:20:40.666550,599617586233465466,-326.00
2025-06-06 15:20:40.666550,599617586233465466,-301.00
2025-06-06 15:20:40.666550,599617586233465466,-262.00
2025-06-06 15:20:40.666550,599617586233465466,-199.00
2025-06-06 15:20:40.666550,599617586233465466,-124.00
2025-06-06 15:20:40.666550,599617586233465466,-43.00
2025-06-06 15:20:40.666550,599617586233465466,38.00
2025-06-06 15:20:40.666550,599617586233465466,111.00
2025-06-06 15:20:40.666550,599617586233465466,155.00
2025-06-06 15:20:40.666550,599617586233465466,180.00
2025-06-06 15:20:40.666550,599617586233465466,201.00
2025-06-06 15:20:40.666550,599617586233465466,211.00
2025-06-06 15:20:40.666550,599617586233465466,206.00
2025-06-06 15:20:40.666550,599617586233465466,199.00
2025-06-06 15:20:40.666550,599617586233465466,192.00
2025-06-06 15:20:40.666550,599617586233465466,180.00
2025-06-06 15:20:40.666550,599617586233465466,163.00
2025-06-06 15:20:40.666550,599617586233465466,148.00
2025-06-06 15:20:40.666550,599617586233465466,138.00
2025-06-06 15:20:40.666550,599617586233465466,136.00
2025-06-06 15:20:40.666550,599617586233465466,131.00
2025-06-06 15:20:40.666550,599617586233465466,119.00
2025-06-06 15:20:41.235039,599617586794254061,114.00
2025-06-06 15:20:41.235039,599617586794254061,111.00
2025-06-06 15:20:41.235039,599617586794254061,107.00
2025-06-06 15:20:41.235039,599617586794254061,104.00
2025-06-06 15:20:41.235039,599617586794254061,109.00
2025-06-06 15:20:41.235039,599617586794254061,109.00
2025-06-06 15:20:41.235039,599617586794254061,109.00
2025-06-06 15:20:41.235039,599617586794254061,107.00
2025-06-06 15:20:41.235039,599617586794254061,102.00
2025-06-06 15:20:41.235039,599617586794254061,97.00
2025-06-06 15:20:41.235039,599617586794254061,97.00
2025-06-06 15:20:41.235039,599617586794254061,87.00
2025-06-06 15:20:41.235039,599617586794254061,68.00
2025-06-06 15:20:41.235039,599617586794254061,63.00
2025-06-06 15:20:41.235039,599617586794254061,70.00
2025-06-06 15:20:41.235039,599617586794254061,53.00
2025-06-06 15:20:41.235039,599617586794254061,34.00
2025-06-06 15:20:41.235039,599617586794254061,51.00
2025-06-06 15:20:41.235039,599617586794254061,85.00
2025-06-06 15:20:41.235039,599617586794254061,99.00
2025-06-06 15:20:41.235039,599617586794254061,94.00
2025-06-06 15:20:41.235039,599617586794254061,87.00
2025-06-06 15:20:41.235039,599617586794254061,85.00
2025-06-06 15:20:41.235039,599617586794254061,82.00
2025-06-06 15:20:41.235039,599617586794254061,80.00
2025-06-06 15:20:41.235039,599617586794254061,82.00
2025-06-06 15:20:41.235039,599617586794254061,80.00
2025-06-06 15:20:41.235039,599617586794254061,72.00
2025-06-06 15:20:41.235039,599617586794254061,70.00
2025-06-06 15:20:41.235039,599617586794254061,65.00
2025-06-06 15:20:41.235039,599617586794254061,60.00
2025-06-06 15:20:41.235039,599617586794254061,26.00
2025-06-06 15:20:41.235039,599617586794254061,-199.00
2025-06-06 15:20:41.235039,599617586794254061,-722.00
2025-06-06 15:20:41.235039,599617586794254061,-1228.00
2025-06-06 15:20:41.235039,599617586794254061,-1321.00
2025-06-06 15:20:41.235039,599617586794254061,-944.00
2025-06-06 15:20:41.235039,599617586794254061,-109.00
2025-06-06 15:20:41.235039,599617586794254061,525.00
2025-06-06 15:20:41.235039,599617586794254061,267.00
2025-06-06 15:20:41.235039,599617586794254061,-92.00
2025-06-06 15:20:41.235039,599617586794254061,53.00
2025-06-06 15:20:41.235039,599617586794254061,119.00
2025-06-06 15:20:41.235039,599617586794254061,-9.00
2025-06-06 15:20:41.235039,599617586794254061,-12.00
2025-06-06 15:20:41.235039,599617586794254061,14.00
2025-06-06 15:20:41.235039,599617586794254061,-38.00
2025-06-06 15:20:41.235039,599617586794254061,-75.00
2025-06-06 15:20:41.235039,599617586794254061,-80.00
2025-06-06 15:20:41.235039,599617586794254061,-107.00
2025-06-06 15:20:41.235039,599617586794254061,-138.00
2025-06-06 15:20:41.235039,599617586794254061,-165.00
2025-06-06 15:20:41.235039,599617586794254061,-199.00
2025-06-06 15:20:41.235039,599617586794254061,-228.00
2025-06-06 15:20:41.235039,599617586794254061,-250.00
2025-06-06 15:20:41.235039,599617586794254061,-279.00
2025-06-06 15:20:41.235039,599617586794254061,-311.00
2025-06-06 15:20:41.235039,599617586794254061,-338.00
2025-06-06 15:20:41.235039,599617586794254061,-357.00
2025-06-06 15:20:41.235039,599617586794254061,-369.00
2025-06-06 15:20:41.235039,599617586794254061,-374.00
2025-06-06 15:20:41.235039,599617586794254061,-372.00
2025-06-06 15:20:41.235039,599617586794254061,-367.00
2025-06-06 15:20:41.235039,599617586794254061,-352.00
2025-06-06 15:20:41.235039,599617586794254061,-321.00
2025-06-06 15:20:41.235039,599617586794254061,-262.00
2025-06-06 15:20:41.235039,599617586794254061,-175.00
2025-06-06 15:20:41.235039,599617586794254061,-80.00
2025-06-06 15:20:41.235039,599617586794254061,7.00
2025-06-06 15:20:41.235039,599617586794254061,87.00
2025-06-06 15:20:41.235039,599617586794254061,150.00
2025-06-06 15:20:41.235039,599617586794254061,194.00
2025-06-06 15:20:41.235039,599617586794254061,214.00
2025-06-06 15:20:41.774368,599617587355012138,221.00
2025-06-06 15:20:41.774368,599617587355012138,226.00
2025-06-06 15:20:41.774368,599617587355012138,223.00
2025-06-06 15:20:41.774368,599617587355012138,218.00
2025-06-06 15:20:41.774368,599617587355012138,206.00
2025-06-06 15:20:41.774368,599617587355012138,192.00
2025-06-06 15:20:41.774368,599617587355012138,177.00
2025-06-06 15:20:41.774368,599617587355012138,167.00
2025-06-06 15:20:41.774368,599617587355012138,158.00
2025-06-06 15:20:41.774368,599617587355012138,143.00
2025-06-06 15:20:41.774368,599617587355012138,138.00
2025-06-06 15:20:41.774368,599617587355012138,136.00
2025-06-06 15:20:41.774368,599617587355012138,128.00
2025-06-06 15:20:41.774368,599617587355012138,116.00
2025-06-06 15:20:41.774368,599617587355012138,111.00
2025-06-06 15:20:41.774368,599617587355012138,111.00
2025-06-06 15:20:41.774368,599617587355012138,109.00
2025-06-06 15:20:41.774368,599617587355012138,104.00
2025-06-06 15:20:41.774368,599617587355012138,97.00
2025-06-06 15:20:41.774368,599617587355012138,97.00
2025-06-06 15:20:41.774368,599617587355012138,97.00
2025-06-06 15:20:41.774368,599617587355012138,87.00
2025-06-06 15:20:41.774368,599617587355012138,75.00
2025-06-06 15:20:41.774368,599617587355012138,70.00
2025-06-06 15:20:41.774368,599617587355012138,75.00
2025-06-06 15:20:41.774368,599617587355012138,58.00
2025-06-06 15:20:41.774368,599617587355012138,34.00
2025-06-06 15:20:41.774368,599617587355012138,46.00
2025-06-06 15:20:41.774368,599617587355012138,85.00
2025-06-06 15:20:41.774368,599617587355012138,99.00
2025-06-06 15:20:41.774368,599617587355012138,92.00
2025-06-06 15:20:41.774368,599617587355012138,90.00
2025-06-06 15:20:41.774368,599617587355012138,90.00
2025-06-06 15:20:41.774368,599617587355012138,85.00
2025-06-06 15:20:41.774368,599617587355012138,80.00
2025-06-06 15:20:41.774368,599617587355012138,80.00
2025-06-06 15:20:41.774368,599617587355012138,77.00
2025-06-06 15:20:41.774368,599617587355012138,68.00
2025-06-06 15:20:41.774368,599617587355012138,65.00
2025-06-06 15:20:41.774368,599617587355012138,65.00
2025-06-06 15:20:41.774368,599617587355012138,65.00
2025-06-06 15:20:41.774368,599617587355012138,41.00
2025-06-06 15:20:41.774368,599617587355012138,-165.00
2025-06-06 15:20:41.774368,599617587355012138,-676.00
2025-06-06 15:20:41.774368,599617587355012138,-1226.00
2025-06-06 15:20:41.774368,599617587355012138,-1450.00
2025-06-06 15:20:41.774368,599617587355012138,-1129.00
2025-06-06 15:20:41.774368,599617587355012138,-223.00
2025-06-06 15:20:41.774368,599617587355012138,459.00
2025-06-06 15:20:41.774368,599617587355012138,233.00
2025-06-06 15:20:41.774368,599617587355012138,-90.00
2025-06-06 15:20:41.774368,599617587355012138,68.00
2025-06-06 15:20:41.774368,599617587355012138,141.00
2025-06-06 15:20:41.774368,599617587355012138,19.00
2025-06-06 15:20:41.774368,599617587355012138,19.00
2025-06-06 15:20:41.774368,599617587355012138,43.00
2025-06-06 15:20:41.774368,599617587355012138,-12.00
2025-06-06 15:20:41.774368,599617587355012138,-46.00
2025-06-06 15:20:41.774368,599617587355012138,-51.00
2025-06-06 15:20:41.774368,599617587355012138,-82.00
2025-06-06 15:20:41.774368,599617587355012138,-114.00
2025-06-06 15:20:41.774368,599617587355012138,-138.00
2025-06-06 15:20:41.774368,599617587355012138,-165.00
2025-06-06 15:20:41.774368,599617587355012138,-201.00
2025-06-06 15:20:41.774368,599617587355012138,-236.00
2025-06-06 15:20:41.774368,599617587355012138,-265.00
2025-06-06 15:20:41.774368,599617587355012138,-294.00
2025-06-06 15:20:41.774368,599617587355012138,-323.00
2025-06-06 15:20:41.774368,599617587355012138,-347.00
2025-06-06 15:20:41.774368,599617587355012138,-364.00
2025-06-06 15:20:41.774368,599617587355012138,-372.00
2025-06-06 15:20:41.774368,599617587355012138,-374.00
2025-06-06 15:20:41.774368,599617587355012138,-369.00
2025-06-06 15:20:42.375278,599617587915800735,-355.00
2025-06-06 15:20:42.375278,599617587915800735,-321.00
2025-06-06 15:20:42.375278,599617587915800735,-260.00
2025-06-06 15:20:42.375278,599617587915800735,-177.00
2025-06-06 15:20:42.375278,599617587915800735,-85.00
2025-06-06 15:20:42.375278,599617587915800735,7.00
2025-06-06 15:20:42.375278,599617587915800735,85.00
2025-06-06 15:20:42.375278,599617587915800735,148.00
2025-06-06 15:20:42.375278,599617587915800735,189.00
2025-06-06 15:20:42.375278,599617587915800735,211.00
2025-06-06 15:20:42.375278,599617587915800735,221.00
2025-06-06 15:20:42.375278,599617587915800735,223.00
2025-06-06 15:20:42.375278,599617587915800735,218.00
2025-06-06 15:20:42.375278,599617587915800735,211.00
2025-06-06 15:20:42.375278,599617587915800735,201.00
2025-06-06 15:20:42.375278,599617587915800735,187.00
2025-06-06 15:20:42.375278,599617587915800735,172.00
2025-06-06 15:20:42.375278,599617587915800735,158.00
2025-06-06 15:20:42.375278,599617587915800735,143.00
2025-06-06 15:20:42.375278,599617587915800735,133.00
2025-06-06 15:20:42.375278,599617587915800735,126.00
2025-06-06 15:20:42.375278,599617587915800735,121.00
2025-06-06 15:20:42.375278,599617587915800735,114.00
2025-06-06 15:20:42.375278,599617587915800735,109.00
2025-06-06 15:20:42.375278,599617587915800735,107.00
2025-06-06 15:20:42.375278,599617587915800735,107.00
2025-06-06 15:20:42.375278,599617587915800735,104.00
2025-06-06 15:20:42.375278,599617587915800735,102.00
2025-06-06 15:20:42.375278,599617587915800735,97.00
2025-06-06 15:20:42.375278,599617587915800735,97.00
2025-06-06 15:20:42.375278,599617587915800735,102.00
2025-06-06 15:20:42.375278,599617587915800735,97.00
2025-06-06 15:20:42.375278,599617587915800735,82.00
2025-06-06 15:20:42.375278,599617587915800735,70.00
2025-06-06 15:20:42.375278,599617587915800735,72.00
2025-06-06 15:20:42.375278,599617587915800735,72.00
2025-06-06 15:20:42.375278,599617587915800735,48.00
2025-06-06 15:20:42.375278,599617587915800735,26.00
2025-06-06 15:20:42.375278,599617587915800735,51.00
2025-06-06 15:20:42.375278,599617587915800735,87.00
2025-06-06 15:20:42.375278,599617587915800735,97.00
2025-06-06 15:20:42.375278,599617587915800735,90.00
2025-06-06 15:20:42.375278,599617587915800735,85.00
2025-06-06 15:20:42.375278,599617587915800735,82.00
2025-06-06 15:20:42.375278,599617587915800735,80.00
2025-06-06 15:20:42.375278,599617587915800735,80.00
2025-06-06 15:20:42.375278,599617587915800735,80.00
2025-06-06 15:20:42.375278,599617587915800735,75.00
2025-06-06 15:20:42.375278,599617587915800735,70.00
2025-06-06 15:20:42.375278,599617587915800735,68.00
2025-06-06 15:20:42.375278,599617587915800735,63.00
2025-06-06 15:20:42.375278,599617587915800735,68.00
2025-06-06 15:20:42.375278,599617587915800735,38.00
2025-06-06 15:20:42.375278,599617587915800735,-216.00
2025-06-06 15:20:42.375278,599617587915800735,-759.00
2025-06-06 15:20:42.375278,599617587915800735,-1316.00
2025-06-06 15:20:42.375278,599617587915800735,-1559.00
2025-06-06 15:20:42.375278,599617587915800735,-1158.00
2025-06-06 15:20:42.375278,599617587915800735,-170.00
2025-06-06 15:20:42.375278,599617587915800735,425.00
2025-06-06 15:20:42.375278,599617587915800735,145.00
2025-06-06 15:20:42.375278,599617587915800735,-77.00
2025-06-06 15:20:42.375278,599617587915800735,121.00
2025-06-06 15:20:42.375278,599617587915800735,150.00
2025-06-06 15:20:42.375278,599617587915800735,31.00
2025-06-06 15:20:42.375278,599617587915800735,46.00
2025-06-06 15:20:42.375278,599617587915800735,55.00
2025-06-06 15:20:42.375278,599617587915800735,2.00
2025-06-06 15:20:42.375278,599617587915800735,-19.00
2025-06-06 15:20:42.375278,599617587915800735,-29.00
2025-06-06 15:20:42.375278,599617587915800735,-68.00
2025-06-06 15:20:42.375278,599617587915800735,-102.00
2025-06-06 15:20:42.375278,599617587915800735,-124.00
2025-06-06 15:20:42.916668,599617588476589330,-155.00
2025-06-06 15:20:42.916668,599617588476589330,-189.00
2025-06-06 15:20:42.916668,599617588476589330,-221.00
2025-06-06 15:20:42.916668,599617588476589330,-253.00
2025-06-06 15:20:42.916668,599617588476589330,-289.00
2025-06-06 15:20:42.916668,599617588476589330,-321.00
2025-06-06 15:20:42.916668,599617588476589330,-345.00
2025-06-06 15:20:42.916668,599617588476589330,-364.00
2025-06-06 15:20:42.916668,599617588476589330,-374.00
2025-06-06 15:20:42.916668,599617588476589330,-377.00
2025-06-06 15:20:42.916668,599617588476589330,-374.00
2025-06-06 15:20:42.916668,599617588476589330,-360.00
2025-06-06 15:20:42.916668,599617588476589330,-321.00
2025-06-06 15:20:42.916668,599617588476589330,-255.00
2025-06-06 15:20:42.916668,599617588476589330,-167.00
2025-06-06 15:20:42.916668,599617588476589330,-70.00
2025-06-06 15:20:42.916668,599617588476589330,19.00
2025-06-06 15:20:42.916668,599617588476589330,97.00
2025-06-06 15:20:42.916668,599617588476589330,158.00
2025-06-06 15:20:42.916668,599617588476589330,192.00
2025-06-06 15:20:42.916668,599617588476589330,214.00
2025-06-06 15:20:42.916668,599617588476589330,223.00
2025-06-06 15:20:42.916668,599617588476589330,226.00
2025-06-06 15:20:42.916668,599617588476589330,221.00
2025-06-06 15:20:42.916668,599617588476589330,211.00
2025-06-06 15:20:42.916668,599617588476589330,201.00
2025-06-06 15:20:42.916668,599617588476589330,189.00
2025-06-06 15:20:42.916668,599617588476589330,177.00
2025-06-06 15:20:42.916668,599617588476589330,165.00
2025-06-06 15:20:42.916668,599617588476589330,155.00
2025-06-06 15:20:42.916668,599617588476589330,145.00
2025-06-06 15:20:42.916668,599617588476589330,138.00
2025-06-06 15:20:42.916668,599617588476589330,131.00
2025-06-06 15:20:42.916668,599617588476589330,124.00
2025-06-06 15:20:42.916668,599617588476589330,121.00
2025-06-06 15:20:42.916668,599617588476589330,121.00
2025-06-06 15:20:42.916668,599617588476589330,119.00
2025-06-06 15:20:42.916668,599617588476589330,116.00
2025-06-06 15:20:42.916668,599617588476589330,116.00
2025-06-06 15:20:42.916668,599617588476589330,116.00
2025-06-06 15:20:42.916668,599617588476589330,114.00
2025-06-06 15:20:42.916668,599617588476589330,111.00
2025-06-06 15:20:42.916668,599617588476589330,107.00
2025-06-06 15:20:42.916668,599617588476589330,104.00
2025-06-06 15:20:42.916668,599617588476589330,107.00
2025-06-06 15:20:42.916668,599617588476589330,104.00
2025-06-06 15:20:42.916668,599617588476589330,92.00
2025-06-06 15:20:42.916668,599617588476589330,75.00
2025-06-06 15:20:42.916668,599617588476589330,72.00
2025-06-06 15:20:42.916668,599617588476589330,77.00
2025-06-06 15:20:42.916668,599617588476589330,58.00
2025-06-06 15:20:42.916668,599617588476589330,29.00
2025-06-06 15:20:42.916668,599617588476589330,34.00
2025-06-06 15:20:42.916668,599617588476589330,75.00
2025-06-06 15:20:42.916668,599617588476589330,97.00
2025-06-06 15:20:42.916668,599617588476589330,90.00
2025-06-06 15:20:42.916668,599617588476589330,85.00
2025-06-06 15:20:42.916668,599617588476589330,87.00
2025-06-06 15:20:42.916668,599617588476589330,85.00
2025-06-06 15:20:42.916668,599617588476589330,82.00
2025-06-06 15:20:42.916668,599617588476589330,82.00
2025-06-06 15:20:42.916668,599617588476589330,80.00
2025-06-06 15:20:42.916668,599617588476589330,75.00
2025-06-06 15:20:42.916668,599617588476589330,68.00
2025-06-06 15:20:42.916668,599617588476589330,63.00
2025-06-06 15:20:42.916668,599617588476589330,70.00
2025-06-06 15:20:42.916668,599617588476589330,55.00
2025-06-06 15:20:42.916668,599617588476589330,-148.00
2025-06-06 15:20:42.916668,599617588476589330,-649.00
2025-06-06 15:20:42.916668,599617588476589330,-1236.00
2025-06-06 15:20:42.916668,599617588476589330,-1567.00
2025-06-06 15:20:42.916668,599617588476589330,-1284.00
2025-06-06 15:20:42.916668,599617588476589330,-338.00
2025-06-06 15:20:43.485962,599617589037347407,399.00
2025-06-06 15:20:43.485962,599617589037347407,223.00
2025-06-06 15:20:43.485962,599617589037347407,-75.00
2025-06-06 15:20:43.485962,599617589037347407,85.00
2025-06-06 15:20:43.485962,599617589037347407,167.00
2025-06-06 15:20:43.485962,599617589037347407,43.00
2025-06-06 15:20:43.485962,599617589037347407,36.00
2025-06-06 15:20:43.485962,599617589037347407,65.00
2025-06-06 15:20:43.485962,599617589037347407,12.00
2025-06-06 15:20:43.485962,599617589037347407,-21.00
2025-06-06 15:20:43.485962,599617589037347407,-26.00
2025-06-06 15:20:43.485962,599617589037347407,-58.00
2025-06-06 15:20:43.485962,599617589037347407,-92.00
2025-06-06 15:20:43.485962,599617589037347407,-114.00
2025-06-06 15:20:43.485962,599617589037347407,-143.00
2025-06-06 15:20:43.485962,599617589037347407,-180.00
2025-06-06 15:20:43.485962,599617589037347407,-214.00
2025-06-06 15:20:43.485962,599617589037347407,-248.00
2025-06-06 15:20:43.485962,599617589037347407,-282.00
2025-06-06 15:20:43.485962,599617589037347407,-309.00
2025-06-06 15:20:43.485962,599617589037347407,-333.00
2025-06-06 15:20:43.485962,599617589037347407,-357.00
2025-06-06 15:20:43.485962,599617589037347407,-369.00
2025-06-06 15:20:43.485962,599617589037347407,-374.00
2025-06-06 15:20:43.485962,599617589037347407,-374.00
2025-06-06 15:20:43.485962,599617589037347407,-364.00
2025-06-06 15:20:43.485962,599617589037347407,-333.00
2025-06-06 15:20:43.485962,599617589037347407,-277.00
2025-06-06 15:20:43.485962,599617589037347407,-194.00
2025-06-06 15:20:43.485962,599617589037347407,-102.00
2025-06-06 15:20:43.485962,599617589037347407,-9.00
2025-06-06 15:20:43.485962,599617589037347407,75.00
2025-06-06 15:20:43.485962,599617589037347407,143.00
2025-06-06 15:20:43.485962,599617589037347407,189.00
2025-06-06 15:20:43.485962,599617589037347407,216.00
2025-06-06 15:20:43.485962,599617589037347407,231.00
2025-06-06 15:20:43.485962,599617589037347407,236.00
2025-06-06 15:20:43.485962,599617589037347407,231.00
2025-06-06 15:20:43.485962,599617589037347407,223.00
2025-06-06 15:20:43.485962,599617589037347407,211.00
2025-06-06 15:20:43.485962,599617589037347407,199.00
2025-06-06 15:20:43.485962,599617589037347407,187.00
2025-06-06 15:20:43.485962,599617589037347407,175.00
2025-06-06 15:20:43.485962,599617589037347407,165.00
2025-06-06 15:20:43.485962,599617589037347407,153.00
2025-06-06 15:20:43.485962,599617589037347407,145.00
2025-06-06 15:20:43.485962,599617589037347407,143.00
2025-06-06 15:20:43.485962,599617589037347407,141.00
2025-06-06 15:20:43.485962,599617589037347407,136.00
2025-06-06 15:20:43.485962,599617589037347407,131.00
2025-06-06 15:20:43.485962,599617589037347407,128.00
2025-06-06 15:20:43.485962,599617589037347407,131.00
2025-06-06 15:20:43.485962,599617589037347407,131.00
2025-06-06 15:20:43.485962,599617589037347407,128.00
2025-06-06 15:20:43.485962,599617589037347407,128.00
2025-06-06 15:20:43.485962,599617589037347407,126.00
2025-06-06 15:20:43.485962,599617589037347407,126.00
2025-06-06 15:20:43.485962,599617589037347407,126.00
2025-06-06 15:20:43.485962,599617589037347407,126.00
2025-06-06 15:20:43.485962,599617589037347407,119.00
2025-06-06 15:20:43.485962,599617589037347407,109.00
2025-06-06 15:20:43.485962,599617589037347407,107.00
2025-06-06 15:20:43.485962,599617589037347407,102.00
2025-06-06 15:20:43.485962,599617589037347407,87.00
2025-06-06 15:20:43.485962,599617589037347407,75.00
2025-06-06 15:20:43.485962,599617589037347407,77.00
2025-06-06 15:20:43.485962,599617589037347407,70.00
2025-06-06 15:20:43.485962,599617589037347407,41.00
2025-06-06 15:20:43.485962,599617589037347407,31.00
2025-06-06 15:20:43.485962,599617589037347407,60.00
2025-06-06 15:20:43.485962,599617589037347407,92.00
2025-06-06 15:20:43.485962,599617589037347407,97.00
2025-06-06 15:20:43.485962,599617589037347407,87.00
2025-06-06 15:20:44.025890,599617589598136002,87.00
2025-06-06 15:20:44.025890,599617589598136002,90.00
2025-06-06 15:20:44.025890,599617589598136002,82.00
2025-06-06 15:20:44.025890,599617589598136002,80.00
2025-06-06 15:20:44.025890,599617589598136002,80.00
2025-06-06 15:20:44.025890,599617589598136002,77.00
2025-06-06 15:20:44.025890,599617589598136002,72.00
2025-06-06 15:20:44.025890,599617589598136002,72.00
2025-06-06 15:20:44.025890,599617589598136002,70.00
2025-06-06 15:20:44.025890,599617589598136002,70.00
2025-06-06 15:20:44.025890,599617589598136002,-17.00
2025-06-06 15:20:44.025890,599617589598136002,-399.00
2025-06-06 15:20:44.025890,599617589598136002,-1004.00
2025-06-06 15:20:44.025890,599617589598136002,-1464.00
2025-06-06 15:20:44.025890,599617589598136002,-1476.00
2025-06-06 15:20:44.025890,599617589598136002,-810.00
2025-06-06 15:20:44.025890,599617589598136002,199.00
2025-06-06 15:20:44.025890,599617589598136002,479.00
2025-06-06 15:20:44.025890,599617589598136002,41.00
2025-06-06 15:20:44.025890,599617589598136002,-38.00
2025-06-06 15:20:44.025890,599617589598136002,170.00
2025-06-06 15:20:44.025890,599617589598136002,102.00
2025-06-06 15:20:44.025890,599617589598136002,12.00
2025-06-06 15:20:44.025890,599617589598136002,55.00
2025-06-06 15:20:44.025890,599617589598136002,38.00
2025-06-06 15:20:44.025890,599617589598136002,-21.00
2025-06-06 15:20:44.025890,599617589598136002,-36.00
2025-06-06 15:20:44.025890,599617589598136002,-51.00
2025-06-06 15:20:44.025890,599617589598136002,-85.00
2025-06-06 15:20:44.025890,599617589598136002,-114.00
2025-06-06 15:20:44.025890,599617589598136002,-138.00
2025-06-06 15:20:44.025890,599617589598136002,-172.00
2025-06-06 15:20:44.025890,599617589598136002,-209.00
2025-06-06 15:20:44.025890,599617589598136002,-240.00
2025-06-06 15:20:44.025890,599617589598136002,-270.00
2025-06-06 15:20:44.025890,599617589598136002,-304.00
2025-06-06 15:20:44.025890,599617589598136002,-335.00
2025-06-06 15:20:44.025890,599617589598136002,-362.00
2025-06-06 15:20:44.025890,599617589598136002,-377.00
2025-06-06 15:20:44.025890,599617589598136002,-379.00
2025-06-06 15:20:44.025890,599617589598136002,-372.00
2025-06-06 15:20:44.025890,599617589598136002,-372.00
2025-06-06 15:20:44.025890,599617589598136002,-360.00
2025-06-06 15:20:44.025890,599617589598136002,-316.00
2025-06-06 15:20:44.025890,599617589598136002,-240.00
2025-06-06 15:20:44.025890,599617589598136002,-153.00
2025-06-06 15:20:44.025890,599617589598136002,-55.00
2025-06-06 15:20:44.025890,599617589598136002,38.00
2025-06-06 15:20:44.025890,599617589598136002,119.00
2025-06-06 15:20:44.025890,599617589598136002,175.00
2025-06-06 15:20:44.025890,599617589598136002,211.00
2025-06-06 15:20:44.025890,599617589598136002,238.00
2025-06-06 15:20:44.025890,599617589598136002,250.00
2025-06-06 15:20:44.025890,599617589598136002,245.00
2025-06-06 15:20:44.025890,599617589598136002,238.00
2025-06-06 15:20:44.025890,599617589598136002,231.00
2025-06-06 15:20:44.025890,599617589598136002,214.00
2025-06-06 15:20:44.025890,599617589598136002,201.00
2025-06-06 15:20:44.025890,599617589598136002,192.00
2025-06-06 15:20:44.025890,599617589598136002,177.00
2025-06-06 15:20:44.025890,599617589598136002,163.00
2025-06-06 15:20:44.025890,599617589598136002,153.00
2025-06-06 15:20:44.025890,599617589598136002,148.00
2025-06-06 15:20:44.025890,599617589598136002,141.00
2025-06-06 15:20:44.025890,599617589598136002,131.00
2025-06-06 15:20:44.025890,599617589598136002,128.00
2025-06-06 15:20:44.025890,599617589598136002,131.00
2025-06-06 15:20:44.025890,599617589598136002,131.00
2025-06-06 15:20:44.025890,599617589598136002,128.00
2025-06-06 15:20:44.025890,599617589598136002,131.00
2025-06-06 15:20:44.025890,599617589598136002,131.00
2025-06-06 15:20:44.025890,599617589598136002,128.00
2025-06-06 15:20:44.025890,599617589598136002,126.00
2025-06-06 15:20:44.595050,599617590158924597,124.00
2025-06-06 15:20:44.595050,599617590158924597,119.00
2025-06-06 15:20:44.595050,599617590158924597,116.00
2025-06-06 15:20:44.595050,599617590158924597,116.00
2025-06-06 15:20:44.595050,599617590158924597,99.00
2025-06-06 15:20:44.595050,599617590158924597,82.00
2025-06-06 15:20:44.595050,599617590158924597,87.00
2025-06-06 15:20:44.595050,599617590158924597,87.00
2025-06-06 15:20:44.595050,599617590158924597,63.00
2025-06-06 15:20:44.595050,599617590158924597,46.00
2025-06-06 15:20:44.595050,599617590158924597,70.00
2025-06-06 15:20:44.595050,599617590158924597,102.00
2025-06-06 15:20:44.595050,599617590158924597,109.00
2025-06-06 15:20:44.595050,599617590158924597,102.00
2025-06-06 15:20:44.595050,599617590158924597,97.00
2025-06-06 15:20:44.595050,599617590158924597,94.00
2025-06-06 15:20:44.595050,599617590158924597,92.00
2025-06-06 15:20:44.595050,599617590158924597,92.00
2025-06-06 15:20:44.595050,599617590158924597,92.00
2025-06-06 15:20:44.595050,599617590158924597,92.00
2025-06-06 15:20:44.595050,599617590158924597,85.00
2025-06-06 15:20:44.595050,599617590158924597,77.00
2025-06-06 15:20:44.595050,599617590158924597,75.00
2025-06-06 15:20:44.595050,599617590158924597,75.00
2025-06-06 15:20:44.595050,599617590158924597,63.00
2025-06-06 15:20:44.595050,599617590158924597,-85.00
2025-06-06 15:20:44.595050,599617590158924597,-542.00
2025-06-06 15:20:44.595050,599617590158924597,-1126.00
2025-06-06 15:20:44.595050,599617590158924597,-1423.00
2025-06-06 15:20:44.595050,599617590158924597,-1221.00
2025-06-06 15:20:44.595050,599617590158924597,-433.00
2025-06-06 15:20:44.595050,599617590158924597,403.00
2025-06-06 15:20:44.595050,599617590158924597,391.00
2025-06-06 15:20:44.595050,599617590158924597,-31.00
2025-06-06 15:20:44.595050,599617590158924597,9.00
2025-06-06 15:20:44.595050,599617590158924597,155.00
2025-06-06 15:20:44.595050,599617590158924597,48.00
2025-06-06 15:20:44.595050,599617590158924597,4.00
2025-06-06 15:20:44.595050,599617590158924597,46.00
2025-06-06 15:20:44.595050,599617590158924597,4.00
2025-06-06 15:20:44.595050,599617590158924597,-43.00
2025-06-06 15:20:44.595050,599617590158924597,-48.00
2025-06-06 15:20:44.595050,599617590158924597,-75.00
2025-06-06 15:20:44.595050,599617590158924597,-116.00
2025-06-06 15:20:44.595050,599617590158924597,-143.00
2025-06-06 15:20:44.595050,599617590158924597,-167.00
2025-06-06 15:20:44.595050,599617590158924597,-201.00
2025-06-06 15:20:44.595050,599617590158924597,-236.00
2025-06-06 15:20:44.595050,599617590158924597,-270.00
2025-06-06 15:20:44.595050,599617590158924597,-306.00
2025-06-06 15:20:44.595050,599617590158924597,-340.00
2025-06-06 15:20:44.595050,599617590158924597,-362.00
2025-06-06 15:20:44.595050,599617590158924597,-384.00
2025-06-06 15:20:44.595050,599617590158924597,-399.00
2025-06-06 15:20:44.595050,599617590158924597,-406.00
2025-06-06 15:20:44.595050,599617590158924597,-401.00
2025-06-06 15:20:44.595050,599617590158924597,-386.00
2025-06-06 15:20:44.595050,599617590158924597,-357.00
2025-06-06 15:20:44.595050,599617590158924597,-299.00
2025-06-06 15:20:44.595050,599617590158924597,-211.00
2025-06-06 15:20:44.595050,599617590158924597,-109.00
2025-06-06 15:20:44.595050,599617590158924597,-9.00
2025-06-06 15:20:44.595050,599617590158924597,75.00
2025-06-06 15:20:44.595050,599617590158924597,145.00
2025-06-06 15:20:44.595050,599617590158924597,197.00
2025-06-06 15:20:44.595050,599617590158924597,221.00
2025-06-06 15:20:44.595050,599617590158924597,233.00
2025-06-06 15:20:44.595050,599617590158924597,240.00
2025-06-06 15:20:44.595050,599617590158924597,238.00
2025-06-06 15:20:44.595050,599617590158924597,231.00
2025-06-06 15:20:44.595050,599617590158924597,221.00
2025-06-06 15:20:44.595050,599617590158924597,206.00
2025-06-06 15:20:44.595050,599617590158924597,192.00
2025-06-06 15:20:45.134946,599617590719682674,175.00
2025-06-06 15:20:45.134946,599617590719682674,163.00
2025-06-06 15:20:45.134946,599617590719682674,153.00
2025-06-06 15:20:45.134946,599617590719682674,138.00
2025-06-06 15:20:45.134946,599617590719682674,128.00
2025-06-06 15:20:45.134946,599617590719682674,126.00
2025-06-06 15:20:45.134946,599617590719682674,126.00
2025-06-06 15:20:45.134946,599617590719682674,121.00
2025-06-06 15:20:45.134946,599617590719682674,119.00
2025-06-06 15:20:45.134946,599617590719682674,116.00
2025-06-06 15:20:45.134946,599617590719682674,114.00
2025-06-06 15:20:45.134946,599617590719682674,111.00
2025-06-06 15:20:45.134946,599617590719682674,114.00
2025-06-06 15:20:45.134946,599617590719682674,114.00
2025-06-06 15:20:45.134946,599617590719682674,114.00
2025-06-06 15:20:45.134946,599617590719682674,119.00
2025-06-06 15:20:45.134946,599617590719682674,119.00
2025-06-06 15:20:45.134946,599617590719682674,109.00
2025-06-06 15:20:45.134946,599617590719682674,104.00
2025-06-06 15:20:45.134946,599617590719682674,104.00
2025-06-06 15:20:45.134946,599617590719682674,92.00
2025-06-06 15:20:45.134946,599617590719682674,72.00
2025-06-06 15:20:45.134946,599617590719682674,70.00
2025-06-06 15:20:45.134946,599617590719682674,72.00
2025-06-06 15:20:45.134946,599617590719682674,51.00
2025-06-06 15:20:45.134946,599617590719682674,26.00
2025-06-06 15:20:45.134946,599617590719682674,43.00
2025-06-06 15:20:45.134946,599617590719682674,80.00
2025-06-06 15:20:45.134946,599617590719682674,94.00
2025-06-06 15:20:45.134946,599617590719682674,85.00
2025-06-06 15:20:45.134946,599617590719682674,80.00
2025-06-06 15:20:45.134946,599617590719682674,77.00
2025-06-06 15:20:45.134946,599617590719682674,77.00
