Timestamp,Device Timestamp (ns),ECG Value (uV)
2025-06-06 15:04:55.275822,599616640810545046,-330.00
2025-06-06 15:04:55.275822,599616640810545046,-253.00
2025-06-06 15:04:55.275822,599616640810545046,-163.00
2025-06-06 15:04:55.275822,599616640810545046,-72.00
2025-06-06 15:04:55.275822,599616640810545046,7.00
2025-06-06 15:04:55.275822,599616640810545046,70.00
2025-06-06 15:04:55.275822,599616640810545046,114.00
2025-06-06 15:04:55.275822,599616640810545046,138.00
2025-06-06 15:04:55.275822,599616640810545046,150.00
2025-06-06 15:04:55.275822,599616640810545046,155.00
2025-06-06 15:04:55.275822,599616640810545046,150.00
2025-06-06 15:04:55.275822,599616640810545046,138.00
2025-06-06 15:04:55.275822,599616640810545046,128.00
2025-06-06 15:04:55.275822,599616640810545046,116.00
2025-06-06 15:04:55.275822,599616640810545046,102.00
2025-06-06 15:04:55.275822,599616640810545046,87.00
2025-06-06 15:04:55.275822,599616640810545046,72.00
2025-06-06 15:04:55.275822,599616640810545046,65.00
2025-06-06 15:04:55.275822,599616640810545046,63.00
2025-06-06 15:04:55.275822,599616640810545046,55.00
2025-06-06 15:04:55.275822,599616640810545046,48.00
2025-06-06 15:04:55.275822,599616640810545046,51.00
2025-06-06 15:04:55.275822,599616640810545046,51.00
2025-06-06 15:04:55.275822,599616640810545046,43.00
2025-06-06 15:04:55.275822,599616640810545046,41.00
2025-06-06 15:04:55.275822,599616640810545046,41.00
2025-06-06 15:04:55.275822,599616640810545046,43.00
2025-06-06 15:04:55.275822,599616640810545046,38.00
2025-06-06 15:04:55.275822,599616640810545046,24.00
2025-06-06 15:04:55.275822,599616640810545046,21.00
2025-06-06 15:04:55.275822,599616640810545046,29.00
2025-06-06 15:04:55.275822,599616640810545046,14.00
2025-06-06 15:04:55.275822,599616640810545046,-12.00
2025-06-06 15:04:55.275822,599616640810545046,4.00
2025-06-06 15:04:55.275822,599616640810545046,46.00
2025-06-06 15:04:55.275822,599616640810545046,63.00
2025-06-06 15:04:55.275822,599616640810545046,55.00
2025-06-06 15:04:55.275822,599616640810545046,51.00
2025-06-06 15:04:55.275822,599616640810545046,53.00
2025-06-06 15:04:55.275822,599616640810545046,51.00
2025-06-06 15:04:55.275822,599616640810545046,48.00
2025-06-06 15:04:55.275822,599616640810545046,48.00
2025-06-06 15:04:55.275822,599616640810545046,46.00
2025-06-06 15:04:55.275822,599616640810545046,41.00
2025-06-06 15:04:55.275822,599616640810545046,36.00
2025-06-06 15:04:55.275822,599616640810545046,36.00
2025-06-06 15:04:55.275822,599616640810545046,29.00
2025-06-06 15:04:55.275822,599616640810545046,-99.00
2025-06-06 15:04:55.275822,599616640810545046,-532.00
2025-06-06 15:04:55.275822,599616640810545046,-1124.00
2025-06-06 15:04:55.275822,599616640810545046,-1474.00
2025-06-06 15:04:55.275822,599616640810545046,-1340.00
2025-06-06 15:04:55.275822,599616640810545046,-581.00
2025-06-06 15:04:55.275822,599616640810545046,321.00
2025-06-06 15:04:55.275822,599616640810545046,401.00
2025-06-06 15:04:55.275822,599616640810545046,-26.00
2025-06-06 15:04:55.275822,599616640810545046,-14.00
2025-06-06 15:04:55.275822,599616640810545046,143.00
2025-06-06 15:04:55.275822,599616640810545046,38.00
2025-06-06 15:04:55.275822,599616640810545046,-17.00
2025-06-06 15:04:55.275822,599616640810545046,21.00
2025-06-06 15:04:55.275822,599616640810545046,-17.00
2025-06-06 15:04:55.275822,599616640810545046,-65.00
2025-06-06 15:04:55.275822,599616640810545046,-72.00
2025-06-06 15:04:55.275822,599616640810545046,-99.00
2025-06-06 15:04:55.275822,599616640810545046,-136.00
2025-06-06 15:04:55.275822,599616640810545046,-163.00
2025-06-06 15:04:55.275822,599616640810545046,-194.00
2025-06-06 15:04:55.275822,599616640810545046,-233.00
2025-06-06 15:04:55.275822,599616640810545046,-267.00
2025-06-06 15:04:55.275822,599616640810545046,-299.00
2025-06-06 15:04:55.275822,599616640810545046,-333.00
2025-06-06 15:04:55.275822,599616640810545046,-362.00
2025-06-06 15:04:55.814538,599616641371272605,-382.00
2025-06-06 15:04:55.814538,599616641371272605,-396.00
2025-06-06 15:04:55.814538,599616641371272605,-403.00
2025-06-06 15:04:55.814538,599616641371272605,-399.00
2025-06-06 15:04:55.814538,599616641371272605,-389.00
2025-06-06 15:04:55.814538,599616641371272605,-364.00
2025-06-06 15:04:55.814538,599616641371272605,-316.00
2025-06-06 15:04:55.814538,599616641371272605,-240.00
2025-06-06 15:04:55.814538,599616641371272605,-150.00
2025-06-06 15:04:55.814538,599616641371272605,-58.00
2025-06-06 15:04:55.814538,599616641371272605,24.00
2025-06-06 15:04:55.814538,599616641371272605,85.00
2025-06-06 15:04:55.814538,599616641371272605,126.00
2025-06-06 15:04:55.814538,599616641371272605,150.00
2025-06-06 15:04:55.814538,599616641371272605,160.00
2025-06-06 15:04:55.814538,599616641371272605,163.00
2025-06-06 15:04:55.814538,599616641371272605,158.00
2025-06-06 15:04:55.814538,599616641371272605,148.00
2025-06-06 15:04:55.814538,599616641371272605,138.00
2025-06-06 15:04:55.814538,599616641371272605,121.00
2025-06-06 15:04:55.814538,599616641371272605,107.00
2025-06-06 15:04:55.814538,599616641371272605,94.00
2025-06-06 15:04:55.814538,599616641371272605,82.00
2025-06-06 15:04:55.814538,599616641371272605,72.00
2025-06-06 15:04:55.814538,599616641371272605,68.00
2025-06-06 15:04:55.814538,599616641371272605,60.00
2025-06-06 15:04:55.814538,599616641371272605,53.00
2025-06-06 15:04:55.814538,599616641371272605,51.00
2025-06-06 15:04:55.814538,599616641371272605,53.00
2025-06-06 15:04:55.814538,599616641371272605,46.00
2025-06-06 15:04:55.814538,599616641371272605,41.00
2025-06-06 15:04:55.814538,599616641371272605,43.00
2025-06-06 15:04:55.814538,599616641371272605,41.00
2025-06-06 15:04:55.814538,599616641371272605,31.00
2025-06-06 15:04:55.814538,599616641371272605,21.00
2025-06-06 15:04:55.814538,599616641371272605,26.00
2025-06-06 15:04:55.814538,599616641371272605,31.00
2025-06-06 15:04:55.814538,599616641371272605,9.00
2025-06-06 15:04:55.814538,599616641371272605,-9.00
2025-06-06 15:04:55.814538,599616641371272605,9.00
2025-06-06 15:04:55.814538,599616641371272605,48.00
2025-06-06 15:04:55.814538,599616641371272605,63.00
2025-06-06 15:04:55.814538,599616641371272605,60.00
2025-06-06 15:04:55.814538,599616641371272605,55.00
2025-06-06 15:04:55.814538,599616641371272605,55.00
2025-06-06 15:04:55.814538,599616641371272605,55.00
2025-06-06 15:04:55.814538,599616641371272605,53.00
2025-06-06 15:04:55.814538,599616641371272605,51.00
2025-06-06 15:04:55.814538,599616641371272605,48.00
2025-06-06 15:04:55.814538,599616641371272605,43.00
2025-06-06 15:04:55.814538,599616641371272605,43.00
2025-06-06 15:04:55.814538,599616641371272605,41.00
2025-06-06 15:04:55.814538,599616641371272605,34.00
2025-06-06 15:04:55.814538,599616641371272605,-104.00
2025-06-06 15:04:55.814538,599616641371272605,-549.00
2025-06-06 15:04:55.814538,599616641371272605,-1143.00
2025-06-06 15:04:55.814538,599616641371272605,-1537.00
2025-06-06 15:04:55.814538,599616641371272605,-1413.00
2025-06-06 15:04:55.814538,599616641371272605,-591.00
2025-06-06 15:04:55.814538,599616641371272605,296.00
2025-06-06 15:04:55.814538,599616641371272605,333.00
2025-06-06 15:04:55.814538,599616641371272605,-38.00
2025-06-06 15:04:55.814538,599616641371272605,19.00
2025-06-06 15:04:55.814538,599616641371272605,160.00
2025-06-06 15:04:55.814538,599616641371272605,55.00
2025-06-06 15:04:55.814538,599616641371272605,9.00
2025-06-06 15:04:55.814538,599616641371272605,46.00
2025-06-06 15:04:55.814538,599616641371272605,4.00
2025-06-06 15:04:55.814538,599616641371272605,-41.00
2025-06-06 15:04:55.814538,599616641371272605,-46.00
2025-06-06 15:04:55.814538,599616641371272605,-70.00
2025-06-06 15:04:55.814538,599616641371272605,-111.00
2025-06-06 15:04:55.814538,599616641371272605,-136.00
2025-06-06 15:04:56.386016,599616641931969646,-163.00
2025-06-06 15:04:56.386016,599616641931969646,-201.00
2025-06-06 15:04:56.386016,599616641931969646,-233.00
2025-06-06 15:04:56.386016,599616641931969646,-267.00
2025-06-06 15:04:56.386016,599616641931969646,-304.00
2025-06-06 15:04:56.386016,599616641931969646,-330.00
2025-06-06 15:04:56.386016,599616641931969646,-352.00
2025-06-06 15:04:56.386016,599616641931969646,-369.00
2025-06-06 15:04:56.386016,599616641931969646,-379.00
2025-06-06 15:04:56.386016,599616641931969646,-379.00
2025-06-06 15:04:56.386016,599616641931969646,-367.00
2025-06-06 15:04:56.386016,599616641931969646,-345.00
2025-06-06 15:04:56.386016,599616641931969646,-296.00
2025-06-06 15:04:56.386016,599616641931969646,-221.00
2025-06-06 15:04:56.386016,599616641931969646,-128.00
2025-06-06 15:04:56.386016,599616641931969646,-41.00
2025-06-06 15:04:56.386016,599616641931969646,36.00
2025-06-06 15:04:56.386016,599616641931969646,97.00
2025-06-06 15:04:56.386016,599616641931969646,138.00
2025-06-06 15:04:56.386016,599616641931969646,160.00
2025-06-06 15:04:56.386016,599616641931969646,170.00
2025-06-06 15:04:56.386016,599616641931969646,167.00
2025-06-06 15:04:56.386016,599616641931969646,165.00
2025-06-06 15:04:56.386016,599616641931969646,158.00
2025-06-06 15:04:56.386016,599616641931969646,143.00
2025-06-06 15:04:56.386016,599616641931969646,126.00
2025-06-06 15:04:56.386016,599616641931969646,111.00
2025-06-06 15:04:56.386016,599616641931969646,102.00
2025-06-06 15:04:56.386016,599616641931969646,92.00
2025-06-06 15:04:56.386016,599616641931969646,85.00
2025-06-06 15:04:56.386016,599616641931969646,75.00
2025-06-06 15:04:56.386016,599616641931969646,68.00
2025-06-06 15:04:56.386016,599616641931969646,65.00
2025-06-06 15:04:56.386016,599616641931969646,63.00
2025-06-06 15:04:56.386016,599616641931969646,60.00
2025-06-06 15:04:56.386016,599616641931969646,60.00
2025-06-06 15:04:56.386016,599616641931969646,58.00
2025-06-06 15:04:56.386016,599616641931969646,55.00
2025-06-06 15:04:56.386016,599616641931969646,53.00
2025-06-06 15:04:56.386016,599616641931969646,58.00
2025-06-06 15:04:56.386016,599616641931969646,53.00
2025-06-06 15:04:56.386016,599616641931969646,41.00
2025-06-06 15:04:56.386016,599616641931969646,34.00
2025-06-06 15:04:56.386016,599616641931969646,36.00
2025-06-06 15:04:56.386016,599616641931969646,21.00
2025-06-06 15:04:56.386016,599616641931969646,-4.00
2025-06-06 15:04:56.386016,599616641931969646,-4.00
2025-06-06 15:04:56.386016,599616641931969646,29.00
2025-06-06 15:04:56.386016,599616641931969646,55.00
2025-06-06 15:04:56.386016,599616641931969646,58.00
2025-06-06 15:04:56.386016,599616641931969646,51.00
2025-06-06 15:04:56.386016,599616641931969646,46.00
2025-06-06 15:04:56.386016,599616641931969646,46.00
2025-06-06 15:04:56.386016,599616641931969646,46.00
2025-06-06 15:04:56.386016,599616641931969646,43.00
2025-06-06 15:04:56.386016,599616641931969646,41.00
2025-06-06 15:04:56.386016,599616641931969646,38.00
2025-06-06 15:04:56.386016,599616641931969646,34.00
2025-06-06 15:04:56.386016,599616641931969646,29.00
2025-06-06 15:04:56.386016,599616641931969646,36.00
2025-06-06 15:04:56.386016,599616641931969646,-14.00
2025-06-06 15:04:56.386016,599616641931969646,-313.00
2025-06-06 15:04:56.386016,599616641931969646,-868.00
2025-06-06 15:04:56.386016,599616641931969646,-1411.00
2025-06-06 15:04:56.386016,599616641931969646,-1579.00
2025-06-06 15:04:56.386016,599616641931969646,-1060.00
2025-06-06 15:04:56.386016,599616641931969646,-80.00
2025-06-06 15:04:56.386016,599616641931969646,389.00
2025-06-06 15:04:56.386016,599616641931969646,85.00
2025-06-06 15:04:56.386016,599616641931969646,-65.00
2025-06-06 15:04:56.386016,599616641931969646,124.00
2025-06-06 15:04:56.386016,599616641931969646,109.00
2025-06-06 15:04:56.386016,599616641931969646,2.00
2025-06-06 15:04:56.985142,599616642492697207,26.00
2025-06-06 15:04:56.985142,599616642492697207,24.00
2025-06-06 15:04:56.985142,599616642492697207,-34.00
2025-06-06 15:04:56.985142,599616642492697207,-51.00
2025-06-06 15:04:56.985142,599616642492697207,-60.00
2025-06-06 15:04:56.985142,599616642492697207,-99.00
2025-06-06 15:04:56.985142,599616642492697207,-128.00
2025-06-06 15:04:56.985142,599616642492697207,-150.00
2025-06-06 15:04:56.985142,599616642492697207,-187.00
2025-06-06 15:04:56.985142,599616642492697207,-223.00
2025-06-06 15:04:56.985142,599616642492697207,-255.00
2025-06-06 15:04:56.985142,599616642492697207,-289.00
2025-06-06 15:04:56.985142,599616642492697207,-321.00
2025-06-06 15:04:56.985142,599616642492697207,-345.00
2025-06-06 15:04:56.985142,599616642492697207,-364.00
2025-06-06 15:04:56.985142,599616642492697207,-377.00
2025-06-06 15:04:56.985142,599616642492697207,-384.00
2025-06-06 15:04:56.985142,599616642492697207,-384.00
2025-06-06 15:04:56.985142,599616642492697207,-364.00
2025-06-06 15:04:56.985142,599616642492697207,-328.00
2025-06-06 15:04:56.985142,599616642492697207,-270.00
2025-06-06 15:04:56.985142,599616642492697207,-187.00
2025-06-06 15:04:56.985142,599616642492697207,-90.00
2025-06-06 15:04:56.985142,599616642492697207,-4.00
2025-06-06 15:04:56.985142,599616642492697207,60.00
2025-06-06 15:04:56.985142,599616642492697207,111.00
2025-06-06 15:04:56.985142,599616642492697207,145.00
2025-06-06 15:04:56.985142,599616642492697207,160.00
2025-06-06 15:04:56.985142,599616642492697207,165.00
2025-06-06 15:04:56.985142,599616642492697207,163.00
2025-06-06 15:04:56.985142,599616642492697207,155.00
2025-06-06 15:04:56.985142,599616642492697207,143.00
2025-06-06 15:04:56.985142,599616642492697207,131.00
2025-06-06 15:04:56.985142,599616642492697207,119.00
2025-06-06 15:04:56.985142,599616642492697207,104.00
2025-06-06 15:04:56.985142,599616642492697207,94.00
2025-06-06 15:04:56.985142,599616642492697207,85.00
2025-06-06 15:04:56.985142,599616642492697207,72.00
2025-06-06 15:04:56.985142,599616642492697207,68.00
2025-06-06 15:04:56.985142,599616642492697207,65.00
2025-06-06 15:04:56.985142,599616642492697207,63.00
2025-06-06 15:04:56.985142,599616642492697207,58.00
2025-06-06 15:04:56.985142,599616642492697207,55.00
2025-06-06 15:04:56.985142,599616642492697207,58.00
2025-06-06 15:04:56.985142,599616642492697207,58.00
2025-06-06 15:04:56.985142,599616642492697207,58.00
2025-06-06 15:04:56.985142,599616642492697207,55.00
2025-06-06 15:04:56.985142,599616642492697207,51.00
2025-06-06 15:04:56.985142,599616642492697207,51.00
2025-06-06 15:04:56.985142,599616642492697207,51.00
2025-06-06 15:04:56.985142,599616642492697207,41.00
2025-06-06 15:04:56.985142,599616642492697207,29.00
2025-06-06 15:04:56.985142,599616642492697207,24.00
2025-06-06 15:04:56.985142,599616642492697207,31.00
2025-06-06 15:04:56.985142,599616642492697207,14.00
2025-06-06 15:04:56.985142,599616642492697207,-17.00
2025-06-06 15:04:56.985142,599616642492697207,-17.00
2025-06-06 15:04:56.985142,599616642492697207,19.00
2025-06-06 15:04:56.985142,599616642492697207,41.00
2025-06-06 15:04:56.985142,599616642492697207,38.00
2025-06-06 15:04:56.985142,599616642492697207,34.00
2025-06-06 15:04:56.985142,599616642492697207,34.00
2025-06-06 15:04:56.985142,599616642492697207,31.00
2025-06-06 15:04:56.985142,599616642492697207,34.00
2025-06-06 15:04:56.985142,599616642492697207,34.00
2025-06-06 15:04:56.985142,599616642492697207,29.00
2025-06-06 15:04:56.985142,599616642492697207,24.00
2025-06-06 15:04:56.985142,599616642492697207,19.00
2025-06-06 15:04:56.985142,599616642492697207,19.00
2025-06-06 15:04:56.985142,599616642492697207,26.00
2025-06-06 15:04:56.985142,599616642492697207,-29.00
2025-06-06 15:04:56.985142,599616642492697207,-345.00
2025-06-06 15:04:56.985142,599616642492697207,-919.00
2025-06-06 15:04:57.524862,599616643053424766,-1459.00
2025-06-06 15:04:57.524862,599616643053424766,-1618.00
2025-06-06 15:04:57.524862,599616643053424766,-1080.00
2025-06-06 15:04:57.524862,599616643053424766,-63.00
2025-06-06 15:04:57.524862,599616643053424766,408.00
2025-06-06 15:04:57.524862,599616643053424766,75.00
2025-06-06 15:04:57.524862,599616643053424766,-70.00
2025-06-06 15:04:57.524862,599616643053424766,131.00
2025-06-06 15:04:57.524862,599616643053424766,102.00
2025-06-06 15:04:57.524862,599616643053424766,-4.00
2025-06-06 15:04:57.524862,599616643053424766,26.00
2025-06-06 15:04:57.524862,599616643053424766,21.00
2025-06-06 15:04:57.524862,599616643053424766,-36.00
2025-06-06 15:04:57.524862,599616643053424766,-51.00
2025-06-06 15:04:57.524862,599616643053424766,-63.00
2025-06-06 15:04:57.524862,599616643053424766,-99.00
2025-06-06 15:04:57.524862,599616643053424766,-131.00
2025-06-06 15:04:57.524862,599616643053424766,-158.00
2025-06-06 15:04:57.524862,599616643053424766,-192.00
2025-06-06 15:04:57.524862,599616643053424766,-226.00
2025-06-06 15:04:57.524862,599616643053424766,-260.00
2025-06-06 15:04:57.524862,599616643053424766,-294.00
2025-06-06 15:04:57.524862,599616643053424766,-326.00
2025-06-06 15:04:57.524862,599616643053424766,-350.00
2025-06-06 15:04:57.524862,599616643053424766,-367.00
2025-06-06 15:04:57.524862,599616643053424766,-374.00
2025-06-06 15:04:57.524862,599616643053424766,-377.00
2025-06-06 15:04:57.524862,599616643053424766,-372.00
2025-06-06 15:04:57.524862,599616643053424766,-357.00
2025-06-06 15:04:57.524862,599616643053424766,-328.00
2025-06-06 15:04:57.524862,599616643053424766,-272.00
2025-06-06 15:04:57.524862,599616643053424766,-197.00
2025-06-06 15:04:57.524862,599616643053424766,-111.00
2025-06-06 15:04:57.524862,599616643053424766,-26.00
2025-06-06 15:04:57.524862,599616643053424766,51.00
2025-06-06 15:04:57.524862,599616643053424766,107.00
2025-06-06 15:04:57.524862,599616643053424766,141.00
2025-06-06 15:04:57.524862,599616643053424766,163.00
2025-06-06 15:04:57.524862,599616643053424766,167.00
2025-06-06 15:04:57.524862,599616643053424766,163.00
2025-06-06 15:04:57.524862,599616643053424766,153.00
2025-06-06 15:04:57.524862,599616643053424766,143.00
2025-06-06 15:04:57.524862,599616643053424766,128.00
2025-06-06 15:04:57.524862,599616643053424766,116.00
2025-06-06 15:04:57.524862,599616643053424766,107.00
2025-06-06 15:04:57.524862,599616643053424766,94.00
2025-06-06 15:04:57.524862,599616643053424766,85.00
2025-06-06 15:04:57.524862,599616643053424766,77.00
2025-06-06 15:04:57.524862,599616643053424766,70.00
2025-06-06 15:04:57.524862,599616643053424766,70.00
2025-06-06 15:04:57.524862,599616643053424766,68.00
2025-06-06 15:04:57.524862,599616643053424766,63.00
2025-06-06 15:04:57.524862,599616643053424766,60.00
2025-06-06 15:04:57.524862,599616643053424766,63.00
2025-06-06 15:04:57.524862,599616643053424766,68.00
2025-06-06 15:04:57.524862,599616643053424766,68.00
2025-06-06 15:04:57.524862,599616643053424766,68.00
2025-06-06 15:04:57.524862,599616643053424766,65.00
2025-06-06 15:04:57.524862,599616643053424766,60.00
2025-06-06 15:04:57.524862,599616643053424766,58.00
2025-06-06 15:04:57.524862,599616643053424766,55.00
2025-06-06 15:04:57.524862,599616643053424766,46.00
2025-06-06 15:04:57.524862,599616643053424766,34.00
2025-06-06 15:04:57.524862,599616643053424766,29.00
2025-06-06 15:04:57.524862,599616643053424766,29.00
2025-06-06 15:04:57.524862,599616643053424766,17.00
2025-06-06 15:04:57.524862,599616643053424766,-9.00
2025-06-06 15:04:57.524862,599616643053424766,-4.00
2025-06-06 15:04:57.524862,599616643053424766,29.00
2025-06-06 15:04:57.524862,599616643053424766,48.00
2025-06-06 15:04:57.524862,599616643053424766,48.00
2025-06-06 15:04:57.524862,599616643053424766,46.00
2025-06-06 15:04:57.524862,599616643053424766,43.00
2025-06-06 15:04:58.096961,599616643614121807,41.00
2025-06-06 15:04:58.096961,599616643614121807,38.00
2025-06-06 15:04:58.096961,599616643614121807,38.00
2025-06-06 15:04:58.096961,599616643614121807,34.00
2025-06-06 15:04:58.096961,599616643614121807,34.00
2025-06-06 15:04:58.096961,599616643614121807,31.00
2025-06-06 15:04:58.096961,599616643614121807,29.00
2025-06-06 15:04:58.096961,599616643614121807,31.00
2025-06-06 15:04:58.096961,599616643614121807,-29.00
2025-06-06 15:04:58.096961,599616643614121807,-352.00
2025-06-06 15:04:58.096961,599616643614121807,-946.00
2025-06-06 15:04:58.096961,599616643614121807,-1457.00
2025-06-06 15:04:58.096961,599616643614121807,-1549.00
2025-06-06 15:04:58.096961,599616643614121807,-985.00
2025-06-06 15:04:58.096961,599616643614121807,43.00
2025-06-06 15:04:58.096961,599616643614121807,486.00
2025-06-06 15:04:58.096961,599616643614121807,90.00
2025-06-06 15:04:58.096961,599616643614121807,-65.00
2025-06-06 15:04:58.096961,599616643614121807,141.00
2025-06-06 15:04:58.096961,599616643614121807,99.00
2025-06-06 15:04:58.096961,599616643614121807,-9.00
2025-06-06 15:04:58.096961,599616643614121807,24.00
2025-06-06 15:04:58.096961,599616643614121807,14.00
2025-06-06 15:04:58.096961,599616643614121807,-46.00
2025-06-06 15:04:58.096961,599616643614121807,-58.00
2025-06-06 15:04:58.096961,599616643614121807,-70.00
2025-06-06 15:04:58.096961,599616643614121807,-109.00
2025-06-06 15:04:58.096961,599616643614121807,-141.00
2025-06-06 15:04:58.096961,599616643614121807,-167.00
2025-06-06 15:04:58.096961,599616643614121807,-201.00
2025-06-06 15:04:58.096961,599616643614121807,-233.00
2025-06-06 15:04:58.096961,599616643614121807,-267.00
2025-06-06 15:04:58.096961,599616643614121807,-304.00
2025-06-06 15:04:58.096961,599616643614121807,-333.00
2025-06-06 15:04:58.096961,599616643614121807,-352.00
2025-06-06 15:04:58.096961,599616643614121807,-367.00
2025-06-06 15:04:58.096961,599616643614121807,-377.00
2025-06-06 15:04:58.096961,599616643614121807,-377.00
2025-06-06 15:04:58.096961,599616643614121807,-369.00
2025-06-06 15:04:58.096961,599616643614121807,-357.00
2025-06-06 15:04:58.096961,599616643614121807,-326.00
2025-06-06 15:04:58.096961,599616643614121807,-267.00
2025-06-06 15:04:58.096961,599616643614121807,-189.00
2025-06-06 15:04:58.096961,599616643614121807,-99.00
2025-06-06 15:04:58.096961,599616643614121807,-12.00
2025-06-06 15:04:58.096961,599616643614121807,58.00
2025-06-06 15:04:58.096961,599616643614121807,109.00
2025-06-06 15:04:58.096961,599616643614121807,148.00
2025-06-06 15:04:58.096961,599616643614121807,165.00
2025-06-06 15:04:58.096961,599616643614121807,167.00
2025-06-06 15:04:58.096961,599616643614121807,167.00
2025-06-06 15:04:58.096961,599616643614121807,165.00
2025-06-06 15:04:58.096961,599616643614121807,150.00
2025-06-06 15:04:58.096961,599616643614121807,136.00
2025-06-06 15:04:58.096961,599616643614121807,124.00
2025-06-06 15:04:58.096961,599616643614121807,111.00
2025-06-06 15:04:58.096961,599616643614121807,97.00
2025-06-06 15:04:58.096961,599616643614121807,85.00
2025-06-06 15:04:58.096961,599616643614121807,75.00
2025-06-06 15:04:58.096961,599616643614121807,70.00
2025-06-06 15:04:58.096961,599616643614121807,65.00
2025-06-06 15:04:58.096961,599616643614121807,63.00
2025-06-06 15:04:58.096961,599616643614121807,65.00
2025-06-06 15:04:58.096961,599616643614121807,63.00
2025-06-06 15:04:58.096961,599616643614121807,63.00
2025-06-06 15:04:58.096961,599616643614121807,63.00
2025-06-06 15:04:58.096961,599616643614121807,60.00
2025-06-06 15:04:58.096961,599616643614121807,58.00
2025-06-06 15:04:58.096961,599616643614121807,58.00
2025-06-06 15:04:58.096961,599616643614121807,58.00
2025-06-06 15:04:58.096961,599616643614121807,55.00
2025-06-06 15:04:58.096961,599616643614121807,41.00
2025-06-06 15:04:58.096961,599616643614121807,31.00
2025-06-06 15:04:58.634151,599616644174818848,36.00
2025-06-06 15:04:58.634151,599616644174818848,31.00
2025-06-06 15:04:58.634151,599616644174818848,2.00
2025-06-06 15:04:58.634151,599616644174818848,-4.00
2025-06-06 15:04:58.634151,599616644174818848,29.00
2025-06-06 15:04:58.634151,599616644174818848,58.00
2025-06-06 15:04:58.634151,599616644174818848,60.00
2025-06-06 15:04:58.634151,599616644174818848,55.00
2025-06-06 15:04:58.634151,599616644174818848,53.00
2025-06-06 15:04:58.634151,599616644174818848,51.00
2025-06-06 15:04:58.634151,599616644174818848,48.00
2025-06-06 15:04:58.634151,599616644174818848,48.00
2025-06-06 15:04:58.634151,599616644174818848,46.00
2025-06-06 15:04:58.634151,599616644174818848,38.00
2025-06-06 15:04:58.634151,599616644174818848,38.00
2025-06-06 15:04:58.634151,599616644174818848,36.00
2025-06-06 15:04:58.634151,599616644174818848,34.00
2025-06-06 15:04:58.634151,599616644174818848,21.00
2025-06-06 15:04:58.634151,599616644174818848,-138.00
2025-06-06 15:04:58.634151,599616644174818848,-615.00
2025-06-06 15:04:58.634151,599616644174818848,-1211.00
2025-06-06 15:04:58.634151,599616644174818848,-1559.00
2025-06-06 15:04:58.634151,599616644174818848,-1367.00
2025-06-06 15:04:58.634151,599616644174818848,-474.00
2025-06-06 15:04:58.634151,599616644174818848,394.00
2025-06-06 15:04:58.634151,599616644174818848,328.00
2025-06-06 15:04:58.634151,599616644174818848,-60.00
2025-06-06 15:04:58.634151,599616644174818848,34.00
2025-06-06 15:04:58.634151,599616644174818848,153.00
2025-06-06 15:04:58.634151,599616644174818848,34.00
2025-06-06 15:04:58.634151,599616644174818848,4.00
2025-06-06 15:04:58.634151,599616644174818848,38.00
2025-06-06 15:04:58.634151,599616644174818848,-9.00
2025-06-06 15:04:58.634151,599616644174818848,-53.00
2025-06-06 15:04:58.634151,599616644174818848,-60.00
2025-06-06 15:04:58.634151,599616644174818848,-87.00
2025-06-06 15:04:58.634151,599616644174818848,-121.00
2025-06-06 15:04:58.634151,599616644174818848,-145.00
2025-06-06 15:04:58.634151,599616644174818848,-180.00
2025-06-06 15:04:58.634151,599616644174818848,-216.00
2025-06-06 15:04:58.634151,599616644174818848,-248.00
2025-06-06 15:04:58.634151,599616644174818848,-279.00
2025-06-06 15:04:58.634151,599616644174818848,-311.00
2025-06-06 15:04:58.634151,599616644174818848,-340.00
2025-06-06 15:04:58.634151,599616644174818848,-360.00
2025-06-06 15:04:58.634151,599616644174818848,-372.00
2025-06-06 15:04:58.634151,599616644174818848,-374.00
2025-06-06 15:04:58.634151,599616644174818848,-369.00
2025-06-06 15:04:58.634151,599616644174818848,-357.00
2025-06-06 15:04:58.634151,599616644174818848,-330.00
2025-06-06 15:04:58.634151,599616644174818848,-284.00
2025-06-06 15:04:58.634151,599616644174818848,-209.00
2025-06-06 15:04:58.634151,599616644174818848,-121.00
2025-06-06 15:04:58.634151,599616644174818848,-36.00
2025-06-06 15:04:58.634151,599616644174818848,36.00
2025-06-06 15:04:58.634151,599616644174818848,94.00
2025-06-06 15:04:58.634151,599616644174818848,133.00
2025-06-06 15:04:58.634151,599616644174818848,153.00
2025-06-06 15:04:58.634151,599616644174818848,163.00
2025-06-06 15:04:58.634151,599616644174818848,163.00
2025-06-06 15:04:58.634151,599616644174818848,158.00
2025-06-06 15:04:58.634151,599616644174818848,148.00
2025-06-06 15:04:58.634151,599616644174818848,136.00
2025-06-06 15:04:58.634151,599616644174818848,121.00
2025-06-06 15:04:58.634151,599616644174818848,109.00
2025-06-06 15:04:58.634151,599616644174818848,97.00
2025-06-06 15:04:58.634151,599616644174818848,85.00
2025-06-06 15:04:58.634151,599616644174818848,72.00
2025-06-06 15:04:58.634151,599616644174818848,65.00
2025-06-06 15:04:58.634151,599616644174818848,58.00
2025-06-06 15:04:58.634151,599616644174818848,55.00
2025-06-06 15:04:58.634151,599616644174818848,53.00
2025-06-06 15:04:58.634151,599616644174818848,53.00
2025-06-06 15:04:59.174959,599616644735515889,53.00
2025-06-06 15:04:59.174959,599616644735515889,53.00
2025-06-06 15:04:59.174959,599616644735515889,53.00
2025-06-06 15:04:59.174959,599616644735515889,55.00
2025-06-06 15:04:59.174959,599616644735515889,55.00
2025-06-06 15:04:59.174959,599616644735515889,55.00
2025-06-06 15:04:59.174959,599616644735515889,55.00
2025-06-06 15:04:59.174959,599616644735515889,55.00
2025-06-06 15:04:59.174959,599616644735515889,55.00
2025-06-06 15:04:59.174959,599616644735515889,53.00
2025-06-06 15:04:59.174959,599616644735515889,48.00
2025-06-06 15:04:59.174959,599616644735515889,41.00
2025-06-06 15:04:59.174959,599616644735515889,38.00
2025-06-06 15:04:59.174959,599616644735515889,34.00
2025-06-06 15:04:59.174959,599616644735515889,19.00
2025-06-06 15:04:59.174959,599616644735515889,4.00
2025-06-06 15:04:59.174959,599616644735515889,9.00
2025-06-06 15:04:59.174959,599616644735515889,12.00
2025-06-06 15:04:59.174959,599616644735515889,-12.00
2025-06-06 15:04:59.174959,599616644735515889,-36.00
2025-06-06 15:04:59.174959,599616644735515889,-19.00
2025-06-06 15:04:59.174959,599616644735515889,17.00
2025-06-06 15:04:59.174959,599616644735515889,34.00
2025-06-06 15:04:59.174959,599616644735515889,29.00
2025-06-06 15:04:59.174959,599616644735515889,21.00
2025-06-06 15:04:59.174959,599616644735515889,21.00
2025-06-06 15:04:59.174959,599616644735515889,21.00
2025-06-06 15:04:59.174959,599616644735515889,21.00
2025-06-06 15:04:59.174959,599616644735515889,19.00
2025-06-06 15:04:59.174959,599616644735515889,19.00
2025-06-06 15:04:59.174959,599616644735515889,14.00
2025-06-06 15:04:59.174959,599616644735515889,9.00
2025-06-06 15:04:59.174959,599616644735515889,12.00
2025-06-06 15:04:59.174959,599616644735515889,7.00
2025-06-06 15:04:59.174959,599616644735515889,-160.00
2025-06-06 15:04:59.174959,599616644735515889,-613.00
2025-06-06 15:04:59.174959,599616644735515889,-1180.00
2025-06-06 15:04:59.174959,599616644735515889,-1545.00
2025-06-06 15:04:59.174959,599616644735515889,-1360.00
2025-06-06 15:04:59.174959,599616644735515889,-498.00
2025-06-06 15:04:59.174959,599616644735515889,291.00
2025-06-06 15:04:59.174959,599616644735515889,238.00
2025-06-06 15:04:59.174959,599616644735515889,-85.00
2025-06-06 15:04:59.174959,599616644735515889,14.00
2025-06-06 15:04:59.174959,599616644735515889,124.00
2025-06-06 15:04:59.174959,599616644735515889,9.00
2025-06-06 15:04:59.174959,599616644735515889,-17.00
2025-06-06 15:04:59.174959,599616644735515889,12.00
2025-06-06 15:04:59.174959,599616644735515889,-31.00
2025-06-06 15:04:59.174959,599616644735515889,-70.00
2025-06-06 15:04:59.174959,599616644735515889,-75.00
2025-06-06 15:04:59.174959,599616644735515889,-102.00
2025-06-06 15:04:59.174959,599616644735515889,-138.00
2025-06-06 15:04:59.174959,599616644735515889,-163.00
2025-06-06 15:04:59.174959,599616644735515889,-192.00
2025-06-06 15:04:59.174959,599616644735515889,-228.00
2025-06-06 15:04:59.174959,599616644735515889,-260.00
2025-06-06 15:04:59.174959,599616644735515889,-291.00
2025-06-06 15:04:59.174959,599616644735515889,-326.00
2025-06-06 15:04:59.174959,599616644735515889,-355.00
2025-06-06 15:04:59.174959,599616644735515889,-377.00
2025-06-06 15:04:59.174959,599616644735515889,-394.00
2025-06-06 15:04:59.174959,599616644735515889,-403.00
2025-06-06 15:04:59.174959,599616644735515889,-406.00
2025-06-06 15:04:59.174959,599616644735515889,-399.00
2025-06-06 15:04:59.174959,599616644735515889,-379.00
2025-06-06 15:04:59.174959,599616644735515889,-333.00
2025-06-06 15:04:59.174959,599616644735515889,-262.00
2025-06-06 15:04:59.174959,599616644735515889,-177.00
2025-06-06 15:04:59.174959,599616644735515889,-85.00
2025-06-06 15:04:59.174959,599616644735515889,-2.00
2025-06-06 15:04:59.174959,599616644735515889,65.00
2025-06-06 15:04:59.174959,599616644735515889,114.00
2025-06-06 15:04:59.747433,599616645296243448,141.00
2025-06-06 15:04:59.747433,599616645296243448,155.00
2025-06-06 15:04:59.747433,599616645296243448,158.00
2025-06-06 15:04:59.747433,599616645296243448,155.00
2025-06-06 15:04:59.747433,599616645296243448,150.00
2025-06-06 15:04:59.747433,599616645296243448,141.00
2025-06-06 15:04:59.747433,599616645296243448,124.00
2025-06-06 15:04:59.747433,599616645296243448,109.00
2025-06-06 15:04:59.747433,599616645296243448,99.00
2025-06-06 15:04:59.747433,599616645296243448,87.00
2025-06-06 15:04:59.747433,599616645296243448,75.00
2025-06-06 15:04:59.747433,599616645296243448,68.00
2025-06-06 15:04:59.747433,599616645296243448,60.00
2025-06-06 15:04:59.747433,599616645296243448,55.00
2025-06-06 15:04:59.747433,599616645296243448,53.00
2025-06-06 15:04:59.747433,599616645296243448,51.00
2025-06-06 15:04:59.747433,599616645296243448,51.00
2025-06-06 15:04:59.747433,599616645296243448,51.00
2025-06-06 15:04:59.747433,599616645296243448,48.00
2025-06-06 15:04:59.747433,599616645296243448,51.00
2025-06-06 15:04:59.747433,599616645296243448,53.00
2025-06-06 15:04:59.747433,599616645296243448,51.00
2025-06-06 15:04:59.747433,599616645296243448,53.00
2025-06-06 15:04:59.747433,599616645296243448,51.00
2025-06-06 15:04:59.747433,599616645296243448,48.00
2025-06-06 15:04:59.747433,599616645296243448,46.00
2025-06-06 15:04:59.747433,599616645296243448,43.00
2025-06-06 15:04:59.747433,599616645296243448,38.00
2025-06-06 15:04:59.747433,599616645296243448,26.00
2025-06-06 15:04:59.747433,599616645296243448,9.00
2025-06-06 15:04:59.747433,599616645296243448,12.00
2025-06-06 15:04:59.747433,599616645296243448,17.00
2025-06-06 15:04:59.747433,599616645296243448,-7.00
2025-06-06 15:04:59.747433,599616645296243448,-36.00
2025-06-06 15:04:59.747433,599616645296243448,-21.00
2025-06-06 15:04:59.747433,599616645296243448,17.00
2025-06-06 15:04:59.747433,599616645296243448,34.00
2025-06-06 15:04:59.747433,599616645296243448,29.00
2025-06-06 15:04:59.747433,599616645296243448,24.00
2025-06-06 15:04:59.747433,599616645296243448,24.00
2025-06-06 15:04:59.747433,599616645296243448,24.00
2025-06-06 15:04:59.747433,599616645296243448,21.00
2025-06-06 15:04:59.747433,599616645296243448,19.00
2025-06-06 15:04:59.747433,599616645296243448,17.00
2025-06-06 15:04:59.747433,599616645296243448,14.00
2025-06-06 15:04:59.747433,599616645296243448,7.00
2025-06-06 15:04:59.747433,599616645296243448,7.00
2025-06-06 15:04:59.747433,599616645296243448,14.00
2025-06-06 15:04:59.747433,599616645296243448,-90.00
2025-06-06 15:04:59.747433,599616645296243448,-476.00
2025-06-06 15:04:59.747433,599616645296243448,-1058.00
2025-06-06 15:04:59.747433,599616645296243448,-1523.00
2025-06-06 15:04:59.747433,599616645296243448,-1503.00
2025-06-06 15:04:59.747433,599616645296243448,-778.00
2025-06-06 15:04:59.747433,599616645296243448,133.00
2025-06-06 15:04:59.747433,599616645296243448,313.00
2025-06-06 15:04:59.747433,599616645296243448,-41.00
2025-06-06 15:04:59.747433,599616645296243448,-46.00
2025-06-06 15:04:59.747433,599616645296243448,124.00
2025-06-06 15:04:59.747433,599616645296243448,43.00
2025-06-06 15:04:59.747433,599616645296243448,-24.00
2025-06-06 15:04:59.747433,599616645296243448,7.00
2025-06-06 15:04:59.747433,599616645296243448,-19.00
2025-06-06 15:04:59.747433,599616645296243448,-68.00
2025-06-06 15:04:59.747433,599616645296243448,-75.00
2025-06-06 15:04:59.747433,599616645296243448,-97.00
2025-06-06 15:04:59.747433,599616645296243448,-133.00
2025-06-06 15:04:59.747433,599616645296243448,-160.00
2025-06-06 15:04:59.747433,599616645296243448,-187.00
2025-06-06 15:04:59.747433,599616645296243448,-223.00
2025-06-06 15:04:59.747433,599616645296243448,-257.00
2025-06-06 15:04:59.747433,599616645296243448,-291.00
2025-06-06 15:04:59.747433,599616645296243448,-323.00
2025-06-06 15:05:00.343933,599616645856940491,-352.00
2025-06-06 15:05:00.343933,599616645856940491,-377.00
2025-06-06 15:05:00.343933,599616645856940491,-394.00
2025-06-06 15:05:00.343933,599616645856940491,-399.00
2025-06-06 15:05:00.343933,599616645856940491,-396.00
2025-06-06 15:05:00.343933,599616645856940491,-389.00
2025-06-06 15:05:00.343933,599616645856940491,-369.00
2025-06-06 15:05:00.343933,599616645856940491,-328.00
2025-06-06 15:05:00.343933,599616645856940491,-260.00
2025-06-06 15:05:00.343933,599616645856940491,-175.00
2025-06-06 15:05:00.343933,599616645856940491,-85.00
2025-06-06 15:05:00.343933,599616645856940491,-4.00
2025-06-06 15:05:00.343933,599616645856940491,63.00
2025-06-06 15:05:00.343933,599616645856940491,111.00
2025-06-06 15:05:00.343933,599616645856940491,138.00
2025-06-06 15:05:00.343933,599616645856940491,153.00
2025-06-06 15:05:00.343933,599616645856940491,158.00
2025-06-06 15:05:00.343933,599616645856940491,155.00
2025-06-06 15:05:00.343933,599616645856940491,148.00
2025-06-06 15:05:00.343933,599616645856940491,136.00
2025-06-06 15:05:00.343933,599616645856940491,121.00
2025-06-06 15:05:00.343933,599616645856940491,107.00
2025-06-06 15:05:00.343933,599616645856940491,97.00
2025-06-06 15:05:00.343933,599616645856940491,87.00
2025-06-06 15:05:00.343933,599616645856940491,75.00
2025-06-06 15:05:00.343933,599616645856940491,68.00
2025-06-06 15:05:00.343933,599616645856940491,60.00
2025-06-06 15:05:00.343933,599616645856940491,55.00
2025-06-06 15:05:00.343933,599616645856940491,53.00
2025-06-06 15:05:00.343933,599616645856940491,51.00
2025-06-06 15:05:00.343933,599616645856940491,53.00
2025-06-06 15:05:00.343933,599616645856940491,53.00
2025-06-06 15:05:00.343933,599616645856940491,53.00
2025-06-06 15:05:00.343933,599616645856940491,51.00
2025-06-06 15:05:00.343933,599616645856940491,53.00
2025-06-06 15:05:00.343933,599616645856940491,53.00
2025-06-06 15:05:00.343933,599616645856940491,53.00
2025-06-06 15:05:00.343933,599616645856940491,48.00
2025-06-06 15:05:00.343933,599616645856940491,48.00
2025-06-06 15:05:00.343933,599616645856940491,48.00
2025-06-06 15:05:00.343933,599616645856940491,43.00
2025-06-06 15:05:00.343933,599616645856940491,38.00
2025-06-06 15:05:00.343933,599616645856940491,34.00
2025-06-06 15:05:00.343933,599616645856940491,19.00
2025-06-06 15:05:00.343933,599616645856940491,9.00
2025-06-06 15:05:00.343933,599616645856940491,14.00
2025-06-06 15:05:00.343933,599616645856940491,9.00
2025-06-06 15:05:00.343933,599616645856940491,-19.00
2025-06-06 15:05:00.343933,599616645856940491,-29.00
2025-06-06 15:05:00.343933,599616645856940491,0.00
2025-06-06 15:05:00.343933,599616645856940491,31.00
2025-06-06 15:05:00.343933,599616645856940491,34.00
2025-06-06 15:05:00.343933,599616645856940491,26.00
2025-06-06 15:05:00.343933,599616645856940491,26.00
2025-06-06 15:05:00.343933,599616645856940491,24.00
2025-06-06 15:05:00.343933,599616645856940491,21.00
2025-06-06 15:05:00.343933,599616645856940491,24.00
2025-06-06 15:05:00.343933,599616645856940491,21.00
2025-06-06 15:05:00.343933,599616645856940491,14.00
2025-06-06 15:05:00.343933,599616645856940491,9.00
2025-06-06 15:05:00.343933,599616645856940491,9.00
2025-06-06 15:05:00.343933,599616645856940491,12.00
2025-06-06 15:05:00.343933,599616645856940491,-26.00
2025-06-06 15:05:00.343933,599616645856940491,-289.00
2025-06-06 15:05:00.343933,599616645856940491,-841.00
2025-06-06 15:05:00.343933,599616645856940491,-1389.00
2025-06-06 15:05:00.343933,599616645856940491,-1591.00
2025-06-06 15:05:00.343933,599616645856940491,-1177.00
2025-06-06 15:05:00.343933,599616645856940491,-180.00
2025-06-06 15:05:00.343933,599616645856940491,440.00
2025-06-06 15:05:00.343933,599616645856940491,143.00
2025-06-06 15:05:00.343933,599616645856940491,-104.00
2025-06-06 15:05:00.343933,599616645856940491,85.00
2025-06-06 15:05:00.883844,599616646417647704,102.00
2025-06-06 15:05:00.883844,599616646417647704,-19.00
2025-06-06 15:05:00.883844,599616646417647704,-2.00
2025-06-06 15:05:00.883844,599616646417647704,4.00
2025-06-06 15:05:00.883844,599616646417647704,-55.00
2025-06-06 15:05:00.883844,599616646417647704,-75.00
2025-06-06 15:05:00.883844,599616646417647704,-85.00
2025-06-06 15:05:00.883844,599616646417647704,-124.00
2025-06-06 15:05:00.883844,599616646417647704,-155.00
2025-06-06 15:05:00.883844,599616646417647704,-177.00
2025-06-06 15:05:00.883844,599616646417647704,-209.00
2025-06-06 15:05:00.883844,599616646417647704,-243.00
2025-06-06 15:05:00.883844,599616646417647704,-274.00
2025-06-06 15:05:00.883844,599616646417647704,-309.00
2025-06-06 15:05:00.883844,599616646417647704,-343.00
2025-06-06 15:05:00.883844,599616646417647704,-367.00
2025-06-06 15:05:00.883844,599616646417647704,-384.00
2025-06-06 15:05:00.883844,599616646417647704,-399.00
2025-06-06 15:05:00.883844,599616646417647704,-403.00
2025-06-06 15:05:00.883844,599616646417647704,-394.00
2025-06-06 15:05:00.883844,599616646417647704,-382.00
2025-06-06 15:05:00.883844,599616646417647704,-355.00
2025-06-06 15:05:00.883844,599616646417647704,-299.00
2025-06-06 15:05:00.883844,599616646417647704,-221.00
2025-06-06 15:05:00.883844,599616646417647704,-136.00
2025-06-06 15:05:00.883844,599616646417647704,-48.00
2025-06-06 15:05:00.883844,599616646417647704,29.00
2025-06-06 15:05:00.883844,599616646417647704,90.00
2025-06-06 15:05:00.883844,599616646417647704,128.00
2025-06-06 15:05:00.883844,599616646417647704,153.00
2025-06-06 15:05:00.883844,599616646417647704,160.00
2025-06-06 15:05:00.883844,599616646417647704,160.00
2025-06-06 15:05:00.883844,599616646417647704,158.00
2025-06-06 15:05:00.883844,599616646417647704,153.00
2025-06-06 15:05:00.883844,599616646417647704,141.00
2025-06-06 15:05:00.883844,599616646417647704,124.00
2025-06-06 15:05:00.883844,599616646417647704,109.00
2025-06-06 15:05:00.883844,599616646417647704,99.00
2025-06-06 15:05:00.883844,599616646417647704,87.00
2025-06-06 15:05:00.883844,599616646417647704,72.00
2025-06-06 15:05:00.883844,599616646417647704,65.00
2025-06-06 15:05:00.883844,599616646417647704,60.00
2025-06-06 15:05:00.883844,599616646417647704,55.00
2025-06-06 15:05:00.883844,599616646417647704,53.00
2025-06-06 15:05:00.883844,599616646417647704,53.00
2025-06-06 15:05:00.883844,599616646417647704,55.00
2025-06-06 15:05:00.883844,599616646417647704,55.00
2025-06-06 15:05:00.883844,599616646417647704,53.00
2025-06-06 15:05:00.883844,599616646417647704,55.00
2025-06-06 15:05:00.883844,599616646417647704,55.00
2025-06-06 15:05:00.883844,599616646417647704,51.00
2025-06-06 15:05:00.883844,599616646417647704,51.00
2025-06-06 15:05:00.883844,599616646417647704,51.00
2025-06-06 15:05:00.883844,599616646417647704,38.00
2025-06-06 15:05:00.883844,599616646417647704,24.00
2025-06-06 15:05:00.883844,599616646417647704,21.00
2025-06-06 15:05:00.883844,599616646417647704,26.00
2025-06-06 15:05:00.883844,599616646417647704,7.00
2025-06-06 15:05:00.883844,599616646417647704,-17.00
2025-06-06 15:05:00.883844,599616646417647704,-2.00
2025-06-06 15:05:00.883844,599616646417647704,36.00
2025-06-06 15:05:00.883844,599616646417647704,51.00
2025-06-06 15:05:00.883844,599616646417647704,46.00
2025-06-06 15:05:00.883844,599616646417647704,43.00
2025-06-06 15:05:00.883844,599616646417647704,38.00
2025-06-06 15:05:00.883844,599616646417647704,36.00
2025-06-06 15:05:00.883844,599616646417647704,38.00
2025-06-06 15:05:00.883844,599616646417647704,36.00
2025-06-06 15:05:00.883844,599616646417647704,31.00
2025-06-06 15:05:00.883844,599616646417647704,26.00
2025-06-06 15:05:00.883844,599616646417647704,24.00
2025-06-06 15:05:00.883844,599616646417647704,21.00
2025-06-06 15:05:00.883844,599616646417647704,24.00
2025-06-06 15:05:01.456018,599616646978365091,-14.00
2025-06-06 15:05:01.456018,599616646978365091,-284.00
2025-06-06 15:05:01.456018,599616646978365091,-851.00
2025-06-06 15:05:01.456018,599616646978365091,-1396.00
2025-06-06 15:05:01.456018,599616646978365091,-1576.00
2025-06-06 15:05:01.456018,599616646978365091,-1121.00
2025-06-06 15:05:01.456018,599616646978365091,-99.00
2025-06-06 15:05:01.456018,599616646978365091,479.00
2025-06-06 15:05:01.456018,599616646978365091,133.00
2025-06-06 15:05:01.456018,599616646978365091,-99.00
2025-06-06 15:05:01.456018,599616646978365091,99.00
2025-06-06 15:05:01.456018,599616646978365091,104.00
2025-06-06 15:05:01.456018,599616646978365091,-14.00
2025-06-06 15:05:01.456018,599616646978365091,9.00
2025-06-06 15:05:01.456018,599616646978365091,17.00
2025-06-06 15:05:01.456018,599616646978365091,-46.00
2025-06-06 15:05:01.456018,599616646978365091,-68.00
2025-06-06 15:05:01.456018,599616646978365091,-77.00
2025-06-06 15:05:01.456018,599616646978365091,-114.00
2025-06-06 15:05:01.456018,599616646978365091,-150.00
2025-06-06 15:05:01.456018,599616646978365091,-175.00
2025-06-06 15:05:01.456018,599616646978365091,-206.00
2025-06-06 15:05:01.456018,599616646978365091,-238.00
2025-06-06 15:05:01.456018,599616646978365091,-272.00
2025-06-06 15:05:01.456018,599616646978365091,-309.00
2025-06-06 15:05:01.456018,599616646978365091,-338.00
2025-06-06 15:05:01.456018,599616646978365091,-362.00
2025-06-06 15:05:01.456018,599616646978365091,-379.00
2025-06-06 15:05:01.456018,599616646978365091,-386.00
2025-06-06 15:05:01.456018,599616646978365091,-386.00
2025-06-06 15:05:01.456018,599616646978365091,-382.00
2025-06-06 15:05:01.456018,599616646978365091,-362.00
2025-06-06 15:05:01.456018,599616646978365091,-323.00
2025-06-06 15:05:01.456018,599616646978365091,-262.00
2025-06-06 15:05:01.456018,599616646978365091,-182.00
2025-06-06 15:05:01.456018,599616646978365091,-94.00
2025-06-06 15:05:01.456018,599616646978365091,-12.00
2025-06-06 15:05:01.456018,599616646978365091,53.00
2025-06-06 15:05:01.456018,599616646978365091,102.00
2025-06-06 15:05:01.456018,599616646978365091,133.00
2025-06-06 15:05:01.456018,599616646978365091,153.00
2025-06-06 15:05:01.456018,599616646978365091,155.00
2025-06-06 15:05:01.456018,599616646978365091,153.00
2025-06-06 15:05:01.456018,599616646978365091,148.00
2025-06-06 15:05:01.456018,599616646978365091,138.00
2025-06-06 15:05:01.456018,599616646978365091,126.00
2025-06-06 15:05:01.456018,599616646978365091,109.00
2025-06-06 15:05:01.456018,599616646978365091,94.00
2025-06-06 15:05:01.456018,599616646978365091,80.00
2025-06-06 15:05:01.456018,599616646978365091,70.00
2025-06-06 15:05:01.456018,599616646978365091,63.00
2025-06-06 15:05:01.456018,599616646978365091,53.00
2025-06-06 15:05:01.456018,599616646978365091,48.00
2025-06-06 15:05:01.456018,599616646978365091,43.00
2025-06-06 15:05:01.456018,599616646978365091,41.00
2025-06-06 15:05:01.456018,599616646978365091,38.00
2025-06-06 15:05:01.456018,599616646978365091,38.00
2025-06-06 15:05:01.456018,599616646978365091,41.00
2025-06-06 15:05:01.456018,599616646978365091,41.00
2025-06-06 15:05:01.456018,599616646978365091,46.00
2025-06-06 15:05:01.456018,599616646978365091,46.00
2025-06-06 15:05:01.456018,599616646978365091,46.00
2025-06-06 15:05:01.456018,599616646978365091,43.00
2025-06-06 15:05:01.456018,599616646978365091,38.00
2025-06-06 15:05:01.456018,599616646978365091,38.00
2025-06-06 15:05:01.456018,599616646978365091,38.00
2025-06-06 15:05:01.456018,599616646978365091,31.00
2025-06-06 15:05:01.456018,599616646978365091,19.00
2025-06-06 15:05:01.456018,599616646978365091,9.00
2025-06-06 15:05:01.456018,599616646978365091,14.00
2025-06-06 15:05:01.456018,599616646978365091,2.00
2025-06-06 15:05:01.456018,599616646978365091,-29.00
2025-06-06 15:05:01.456018,599616646978365091,-34.00
2025-06-06 15:05:02.056541,599616647539082476,0.00
2025-06-06 15:05:02.056541,599616647539082476,29.00
2025-06-06 15:05:02.056541,599616647539082476,31.00
2025-06-06 15:05:02.056541,599616647539082476,24.00
2025-06-06 15:05:02.056541,599616647539082476,21.00
2025-06-06 15:05:02.056541,599616647539082476,21.00
2025-06-06 15:05:02.056541,599616647539082476,21.00
2025-06-06 15:05:02.056541,599616647539082476,19.00
2025-06-06 15:05:02.056541,599616647539082476,17.00
2025-06-06 15:05:02.056541,599616647539082476,14.00
2025-06-06 15:05:02.056541,599616647539082476,12.00
2025-06-06 15:05:02.056541,599616647539082476,7.00
2025-06-06 15:05:02.056541,599616647539082476,9.00
2025-06-06 15:05:02.056541,599616647539082476,-14.00
2025-06-06 15:05:02.056541,599616647539082476,-248.00
2025-06-06 15:05:02.056541,599616647539082476,-764.00
2025-06-06 15:05:02.056541,599616647539082476,-1323.00
2025-06-06 15:05:02.056541,599616647539082476,-1598.00
2025-06-06 15:05:02.056541,599616647539082476,-1236.00
2025-06-06 15:05:02.056541,599616647539082476,-265.00
2025-06-06 15:05:02.056541,599616647539082476,369.00
2025-06-06 15:05:02.056541,599616647539082476,136.00
2025-06-06 15:05:02.056541,599616647539082476,-104.00
2025-06-06 15:05:02.056541,599616647539082476,70.00
2025-06-06 15:05:02.056541,599616647539082476,107.00
2025-06-06 15:05:02.056541,599616647539082476,-9.00
2025-06-06 15:05:02.056541,599616647539082476,-2.00
2025-06-06 15:05:02.056541,599616647539082476,9.00
2025-06-06 15:05:02.056541,599616647539082476,-46.00
2025-06-06 15:05:02.056541,599616647539082476,-68.00
2025-06-06 15:05:02.056541,599616647539082476,-75.00
2025-06-06 15:05:02.056541,599616647539082476,-111.00
2025-06-06 15:05:02.056541,599616647539082476,-145.00
2025-06-06 15:05:02.056541,599616647539082476,-167.00
2025-06-06 15:05:02.056541,599616647539082476,-201.00
2025-06-06 15:05:02.056541,599616647539082476,-240.00
2025-06-06 15:05:02.056541,599616647539082476,-274.00
2025-06-06 15:05:02.056541,599616647539082476,-304.00
2025-06-06 15:05:02.056541,599616647539082476,-338.00
2025-06-06 15:05:02.056541,599616647539082476,-369.00
2025-06-06 15:05:02.056541,599616647539082476,-389.00
2025-06-06 15:05:02.056541,599616647539082476,-401.00
2025-06-06 15:05:02.056541,599616647539082476,-406.00
2025-06-06 15:05:02.056541,599616647539082476,-403.00
2025-06-06 15:05:02.056541,599616647539082476,-394.00
2025-06-06 15:05:02.056541,599616647539082476,-364.00
2025-06-06 15:05:02.056541,599616647539082476,-309.00
2025-06-06 15:05:02.056541,599616647539082476,-228.00
2025-06-06 15:05:02.056541,599616647539082476,-136.00
2025-06-06 15:05:02.056541,599616647539082476,-46.00
2025-06-06 15:05:02.056541,599616647539082476,26.00
2025-06-06 15:05:02.056541,599616647539082476,82.00
2025-06-06 15:05:02.056541,599616647539082476,121.00
2025-06-06 15:05:02.056541,599616647539082476,145.00
2025-06-06 15:05:02.056541,599616647539082476,153.00
2025-06-06 15:05:02.056541,599616647539082476,148.00
2025-06-06 15:05:02.056541,599616647539082476,143.00
2025-06-06 15:05:02.056541,599616647539082476,141.00
2025-06-06 15:05:02.056541,599616647539082476,131.00
2025-06-06 15:05:02.056541,599616647539082476,111.00
2025-06-06 15:05:02.056541,599616647539082476,94.00
2025-06-06 15:05:02.056541,599616647539082476,85.00
2025-06-06 15:05:02.056541,599616647539082476,77.00
2025-06-06 15:05:02.056541,599616647539082476,65.00
2025-06-06 15:05:02.056541,599616647539082476,55.00
2025-06-06 15:05:02.056541,599616647539082476,51.00
2025-06-06 15:05:02.056541,599616647539082476,48.00
2025-06-06 15:05:02.056541,599616647539082476,41.00
2025-06-06 15:05:02.056541,599616647539082476,41.00
2025-06-06 15:05:02.056541,599616647539082476,48.00
2025-06-06 15:05:02.056541,599616647539082476,48.00
2025-06-06 15:05:02.056541,599616647539082476,43.00
2025-06-06 15:05:02.056541,599616647539082476,46.00
2025-06-06 15:05:02.565758,599616648099784603,51.00
2025-06-06 15:05:02.565758,599616648099784603,48.00
2025-06-06 15:05:02.565758,599616648099784603,46.00
2025-06-06 15:05:02.565758,599616648099784603,46.00
2025-06-06 15:05:02.565758,599616648099784603,41.00
2025-06-06 15:05:02.565758,599616648099784603,38.00
2025-06-06 15:05:02.565758,599616648099784603,41.00
2025-06-06 15:05:02.565758,599616648099784603,29.00
2025-06-06 15:05:02.565758,599616648099784603,9.00
2025-06-06 15:05:02.565758,599616648099784603,4.00
2025-06-06 15:05:02.565758,599616648099784603,12.00
2025-06-06 15:05:02.565758,599616648099784603,-2.00
2025-06-06 15:05:02.565758,599616648099784603,-31.00
2025-06-06 15:05:02.565758,599616648099784603,-26.00
2025-06-06 15:05:02.565758,599616648099784603,12.00
2025-06-06 15:05:02.565758,599616648099784603,34.00
2025-06-06 15:05:02.565758,599616648099784603,29.00
2025-06-06 15:05:02.565758,599616648099784603,29.00
2025-06-06 15:05:02.565758,599616648099784603,29.00
2025-06-06 15:05:02.565758,599616648099784603,24.00
2025-06-06 15:05:02.565758,599616648099784603,21.00
2025-06-06 15:05:02.565758,599616648099784603,21.00
2025-06-06 15:05:02.565758,599616648099784603,19.00
2025-06-06 15:05:02.565758,599616648099784603,19.00
2025-06-06 15:05:02.565758,599616648099784603,17.00
2025-06-06 15:05:02.565758,599616648099784603,9.00
2025-06-06 15:05:02.565758,599616648099784603,12.00
2025-06-06 15:05:02.565758,599616648099784603,-24.00
2025-06-06 15:05:02.565758,599616648099784603,-299.00
2025-06-06 15:05:02.565758,599616648099784603,-856.00
2025-06-06 15:05:02.565758,599616648099784603,-1408.00
2025-06-06 15:05:02.565758,599616648099784603,-1625.00
2025-06-06 15:05:02.565758,599616648099784603,-1185.00
2025-06-06 15:05:02.565758,599616648099784603,-167.00
2025-06-06 15:05:02.565758,599616648099784603,420.00
2025-06-06 15:05:02.565758,599616648099784603,119.00
2025-06-06 15:05:02.565758,599616648099784603,-99.00
2025-06-06 15:05:02.565758,599616648099784603,97.00
2025-06-06 15:05:02.565758,599616648099784603,109.00
2025-06-06 15:05:02.565758,599616648099784603,-14.00
2025-06-06 15:05:02.565758,599616648099784603,0.00
2025-06-06 15:05:02.565758,599616648099784603,12.00
2025-06-06 15:05:02.565758,599616648099784603,-43.00
2025-06-06 15:05:02.565758,599616648099784603,-68.00
2025-06-06 15:05:02.565758,599616648099784603,-80.00
2025-06-06 15:05:02.565758,599616648099784603,-116.00
2025-06-06 15:05:02.565758,599616648099784603,-145.00
2025-06-06 15:05:02.565758,599616648099784603,-170.00
2025-06-06 15:05:02.565758,599616648099784603,-204.00
2025-06-06 15:05:02.565758,599616648099784603,-243.00
2025-06-06 15:05:02.565758,599616648099784603,-274.00
2025-06-06 15:05:02.565758,599616648099784603,-309.00
2025-06-06 15:05:02.565758,599616648099784603,-343.00
2025-06-06 15:05:02.565758,599616648099784603,-367.00
2025-06-06 15:05:02.565758,599616648099784603,-382.00
2025-06-06 15:05:02.565758,599616648099784603,-391.00
2025-06-06 15:05:02.565758,599616648099784603,-394.00
2025-06-06 15:05:02.565758,599616648099784603,-389.00
2025-06-06 15:05:02.565758,599616648099784603,-374.00
2025-06-06 15:05:02.565758,599616648099784603,-343.00
2025-06-06 15:05:02.565758,599616648099784603,-287.00
2025-06-06 15:05:02.565758,599616648099784603,-206.00
2025-06-06 15:05:02.565758,599616648099784603,-116.00
2025-06-06 15:05:02.565758,599616648099784603,-31.00
2025-06-06 15:05:02.565758,599616648099784603,41.00
2025-06-06 15:05:02.565758,599616648099784603,99.00
2025-06-06 15:05:02.565758,599616648099784603,138.00
2025-06-06 15:05:02.565758,599616648099784603,158.00
2025-06-06 15:05:02.565758,599616648099784603,163.00
2025-06-06 15:05:02.565758,599616648099784603,160.00
2025-06-06 15:05:02.565758,599616648099784603,158.00
2025-06-06 15:05:02.565758,599616648099784603,150.00
2025-06-06 15:05:02.565758,599616648099784603,136.00
2025-06-06 15:05:03.106721,599616648660486732,119.00
2025-06-06 15:05:03.106721,599616648660486732,107.00
2025-06-06 15:05:03.106721,599616648660486732,94.00
2025-06-06 15:05:03.106721,599616648660486732,82.00
2025-06-06 15:05:03.106721,599616648660486732,72.00
2025-06-06 15:05:03.106721,599616648660486732,68.00
2025-06-06 15:05:03.106721,599616648660486732,60.00
2025-06-06 15:05:03.106721,599616648660486732,55.00
2025-06-06 15:05:03.106721,599616648660486732,58.00
2025-06-06 15:05:03.106721,599616648660486732,58.00
2025-06-06 15:05:03.106721,599616648660486732,58.00
2025-06-06 15:05:03.106721,599616648660486732,58.00
2025-06-06 15:05:03.106721,599616648660486732,55.00
2025-06-06 15:05:03.106721,599616648660486732,60.00
2025-06-06 15:05:03.106721,599616648660486732,60.00
2025-06-06 15:05:03.106721,599616648660486732,58.00
2025-06-06 15:05:03.106721,599616648660486732,58.00
2025-06-06 15:05:03.106721,599616648660486732,58.00
2025-06-06 15:05:03.106721,599616648660486732,60.00
2025-06-06 15:05:03.106721,599616648660486732,53.00
2025-06-06 15:05:03.106721,599616648660486732,41.00
2025-06-06 15:05:03.106721,599616648660486732,41.00
2025-06-06 15:05:03.106721,599616648660486732,38.00
2025-06-06 15:05:03.106721,599616648660486732,19.00
2025-06-06 15:05:03.106721,599616648660486732,9.00
2025-06-06 15:05:03.106721,599616648660486732,19.00
2025-06-06 15:05:03.106721,599616648660486732,12.00
2025-06-06 15:05:03.106721,599616648660486732,-19.00
2025-06-06 15:05:03.106721,599616648660486732,-29.00
2025-06-06 15:05:03.106721,599616648660486732,2.00
2025-06-06 15:05:03.106721,599616648660486732,34.00
2025-06-06 15:05:03.106721,599616648660486732,38.00
2025-06-06 15:05:03.106721,599616648660486732,31.00
2025-06-06 15:05:03.106721,599616648660486732,29.00
2025-06-06 15:05:03.106721,599616648660486732,26.00
2025-06-06 15:05:03.106721,599616648660486732,21.00
2025-06-06 15:05:03.106721,599616648660486732,24.00
2025-06-06 15:05:03.106721,599616648660486732,24.00
2025-06-06 15:05:03.106721,599616648660486732,14.00
2025-06-06 15:05:03.106721,599616648660486732,12.00
2025-06-06 15:05:03.106721,599616648660486732,9.00
2025-06-06 15:05:03.106721,599616648660486732,12.00
2025-06-06 15:05:03.106721,599616648660486732,2.00
2025-06-06 15:05:03.106721,599616648660486732,-172.00
2025-06-06 15:05:03.106721,599616648660486732,-659.00
2025-06-06 15:05:03.106721,599616648660486732,-1253.00
2025-06-06 15:05:03.106721,599616648660486732,-1608.00
2025-06-06 15:05:03.106721,599616648660486732,-1389.00
2025-06-06 15:05:03.106721,599616648660486732,-464.00
2025-06-06 15:05:03.106721,599616648660486732,360.00
2025-06-06 15:05:03.106721,599616648660486732,253.00
2025-06-06 15:05:03.106721,599616648660486732,-94.00
2025-06-06 15:05:03.106721,599616648660486732,26.00
2025-06-06 15:05:03.106721,599616648660486732,126.00
2025-06-06 15:05:03.106721,599616648660486732,7.00
2025-06-06 15:05:03.106721,599616648660486732,-14.00
2025-06-06 15:05:03.106721,599616648660486732,14.00
2025-06-06 15:05:03.106721,599616648660486732,-36.00
2025-06-06 15:05:03.106721,599616648660486732,-72.00
2025-06-06 15:05:03.106721,599616648660486732,-75.00
2025-06-06 15:05:03.106721,599616648660486732,-102.00
2025-06-06 15:05:03.106721,599616648660486732,-138.00
2025-06-06 15:05:03.106721,599616648660486732,-165.00
2025-06-06 15:05:03.106721,599616648660486732,-199.00
2025-06-06 15:05:03.106721,599616648660486732,-233.00
2025-06-06 15:05:03.106721,599616648660486732,-262.00
2025-06-06 15:05:03.106721,599616648660486732,-296.00
2025-06-06 15:05:03.106721,599616648660486732,-333.00
2025-06-06 15:05:03.106721,599616648660486732,-360.00
2025-06-06 15:05:03.106721,599616648660486732,-377.00
2025-06-06 15:05:03.106721,599616648660486732,-391.00
2025-06-06 15:05:03.106721,599616648660486732,-394.00
2025-06-06 15:05:03.106721,599616648660486732,-389.00
2025-06-06 15:05:03.704391,599616649221214293,-377.00
2025-06-06 15:05:03.704391,599616649221214293,-355.00
2025-06-06 15:05:03.704391,599616649221214293,-311.00
2025-06-06 15:05:03.704391,599616649221214293,-238.00
2025-06-06 15:05:03.704391,599616649221214293,-148.00
2025-06-06 15:05:03.704391,599616649221214293,-63.00
2025-06-06 15:05:03.704391,599616649221214293,14.00
2025-06-06 15:05:03.704391,599616649221214293,80.00
2025-06-06 15:05:03.704391,599616649221214293,124.00
2025-06-06 15:05:03.704391,599616649221214293,145.00
2025-06-06 15:05:03.704391,599616649221214293,155.00
2025-06-06 15:05:03.704391,599616649221214293,160.00
2025-06-06 15:05:03.704391,599616649221214293,158.00
2025-06-06 15:05:03.704391,599616649221214293,153.00
2025-06-06 15:05:03.704391,599616649221214293,138.00
2025-06-06 15:05:03.704391,599616649221214293,121.00
2025-06-06 15:05:03.704391,599616649221214293,107.00
2025-06-06 15:05:03.704391,599616649221214293,97.00
2025-06-06 15:05:03.704391,599616649221214293,85.00
2025-06-06 15:05:03.704391,599616649221214293,68.00
2025-06-06 15:05:03.704391,599616649221214293,63.00
2025-06-06 15:05:03.704391,599616649221214293,58.00
2025-06-06 15:05:03.704391,599616649221214293,48.00
2025-06-06 15:05:03.704391,599616649221214293,51.00
2025-06-06 15:05:03.704391,599616649221214293,53.00
2025-06-06 15:05:03.704391,599616649221214293,48.00
2025-06-06 15:05:03.704391,599616649221214293,53.00
2025-06-06 15:05:03.704391,599616649221214293,55.00
2025-06-06 15:05:03.704391,599616649221214293,48.00
2025-06-06 15:05:03.704391,599616649221214293,51.00
2025-06-06 15:05:03.704391,599616649221214293,58.00
2025-06-06 15:05:03.704391,599616649221214293,53.00
2025-06-06 15:05:03.704391,599616649221214293,53.00
2025-06-06 15:05:03.704391,599616649221214293,55.00
2025-06-06 15:05:03.704391,599616649221214293,51.00
2025-06-06 15:05:03.704391,599616649221214293,48.00
2025-06-06 15:05:03.704391,599616649221214293,46.00
2025-06-06 15:05:03.704391,599616649221214293,36.00
2025-06-06 15:05:03.704391,599616649221214293,31.00
2025-06-06 15:05:03.704391,599616649221214293,34.00
2025-06-06 15:05:03.704391,599616649221214293,14.00
2025-06-06 15:05:03.704391,599616649221214293,-4.00
2025-06-06 15:05:03.704391,599616649221214293,4.00
2025-06-06 15:05:03.704391,599616649221214293,9.00
2025-06-06 15:05:03.704391,599616649221214293,-21.00
2025-06-06 15:05:03.704391,599616649221214293,-41.00
2025-06-06 15:05:03.704391,599616649221214293,-17.00
2025-06-06 15:05:03.704391,599616649221214293,14.00
2025-06-06 15:05:03.704391,599616649221214293,24.00
2025-06-06 15:05:03.704391,599616649221214293,21.00
2025-06-06 15:05:03.704391,599616649221214293,19.00
2025-06-06 15:05:03.704391,599616649221214293,24.00
2025-06-06 15:05:03.704391,599616649221214293,24.00
2025-06-06 15:05:03.704391,599616649221214293,12.00
2025-06-06 15:05:03.704391,599616649221214293,4.00
2025-06-06 15:05:03.704391,599616649221214293,7.00
2025-06-06 15:05:03.704391,599616649221214293,4.00
2025-06-06 15:05:03.704391,599616649221214293,0.00
2025-06-06 15:05:03.704391,599616649221214293,2.00
2025-06-06 15:05:03.704391,599616649221214293,2.00
2025-06-06 15:05:03.704391,599616649221214293,-138.00
2025-06-06 15:05:03.704391,599616649221214293,-566.00
2025-06-06 15:05:03.704391,599616649221214293,-1138.00
2025-06-06 15:05:03.704391,599616649221214293,-1532.00
2025-06-06 15:05:03.704391,599616649221214293,-1403.00
2025-06-06 15:05:03.704391,599616649221214293,-583.00
2025-06-06 15:05:03.704391,599616649221214293,253.00
2025-06-06 15:05:03.704391,599616649221214293,257.00
2025-06-06 15:05:03.704391,599616649221214293,-87.00
2025-06-06 15:05:03.704391,599616649221214293,-14.00
2025-06-06 15:05:03.704391,599616649221214293,116.00
2025-06-06 15:05:03.704391,599616649221214293,9.00
2025-06-06 15:05:03.704391,599616649221214293,-26.00
2025-06-06 15:05:04.276724,599616649781921506,7.00
2025-06-06 15:05:04.276724,599616649781921506,-34.00
2025-06-06 15:05:04.276724,599616649781921506,-75.00
2025-06-06 15:05:04.276724,599616649781921506,-80.00
2025-06-06 15:05:04.276724,599616649781921506,-107.00
2025-06-06 15:05:04.276724,599616649781921506,-145.00
2025-06-06 15:05:04.276724,599616649781921506,-167.00
2025-06-06 15:05:04.276724,599616649781921506,-192.00
2025-06-06 15:05:04.276724,599616649781921506,-231.00
2025-06-06 15:05:04.276724,599616649781921506,-265.00
2025-06-06 15:05:04.276724,599616649781921506,-291.00
2025-06-06 15:05:04.276724,599616649781921506,-326.00
2025-06-06 15:05:04.276724,599616649781921506,-360.00
2025-06-06 15:05:04.276724,599616649781921506,-384.00
2025-06-06 15:05:04.276724,599616649781921506,-391.00
2025-06-06 15:05:04.276724,599616649781921506,-391.00
2025-06-06 15:05:04.276724,599616649781921506,-394.00
2025-06-06 15:05:04.276724,599616649781921506,-389.00
2025-06-06 15:05:04.276724,599616649781921506,-364.00
2025-06-06 15:05:04.276724,599616649781921506,-318.00
2025-06-06 15:05:04.276724,599616649781921506,-248.00
2025-06-06 15:05:04.276724,599616649781921506,-160.00
2025-06-06 15:05:04.276724,599616649781921506,-68.00
2025-06-06 15:05:04.276724,599616649781921506,12.00
2025-06-06 15:05:04.276724,599616649781921506,72.00
2025-06-06 15:05:04.276724,599616649781921506,121.00
2025-06-06 15:05:04.276724,599616649781921506,153.00
2025-06-06 15:05:04.276724,599616649781921506,165.00
2025-06-06 15:05:04.276724,599616649781921506,167.00
2025-06-06 15:05:04.276724,599616649781921506,163.00
2025-06-06 15:05:04.276724,599616649781921506,153.00
2025-06-06 15:05:04.276724,599616649781921506,145.00
2025-06-06 15:05:04.276724,599616649781921506,136.00
2025-06-06 15:05:04.276724,599616649781921506,119.00
2025-06-06 15:05:04.276724,599616649781921506,99.00
2025-06-06 15:05:04.276724,599616649781921506,87.00
2025-06-06 15:05:04.276724,599616649781921506,82.00
2025-06-06 15:05:04.276724,599616649781921506,72.00
2025-06-06 15:05:04.276724,599616649781921506,65.00
2025-06-06 15:05:04.276724,599616649781921506,60.00
2025-06-06 15:05:04.276724,599616649781921506,58.00
2025-06-06 15:05:04.276724,599616649781921506,55.00
2025-06-06 15:05:04.276724,599616649781921506,55.00
2025-06-06 15:05:04.276724,599616649781921506,55.00
2025-06-06 15:05:04.276724,599616649781921506,53.00
2025-06-06 15:05:04.276724,599616649781921506,51.00
2025-06-06 15:05:04.276724,599616649781921506,51.00
2025-06-06 15:05:04.276724,599616649781921506,51.00
2025-06-06 15:05:04.276724,599616649781921506,53.00
2025-06-06 15:05:04.276724,599616649781921506,55.00
2025-06-06 15:05:04.276724,599616649781921506,51.00
2025-06-06 15:05:04.276724,599616649781921506,48.00
2025-06-06 15:05:04.276724,599616649781921506,48.00
2025-06-06 15:05:04.276724,599616649781921506,41.00
2025-06-06 15:05:04.276724,599616649781921506,34.00
2025-06-06 15:05:04.276724,599616649781921506,31.00
2025-06-06 15:05:04.276724,599616649781921506,31.00
2025-06-06 15:05:04.276724,599616649781921506,21.00
2025-06-06 15:05:04.276724,599616649781921506,2.00
2025-06-06 15:05:04.276724,599616649781921506,-4.00
2025-06-06 15:05:04.276724,599616649781921506,4.00
2025-06-06 15:05:04.276724,599616649781921506,-4.00
2025-06-06 15:05:04.276724,599616649781921506,-38.00
2025-06-06 15:05:04.276724,599616649781921506,-43.00
2025-06-06 15:05:04.276724,599616649781921506,-4.00
2025-06-06 15:05:04.276724,599616649781921506,26.00
2025-06-06 15:05:04.276724,599616649781921506,21.00
2025-06-06 15:05:04.276724,599616649781921506,12.00
2025-06-06 15:05:04.276724,599616649781921506,14.00
2025-06-06 15:05:04.276724,599616649781921506,14.00
2025-06-06 15:05:04.276724,599616649781921506,9.00
2025-06-06 15:05:04.276724,599616649781921506,7.00
2025-06-06 15:05:04.276724,599616649781921506,7.00
2025-06-06 15:05:04.815245,599616650342638893,4.00
2025-06-06 15:05:04.815245,599616650342638893,2.00
2025-06-06 15:05:04.815245,599616650342638893,0.00
2025-06-06 15:05:04.815245,599616650342638893,4.00
2025-06-06 15:05:04.815245,599616650342638893,-63.00
2025-06-06 15:05:04.815245,599616650342638893,-391.00
2025-06-06 15:05:04.815245,599616650342638893,-948.00
2025-06-06 15:05:04.815245,599616650342638893,-1425.00
2025-06-06 15:05:04.815245,599616650342638893,-1501.00
2025-06-06 15:05:04.815245,599616650342638893,-912.00
2025-06-06 15:05:04.815245,599616650342638893,26.00
2025-06-06 15:05:04.815245,599616650342638893,360.00
2025-06-06 15:05:04.815245,599616650342638893,0.00
2025-06-06 15:05:04.815245,599616650342638893,-90.00
2025-06-06 15:05:04.815245,599616650342638893,107.00
2025-06-06 15:05:04.815245,599616650342638893,55.00
2025-06-06 15:05:04.815245,599616650342638893,-36.00
2025-06-06 15:05:04.815245,599616650342638893,2.00
2025-06-06 15:05:04.815245,599616650342638893,-12.00
2025-06-06 15:05:04.815245,599616650342638893,-72.00
2025-06-06 15:05:04.815245,599616650342638893,-82.00
2025-06-06 15:05:04.815245,599616650342638893,-94.00
2025-06-06 15:05:04.815245,599616650342638893,-131.00
2025-06-06 15:05:04.815245,599616650342638893,-158.00
2025-06-06 15:05:04.815245,599616650342638893,-180.00
2025-06-06 15:05:04.815245,599616650342638893,-211.00
2025-06-06 15:05:04.815245,599616650342638893,-243.00
2025-06-06 15:05:04.815245,599616650342638893,-274.00
2025-06-06 15:05:04.815245,599616650342638893,-309.00
2025-06-06 15:05:04.815245,599616650342638893,-338.00
2025-06-06 15:05:04.815245,599616650342638893,-362.00
2025-06-06 15:05:04.815245,599616650342638893,-379.00
2025-06-06 15:05:04.815245,599616650342638893,-384.00
2025-06-06 15:05:04.815245,599616650342638893,-384.00
2025-06-06 15:05:04.815245,599616650342638893,-379.00
2025-06-06 15:05:04.815245,599616650342638893,-364.00
2025-06-06 15:05:04.815245,599616650342638893,-330.00
2025-06-06 15:05:04.815245,599616650342638893,-270.00
2025-06-06 15:05:04.815245,599616650342638893,-184.00
2025-06-06 15:05:04.815245,599616650342638893,-99.00
2025-06-06 15:05:04.815245,599616650342638893,-24.00
2025-06-06 15:05:04.815245,599616650342638893,48.00
2025-06-06 15:05:04.815245,599616650342638893,104.00
2025-06-06 15:05:04.815245,599616650342638893,138.00
2025-06-06 15:05:04.815245,599616650342638893,153.00
2025-06-06 15:05:04.815245,599616650342638893,158.00
2025-06-06 15:05:04.815245,599616650342638893,158.00
2025-06-06 15:05:04.815245,599616650342638893,153.00
2025-06-06 15:05:04.815245,599616650342638893,148.00
2025-06-06 15:05:04.815245,599616650342638893,136.00
2025-06-06 15:05:04.815245,599616650342638893,121.00
2025-06-06 15:05:04.815245,599616650342638893,109.00
2025-06-06 15:05:04.815245,599616650342638893,99.00
2025-06-06 15:05:04.815245,599616650342638893,82.00
2025-06-06 15:05:04.815245,599616650342638893,72.00
2025-06-06 15:05:04.815245,599616650342638893,77.00
2025-06-06 15:05:04.815245,599616650342638893,72.00
2025-06-06 15:05:04.815245,599616650342638893,53.00
2025-06-06 15:05:04.815245,599616650342638893,46.00
2025-06-06 15:05:04.815245,599616650342638893,53.00
2025-06-06 15:05:04.815245,599616650342638893,51.00
2025-06-06 15:05:04.815245,599616650342638893,43.00
2025-06-06 15:05:04.815245,599616650342638893,48.00
2025-06-06 15:05:04.815245,599616650342638893,53.00
2025-06-06 15:05:04.815245,599616650342638893,48.00
2025-06-06 15:05:04.815245,599616650342638893,46.00
2025-06-06 15:05:04.815245,599616650342638893,48.00
2025-06-06 15:05:04.815245,599616650342638893,51.00
2025-06-06 15:05:04.815245,599616650342638893,46.00
2025-06-06 15:05:04.815245,599616650342638893,38.00
2025-06-06 15:05:04.815245,599616650342638893,36.00
2025-06-06 15:05:04.815245,599616650342638893,31.00
2025-06-06 15:05:04.815245,599616650342638893,26.00
2025-06-06 15:05:05.386700,599616650903335934,24.00
2025-06-06 15:05:05.386700,599616650903335934,19.00
2025-06-06 15:05:05.386700,599616650903335934,4.00
2025-06-06 15:05:05.386700,599616650903335934,-2.00
2025-06-06 15:05:05.386700,599616650903335934,4.00
2025-06-06 15:05:05.386700,599616650903335934,0.00
2025-06-06 15:05:05.386700,599616650903335934,-43.00
2025-06-06 15:05:05.386700,599616650903335934,-63.00
2025-06-06 15:05:05.386700,599616650903335934,-17.00
2025-06-06 15:05:05.386700,599616650903335934,24.00
2025-06-06 15:05:05.386700,599616650903335934,21.00
2025-06-06 15:05:05.386700,599616650903335934,12.00
2025-06-06 15:05:05.386700,599616650903335934,14.00
2025-06-06 15:05:05.386700,599616650903335934,14.00
2025-06-06 15:05:05.386700,599616650903335934,9.00
2025-06-06 15:05:05.386700,599616650903335934,7.00
2025-06-06 15:05:05.386700,599616650903335934,4.00
2025-06-06 15:05:05.386700,599616650903335934,2.00
2025-06-06 15:05:05.386700,599616650903335934,2.00
2025-06-06 15:05:05.386700,599616650903335934,0.00
2025-06-06 15:05:05.386700,599616650903335934,2.00
2025-06-06 15:05:05.386700,599616650903335934,-60.00
2025-06-06 15:05:05.386700,599616650903335934,-374.00
2025-06-06 15:05:05.386700,599616650903335934,-941.00
2025-06-06 15:05:05.386700,599616650903335934,-1472.00
2025-06-06 15:05:05.386700,599616650903335934,-1610.00
2025-06-06 15:05:05.386700,599616650903335934,-1043.00
2025-06-06 15:05:05.386700,599616650903335934,-21.00
2025-06-06 15:05:05.386700,599616650903335934,391.00
2025-06-06 15:05:05.386700,599616650903335934,12.00
2025-06-06 15:05:05.386700,599616650903335934,-109.00
2025-06-06 15:05:05.386700,599616650903335934,111.00
2025-06-06 15:05:05.386700,599616650903335934,70.00
2025-06-06 15:05:05.386700,599616650903335934,-34.00
2025-06-06 15:05:05.386700,599616650903335934,7.00
2025-06-06 15:05:05.386700,599616650903335934,-2.00
2025-06-06 15:05:05.386700,599616650903335934,-65.00
2025-06-06 15:05:05.386700,599616650903335934,-77.00
2025-06-06 15:05:05.386700,599616650903335934,-90.00
2025-06-06 15:05:05.386700,599616650903335934,-133.00
2025-06-06 15:05:05.386700,599616650903335934,-160.00
2025-06-06 15:05:05.386700,599616650903335934,-177.00
2025-06-06 15:05:05.386700,599616650903335934,-209.00
2025-06-06 15:05:05.386700,599616650903335934,-240.00
2025-06-06 15:05:05.386700,599616650903335934,-267.00
2025-06-06 15:05:05.386700,599616650903335934,-301.00
2025-06-06 15:05:05.386700,599616650903335934,-330.00
2025-06-06 15:05:05.386700,599616650903335934,-350.00
2025-06-06 15:05:05.386700,599616650903335934,-362.00
2025-06-06 15:05:05.386700,599616650903335934,-374.00
2025-06-06 15:05:05.386700,599616650903335934,-374.00
2025-06-06 15:05:05.386700,599616650903335934,-367.00
2025-06-06 15:05:05.386700,599616650903335934,-350.00
2025-06-06 15:05:05.386700,599616650903335934,-323.00
2025-06-06 15:05:05.386700,599616650903335934,-279.00
2025-06-06 15:05:05.386700,599616650903335934,-201.00
2025-06-06 15:05:05.386700,599616650903335934,-107.00
2025-06-06 15:05:05.386700,599616650903335934,-38.00
2025-06-06 15:05:05.386700,599616650903335934,19.00
2025-06-06 15:05:05.386700,599616650903335934,77.00
2025-06-06 15:05:05.386700,599616650903335934,116.00
2025-06-06 15:05:05.386700,599616650903335934,136.00
2025-06-06 15:05:05.386700,599616650903335934,143.00
2025-06-06 15:05:05.386700,599616650903335934,141.00
2025-06-06 15:05:05.386700,599616650903335934,141.00
2025-06-06 15:05:05.386700,599616650903335934,136.00
2025-06-06 15:05:05.386700,599616650903335934,121.00
2025-06-06 15:05:05.386700,599616650903335934,104.00
2025-06-06 15:05:05.386700,599616650903335934,92.00
2025-06-06 15:05:05.386700,599616650903335934,80.00
2025-06-06 15:05:05.386700,599616650903335934,65.00
2025-06-06 15:05:05.386700,599616650903335934,58.00
2025-06-06 15:05:05.386700,599616650903335934,53.00
2025-06-06 15:05:05.924072,599616651464063493,43.00
2025-06-06 15:05:05.924072,599616651464063493,38.00
2025-06-06 15:05:05.924072,599616651464063493,38.00
2025-06-06 15:05:05.924072,599616651464063493,34.00
2025-06-06 15:05:05.924072,599616651464063493,31.00
2025-06-06 15:05:05.924072,599616651464063493,38.00
2025-06-06 15:05:05.924072,599616651464063493,43.00
2025-06-06 15:05:05.924072,599616651464063493,38.00
2025-06-06 15:05:05.924072,599616651464063493,34.00
2025-06-06 15:05:05.924072,599616651464063493,41.00
2025-06-06 15:05:05.924072,599616651464063493,41.00
2025-06-06 15:05:05.924072,599616651464063493,34.00
2025-06-06 15:05:05.924072,599616651464063493,34.00
2025-06-06 15:05:05.924072,599616651464063493,34.00
2025-06-06 15:05:05.924072,599616651464063493,29.00
2025-06-06 15:05:05.924072,599616651464063493,24.00
2025-06-06 15:05:05.924072,599616651464063493,24.00
2025-06-06 15:05:05.924072,599616651464063493,14.00
2025-06-06 15:05:05.924072,599616651464063493,-2.00
2025-06-06 15:05:05.924072,599616651464063493,-14.00
2025-06-06 15:05:05.924072,599616651464063493,-19.00
2025-06-06 15:05:05.924072,599616651464063493,-34.00
2025-06-06 15:05:05.924072,599616651464063493,-58.00
2025-06-06 15:05:05.924072,599616651464063493,-43.00
2025-06-06 15:05:05.924072,599616651464063493,2.00
2025-06-06 15:05:05.924072,599616651464063493,21.00
2025-06-06 15:05:05.924072,599616651464063493,4.00
2025-06-06 15:05:05.924072,599616651464063493,-2.00
2025-06-06 15:05:05.924072,599616651464063493,2.00
2025-06-06 15:05:05.924072,599616651464063493,0.00
2025-06-06 15:05:05.924072,599616651464063493,-4.00
2025-06-06 15:05:05.924072,599616651464063493,-4.00
2025-06-06 15:05:05.924072,599616651464063493,-9.00
2025-06-06 15:05:05.924072,599616651464063493,-12.00
2025-06-06 15:05:05.924072,599616651464063493,-14.00
2025-06-06 15:05:05.924072,599616651464063493,-12.00
2025-06-06 15:05:05.924072,599616651464063493,-29.00
2025-06-06 15:05:05.924072,599616651464063493,-238.00
2025-06-06 15:05:05.924072,599616651464063493,-764.00
2025-06-06 15:05:05.924072,599616651464063493,-1372.00
2025-06-06 15:05:05.924072,599616651464063493,-1703.00
2025-06-06 15:05:05.924072,599616651464063493,-1362.00
2025-06-06 15:05:05.924072,599616651464063493,-313.00
2025-06-06 15:05:05.924072,599616651464063493,406.00
2025-06-06 15:05:05.924072,599616651464063493,133.00
2025-06-06 15:05:05.924072,599616651464063493,-145.00
2025-06-06 15:05:05.924072,599616651464063493,58.00
2025-06-06 15:05:05.924072,599616651464063493,102.00
2025-06-06 15:05:05.924072,599616651464063493,-31.00
2025-06-06 15:05:05.924072,599616651464063493,-19.00
2025-06-06 15:05:05.924072,599616651464063493,0.00
2025-06-06 15:05:05.924072,599616651464063493,-58.00
2025-06-06 15:05:05.924072,599616651464063493,-80.00
2025-06-06 15:05:05.924072,599616651464063493,-80.00
2025-06-06 15:05:05.924072,599616651464063493,-114.00
2025-06-06 15:05:05.924072,599616651464063493,-150.00
2025-06-06 15:05:05.924072,599616651464063493,-170.00
2025-06-06 15:05:05.924072,599616651464063493,-199.00
2025-06-06 15:05:05.924072,599616651464063493,-238.00
2025-06-06 15:05:05.924072,599616651464063493,-262.00
2025-06-06 15:05:05.924072,599616651464063493,-282.00
2025-06-06 15:05:05.924072,599616651464063493,-311.00
2025-06-06 15:05:05.924072,599616651464063493,-333.00
2025-06-06 15:05:05.924072,599616651464063493,-343.00
2025-06-06 15:05:05.924072,599616651464063493,-345.00
2025-06-06 15:05:05.924072,599616651464063493,-345.00
2025-06-06 15:05:05.924072,599616651464063493,-338.00
2025-06-06 15:05:05.924072,599616651464063493,-321.00
2025-06-06 15:05:05.924072,599616651464063493,-304.00
2025-06-06 15:05:05.924072,599616651464063493,-267.00
2025-06-06 15:05:05.924072,599616651464063493,-206.00
2025-06-06 15:05:05.924072,599616651464063493,-136.00
2025-06-06 15:05:05.924072,599616651464063493,-63.00
2025-06-06 15:05:06.495844,599616652024760534,4.00
2025-06-06 15:05:06.495844,599616652024760534,51.00
2025-06-06 15:05:06.495844,599616652024760534,85.00
2025-06-06 15:05:06.495844,599616652024760534,111.00
2025-06-06 15:05:06.495844,599616652024760534,121.00
2025-06-06 15:05:06.495844,599616652024760534,121.00
2025-06-06 15:05:06.495844,599616652024760534,121.00
2025-06-06 15:05:06.495844,599616652024760534,116.00
2025-06-06 15:05:06.495844,599616652024760534,104.00
2025-06-06 15:05:06.495844,599616652024760534,90.00
2025-06-06 15:05:06.495844,599616652024760534,77.00
2025-06-06 15:05:06.495844,599616652024760534,65.00
2025-06-06 15:05:06.495844,599616652024760534,55.00
2025-06-06 15:05:06.495844,599616652024760534,48.00
2025-06-06 15:05:06.495844,599616652024760534,38.00
2025-06-06 15:05:06.495844,599616652024760534,36.00
2025-06-06 15:05:06.495844,599616652024760534,34.00
2025-06-06 15:05:06.495844,599616652024760534,26.00
2025-06-06 15:05:06.495844,599616652024760534,29.00
2025-06-06 15:05:06.495844,599616652024760534,34.00
2025-06-06 15:05:06.495844,599616652024760534,31.00
2025-06-06 15:05:06.495844,599616652024760534,29.00
2025-06-06 15:05:06.495844,599616652024760534,29.00
2025-06-06 15:05:06.495844,599616652024760534,31.00
2025-06-06 15:05:06.495844,599616652024760534,38.00
2025-06-06 15:05:06.495844,599616652024760534,38.00
2025-06-06 15:05:06.495844,599616652024760534,29.00
2025-06-06 15:05:06.495844,599616652024760534,24.00
2025-06-06 15:05:06.495844,599616652024760534,24.00
2025-06-06 15:05:06.495844,599616652024760534,26.00
2025-06-06 15:05:06.495844,599616652024760534,26.00
2025-06-06 15:05:06.495844,599616652024760534,12.00
2025-06-06 15:05:06.495844,599616652024760534,-9.00
2025-06-06 15:05:06.495844,599616652024760534,-9.00
2025-06-06 15:05:06.495844,599616652024760534,-4.00
2025-06-06 15:05:06.495844,599616652024760534,-31.00
2025-06-06 15:05:06.495844,599616652024760534,-58.00
2025-06-06 15:05:06.495844,599616652024760534,-29.00
2025-06-06 15:05:06.495844,599616652024760534,19.00
2025-06-06 15:05:06.495844,599616652024760534,14.00
2025-06-06 15:05:06.495844,599616652024760534,0.00
2025-06-06 15:05:06.495844,599616652024760534,14.00
2025-06-06 15:05:06.495844,599616652024760534,19.00
2025-06-06 15:05:06.495844,599616652024760534,7.00
2025-06-06 15:05:06.495844,599616652024760534,4.00
2025-06-06 15:05:06.495844,599616652024760534,2.00
2025-06-06 15:05:06.495844,599616652024760534,-2.00
2025-06-06 15:05:06.495844,599616652024760534,0.00
2025-06-06 15:05:06.495844,599616652024760534,2.00
2025-06-06 15:05:06.495844,599616652024760534,7.00
2025-06-06 15:05:06.495844,599616652024760534,-34.00
2025-06-06 15:05:06.495844,599616652024760534,-328.00
2025-06-06 15:05:06.495844,599616652024760534,-907.00
2025-06-06 15:05:06.495844,599616652024760534,-1489.00
2025-06-06 15:05:06.495844,599616652024760534,-1705.00
2025-06-06 15:05:06.495844,599616652024760534,-1155.00
2025-06-06 15:05:06.495844,599616652024760534,-43.00
2025-06-06 15:05:06.495844,599616652024760534,442.00
2025-06-06 15:05:06.495844,599616652024760534,41.00
2025-06-06 15:05:06.495844,599616652024760534,-104.00
2025-06-06 15:05:06.495844,599616652024760534,131.00
2025-06-06 15:05:06.495844,599616652024760534,99.00
2025-06-06 15:05:06.495844,599616652024760534,-12.00
2025-06-06 15:05:06.495844,599616652024760534,26.00
2025-06-06 15:05:06.495844,599616652024760534,19.00
2025-06-06 15:05:06.495844,599616652024760534,-36.00
2025-06-06 15:05:06.495844,599616652024760534,-46.00
2025-06-06 15:05:06.495844,599616652024760534,-63.00
2025-06-06 15:05:06.495844,599616652024760534,-99.00
2025-06-06 15:05:06.495844,599616652024760534,-124.00
2025-06-06 15:05:06.495844,599616652024760534,-143.00
2025-06-06 15:05:06.495844,599616652024760534,-177.00
2025-06-06 15:05:06.495844,599616652024760534,-201.00
2025-06-06 15:05:07.065715,599616652585488095,-228.00
2025-06-06 15:05:07.065715,599616652585488095,-257.00
2025-06-06 15:05:07.065715,599616652585488095,-279.00
2025-06-06 15:05:07.065715,599616652585488095,-301.00
2025-06-06 15:05:07.065715,599616652585488095,-311.00
2025-06-06 15:05:07.065715,599616652585488095,-301.00
2025-06-06 15:05:07.065715,599616652585488095,-296.00
2025-06-06 15:05:07.065715,599616652585488095,-294.00
2025-06-06 15:05:07.065715,599616652585488095,-277.00
2025-06-06 15:05:07.065715,599616652585488095,-248.00
2025-06-06 15:05:07.065715,599616652585488095,-211.00
2025-06-06 15:05:07.065715,599616652585488095,-158.00
2025-06-06 15:05:07.065715,599616652585488095,-87.00
2025-06-06 15:05:07.065715,599616652585488095,-21.00
2025-06-06 15:05:07.065715,599616652585488095,31.00
2025-06-06 15:05:07.065715,599616652585488095,80.00
2025-06-06 15:05:07.065715,599616652585488095,119.00
2025-06-06 15:05:07.065715,599616652585488095,138.00
2025-06-06 15:05:07.065715,599616652585488095,143.00
2025-06-06 15:05:07.065715,599616652585488095,145.00
2025-06-06 15:05:07.065715,599616652585488095,143.00
2025-06-06 15:05:07.065715,599616652585488095,136.00
2025-06-06 15:05:07.065715,599616652585488095,124.00
2025-06-06 15:05:07.065715,599616652585488095,109.00
2025-06-06 15:05:07.065715,599616652585488095,94.00
2025-06-06 15:05:07.065715,599616652585488095,82.00
2025-06-06 15:05:07.065715,599616652585488095,75.00
2025-06-06 15:05:07.065715,599616652585488095,68.00
2025-06-06 15:05:07.065715,599616652585488095,60.00
2025-06-06 15:05:07.065715,599616652585488095,51.00
2025-06-06 15:05:07.065715,599616652585488095,53.00
2025-06-06 15:05:07.065715,599616652585488095,55.00
2025-06-06 15:05:07.065715,599616652585488095,48.00
2025-06-06 15:05:07.065715,599616652585488095,46.00
2025-06-06 15:05:07.065715,599616652585488095,53.00
2025-06-06 15:05:07.065715,599616652585488095,53.00
2025-06-06 15:05:07.065715,599616652585488095,51.00
2025-06-06 15:05:07.065715,599616652585488095,48.00
2025-06-06 15:05:07.065715,599616652585488095,46.00
2025-06-06 15:05:07.065715,599616652585488095,51.00
2025-06-06 15:05:07.065715,599616652585488095,48.00
2025-06-06 15:05:07.065715,599616652585488095,43.00
2025-06-06 15:05:07.065715,599616652585488095,43.00
2025-06-06 15:05:07.065715,599616652585488095,41.00
2025-06-06 15:05:07.065715,599616652585488095,26.00
2025-06-06 15:05:07.065715,599616652585488095,7.00
2025-06-06 15:05:07.065715,599616652585488095,7.00
2025-06-06 15:05:07.065715,599616652585488095,7.00
2025-06-06 15:05:07.065715,599616652585488095,-21.00
2025-06-06 15:05:07.065715,599616652585488095,-41.00
2025-06-06 15:05:07.065715,599616652585488095,-19.00
2025-06-06 15:05:07.065715,599616652585488095,21.00
2025-06-06 15:05:07.065715,599616652585488095,31.00
2025-06-06 15:05:07.065715,599616652585488095,24.00
2025-06-06 15:05:07.065715,599616652585488095,21.00
2025-06-06 15:05:07.065715,599616652585488095,19.00
2025-06-06 15:05:07.065715,599616652585488095,19.00
2025-06-06 15:05:07.065715,599616652585488095,17.00
2025-06-06 15:05:07.065715,599616652585488095,12.00
2025-06-06 15:05:07.065715,599616652585488095,14.00
2025-06-06 15:05:07.065715,599616652585488095,12.00
2025-06-06 15:05:07.065715,599616652585488095,4.00
2025-06-06 15:05:07.065715,599616652585488095,14.00
2025-06-06 15:05:07.065715,599616652585488095,2.00
2025-06-06 15:05:07.065715,599616652585488095,-236.00
2025-06-06 15:05:07.065715,599616652585488095,-793.00
2025-06-06 15:05:07.065715,599616652585488095,-1416.00
2025-06-06 15:05:07.065715,599616652585488095,-1742.00
2025-06-06 15:05:07.065715,599616652585488095,-1321.00
2025-06-06 15:05:07.065715,599616652585488095,-189.00
2025-06-06 15:05:07.065715,599616652585488095,457.00
2025-06-06 15:05:07.065715,599616652585488095,104.00
2025-06-06 15:05:07.065715,599616652585488095,-119.00
2025-06-06 15:05:07.604467,599616653146185136,114.00
2025-06-06 15:05:07.604467,599616653146185136,126.00
2025-06-06 15:05:07.604467,599616653146185136,-4.00
2025-06-06 15:05:07.604467,599616653146185136,19.00
2025-06-06 15:05:07.604467,599616653146185136,26.00
2025-06-06 15:05:07.604467,599616653146185136,-34.00
2025-06-06 15:05:07.604467,599616653146185136,-51.00
2025-06-06 15:05:07.604467,599616653146185136,-55.00
2025-06-06 15:05:07.604467,599616653146185136,-92.00
2025-06-06 15:05:07.604467,599616653146185136,-126.00
2025-06-06 15:05:07.604467,599616653146185136,-143.00
2025-06-06 15:05:07.604467,599616653146185136,-170.00
2025-06-06 15:05:07.604467,599616653146185136,-201.00
2025-06-06 15:05:07.604467,599616653146185136,-223.00
2025-06-06 15:05:07.604467,599616653146185136,-248.00
2025-06-06 15:05:07.604467,599616653146185136,-274.00
2025-06-06 15:05:07.604467,599616653146185136,-291.00
2025-06-06 15:05:07.604467,599616653146185136,-296.00
2025-06-06 15:05:07.604467,599616653146185136,-301.00
2025-06-06 15:05:07.604467,599616653146185136,-301.00
2025-06-06 15:05:07.604467,599616653146185136,-291.00
2025-06-06 15:05:07.604467,599616653146185136,-277.00
2025-06-06 15:05:07.604467,599616653146185136,-257.00
2025-06-06 15:05:07.604467,599616653146185136,-221.00
2025-06-06 15:05:07.604467,599616653146185136,-170.00
2025-06-06 15:05:07.604467,599616653146185136,-111.00
2025-06-06 15:05:07.604467,599616653146185136,-48.00
2025-06-06 15:05:07.604467,599616653146185136,12.00
2025-06-06 15:05:07.604467,599616653146185136,60.00
2025-06-06 15:05:07.604467,599616653146185136,94.00
2025-06-06 15:05:07.604467,599616653146185136,114.00
2025-06-06 15:05:07.604467,599616653146185136,121.00
2025-06-06 15:05:07.604467,599616653146185136,128.00
2025-06-06 15:05:07.604467,599616653146185136,131.00
2025-06-06 15:05:07.604467,599616653146185136,121.00
2025-06-06 15:05:07.604467,599616653146185136,102.00
2025-06-06 15:05:07.604467,599616653146185136,90.00
2025-06-06 15:05:07.604467,599616653146185136,77.00
2025-06-06 15:05:07.604467,599616653146185136,65.00
2025-06-06 15:05:07.604467,599616653146185136,55.00
2025-06-06 15:05:07.604467,599616653146185136,48.00
2025-06-06 15:05:07.604467,599616653146185136,43.00
2025-06-06 15:05:07.604467,599616653146185136,38.00
2025-06-06 15:05:07.604467,599616653146185136,36.00
2025-06-06 15:05:07.604467,599616653146185136,38.00
2025-06-06 15:05:07.604467,599616653146185136,43.00
2025-06-06 15:05:07.604467,599616653146185136,38.00
2025-06-06 15:05:07.604467,599616653146185136,34.00
2025-06-06 15:05:07.604467,599616653146185136,38.00
2025-06-06 15:05:07.604467,599616653146185136,41.00
2025-06-06 15:05:07.604467,599616653146185136,38.00
2025-06-06 15:05:07.604467,599616653146185136,38.00
2025-06-06 15:05:07.604467,599616653146185136,34.00
2025-06-06 15:05:07.604467,599616653146185136,34.00
2025-06-06 15:05:07.604467,599616653146185136,38.00
2025-06-06 15:05:07.604467,599616653146185136,36.00
2025-06-06 15:05:07.604467,599616653146185136,14.00
2025-06-06 15:05:07.604467,599616653146185136,2.00
2025-06-06 15:05:07.604467,599616653146185136,7.00
2025-06-06 15:05:07.604467,599616653146185136,0.00
2025-06-06 15:05:07.604467,599616653146185136,-34.00
2025-06-06 15:05:07.604467,599616653146185136,-36.00
2025-06-06 15:05:07.604467,599616653146185136,4.00
2025-06-06 15:05:07.604467,599616653146185136,31.00
2025-06-06 15:05:07.604467,599616653146185136,26.00
2025-06-06 15:05:07.604467,599616653146185136,19.00
2025-06-06 15:05:07.604467,599616653146185136,21.00
2025-06-06 15:05:07.604467,599616653146185136,21.00
2025-06-06 15:05:07.604467,599616653146185136,19.00
2025-06-06 15:05:07.604467,599616653146185136,19.00
2025-06-06 15:05:07.604467,599616653146185136,19.00
2025-06-06 15:05:07.604467,599616653146185136,12.00
2025-06-06 15:05:07.604467,599616653146185136,7.00
2025-06-06 15:05:08.177616,599616653706912695,9.00
2025-06-06 15:05:08.177616,599616653706912695,17.00
2025-06-06 15:05:08.177616,599616653706912695,-43.00
2025-06-06 15:05:08.177616,599616653706912695,-389.00
2025-06-06 15:05:08.177616,599616653706912695,-1009.00
2025-06-06 15:05:08.177616,599616653706912695,-1579.00
2025-06-06 15:05:08.177616,599616653706912695,-1705.00
2025-06-06 15:05:08.177616,599616653706912695,-987.00
2025-06-06 15:05:08.177616,599616653706912695,141.00
2025-06-06 15:05:08.177616,599616653706912695,428.00
2025-06-06 15:05:08.177616,599616653706912695,-26.00
2025-06-06 15:05:08.177616,599616653706912695,-65.00
2025-06-06 15:05:08.177616,599616653706912695,150.00
2025-06-06 15:05:08.177616,599616653706912695,68.00
2025-06-06 15:05:08.177616,599616653706912695,-14.00
2025-06-06 15:05:08.177616,599616653706912695,34.00
2025-06-06 15:05:08.177616,599616653706912695,7.00
2025-06-06 15:05:08.177616,599616653706912695,-46.00
2025-06-06 15:05:08.177616,599616653706912695,-51.00
2025-06-06 15:05:08.177616,599616653706912695,-70.00
2025-06-06 15:05:08.177616,599616653706912695,-111.00
2025-06-06 15:05:08.177616,599616653706912695,-136.00
2025-06-06 15:05:08.177616,599616653706912695,-155.00
2025-06-06 15:05:08.177616,599616653706912695,-189.00
2025-06-06 15:05:08.177616,599616653706912695,-218.00
2025-06-06 15:05:08.177616,599616653706912695,-243.00
2025-06-06 15:05:08.177616,599616653706912695,-267.00
2025-06-06 15:05:08.177616,599616653706912695,-294.00
2025-06-06 15:05:08.177616,599616653706912695,-309.00
2025-06-06 15:05:08.177616,599616653706912695,-316.00
2025-06-06 15:05:08.177616,599616653706912695,-318.00
2025-06-06 15:05:08.177616,599616653706912695,-313.00
2025-06-06 15:05:08.177616,599616653706912695,-299.00
2025-06-06 15:05:08.177616,599616653706912695,-284.00
2025-06-06 15:05:08.177616,599616653706912695,-260.00
2025-06-06 15:05:08.177616,599616653706912695,-214.00
2025-06-06 15:05:08.177616,599616653706912695,-155.00
2025-06-06 15:05:08.177616,599616653706912695,-87.00
2025-06-06 15:05:08.177616,599616653706912695,-24.00
2025-06-06 15:05:08.177616,599616653706912695,31.00
2025-06-06 15:05:08.177616,599616653706912695,75.00
2025-06-06 15:05:08.177616,599616653706912695,107.00
2025-06-06 15:05:08.177616,599616653706912695,124.00
2025-06-06 15:05:08.177616,599616653706912695,128.00
2025-06-06 15:05:08.177616,599616653706912695,128.00
2025-06-06 15:05:08.177616,599616653706912695,126.00
2025-06-06 15:05:08.177616,599616653706912695,119.00
2025-06-06 15:05:08.177616,599616653706912695,104.00
2025-06-06 15:05:08.177616,599616653706912695,90.00
2025-06-06 15:05:08.177616,599616653706912695,77.00
2025-06-06 15:05:08.177616,599616653706912695,65.00
2025-06-06 15:05:08.177616,599616653706912695,53.00
2025-06-06 15:05:08.177616,599616653706912695,46.00
2025-06-06 15:05:08.177616,599616653706912695,41.00
2025-06-06 15:05:08.177616,599616653706912695,36.00
2025-06-06 15:05:08.177616,599616653706912695,34.00
2025-06-06 15:05:08.177616,599616653706912695,34.00
2025-06-06 15:05:08.177616,599616653706912695,38.00
2025-06-06 15:05:08.177616,599616653706912695,41.00
2025-06-06 15:05:08.177616,599616653706912695,41.00
2025-06-06 15:05:08.177616,599616653706912695,41.00
2025-06-06 15:05:08.177616,599616653706912695,41.00
2025-06-06 15:05:08.177616,599616653706912695,36.00
2025-06-06 15:05:08.177616,599616653706912695,34.00
2025-06-06 15:05:08.177616,599616653706912695,38.00
2025-06-06 15:05:08.177616,599616653706912695,36.00
2025-06-06 15:05:08.177616,599616653706912695,17.00
2025-06-06 15:05:08.177616,599616653706912695,9.00
2025-06-06 15:05:08.177616,599616653706912695,14.00
2025-06-06 15:05:08.177616,599616653706912695,0.00
2025-06-06 15:05:08.177616,599616653706912695,-26.00
2025-06-06 15:05:08.177616,599616653706912695,-24.00
2025-06-06 15:05:08.177616,599616653706912695,9.00
2025-06-06 15:05:08.714848,599616654267609736,34.00
2025-06-06 15:05:08.714848,599616654267609736,34.00
2025-06-06 15:05:08.714848,599616654267609736,29.00
2025-06-06 15:05:08.714848,599616654267609736,26.00
2025-06-06 15:05:08.714848,599616654267609736,26.00
2025-06-06 15:05:08.714848,599616654267609736,24.00
2025-06-06 15:05:08.714848,599616654267609736,26.00
2025-06-06 15:05:08.714848,599616654267609736,26.00
2025-06-06 15:05:08.714848,599616654267609736,19.00
2025-06-06 15:05:08.714848,599616654267609736,14.00
2025-06-06 15:05:08.714848,599616654267609736,19.00
2025-06-06 15:05:08.714848,599616654267609736,24.00
2025-06-06 15:05:08.714848,599616654267609736,-48.00
2025-06-06 15:05:08.714848,599616654267609736,-399.00
2025-06-06 15:05:08.714848,599616654267609736,-1019.00
2025-06-06 15:05:08.714848,599616654267609736,-1571.00
2025-06-06 15:05:08.714848,599616654267609736,-1686.00
2025-06-06 15:05:08.714848,599616654267609736,-1031.00
2025-06-06 15:05:08.714848,599616654267609736,82.00
2025-06-06 15:05:08.714848,599616654267609736,474.00
2025-06-06 15:05:08.714848,599616654267609736,34.00
2025-06-06 15:05:08.714848,599616654267609736,-70.00
2025-06-06 15:05:08.714848,599616654267609736,153.00
2025-06-06 15:05:08.714848,599616654267609736,87.00
2025-06-06 15:05:08.714848,599616654267609736,-12.00
2025-06-06 15:05:08.714848,599616654267609736,36.00
2025-06-06 15:05:08.714848,599616654267609736,21.00
2025-06-06 15:05:08.714848,599616654267609736,-41.00
2025-06-06 15:05:08.714848,599616654267609736,-55.00
2025-06-06 15:05:08.714848,599616654267609736,-68.00
2025-06-06 15:05:08.714848,599616654267609736,-107.00
2025-06-06 15:05:08.714848,599616654267609736,-136.00
2025-06-06 15:05:08.714848,599616654267609736,-163.00
2025-06-06 15:05:08.714848,599616654267609736,-199.00
2025-06-06 15:05:08.714848,599616654267609736,-231.00
2025-06-06 15:05:08.714848,599616654267609736,-255.00
2025-06-06 15:05:08.714848,599616654267609736,-282.00
2025-06-06 15:05:08.714848,599616654267609736,-313.00
2025-06-06 15:05:08.714848,599616654267609736,-335.00
2025-06-06 15:05:08.714848,599616654267609736,-340.00
2025-06-06 15:05:08.714848,599616654267609736,-338.00
2025-06-06 15:05:08.714848,599616654267609736,-335.00
2025-06-06 15:05:08.714848,599616654267609736,-326.00
2025-06-06 15:05:08.714848,599616654267609736,-304.00
2025-06-06 15:05:08.714848,599616654267609736,-272.00
2025-06-06 15:05:08.714848,599616654267609736,-223.00
2025-06-06 15:05:08.714848,599616654267609736,-153.00
2025-06-06 15:05:08.714848,599616654267609736,-75.00
2025-06-06 15:05:08.714848,599616654267609736,-2.00
2025-06-06 15:05:08.714848,599616654267609736,58.00
2025-06-06 15:05:08.714848,599616654267609736,104.00
2025-06-06 15:05:08.714848,599616654267609736,128.00
2025-06-06 15:05:08.714848,599616654267609736,145.00
2025-06-06 15:05:08.714848,599616654267609736,153.00
2025-06-06 15:05:08.714848,599616654267609736,150.00
2025-06-06 15:05:08.714848,599616654267609736,143.00
2025-06-06 15:05:08.714848,599616654267609736,133.00
2025-06-06 15:05:08.714848,599616654267609736,119.00
2025-06-06 15:05:08.714848,599616654267609736,102.00
2025-06-06 15:05:08.714848,599616654267609736,90.00
2025-06-06 15:05:08.714848,599616654267609736,82.00
2025-06-06 15:05:08.714848,599616654267609736,70.00
2025-06-06 15:05:08.714848,599616654267609736,58.00
2025-06-06 15:05:08.714848,599616654267609736,53.00
2025-06-06 15:05:08.714848,599616654267609736,55.00
2025-06-06 15:05:08.714848,599616654267609736,48.00
2025-06-06 15:05:08.714848,599616654267609736,38.00
2025-06-06 15:05:08.714848,599616654267609736,43.00
2025-06-06 15:05:08.714848,599616654267609736,43.00
2025-06-06 15:05:08.714848,599616654267609736,36.00
2025-06-06 15:05:08.714848,599616654267609736,36.00
2025-06-06 15:05:08.714848,599616654267609736,41.00
2025-06-06 15:05:08.714848,599616654267609736,38.00
2025-06-06 15:05:09.284540,599616654828337295,26.00
2025-06-06 15:05:09.284540,599616654828337295,29.00
2025-06-06 15:05:09.284540,599616654828337295,34.00
2025-06-06 15:05:09.284540,599616654828337295,9.00
2025-06-06 15:05:09.284540,599616654828337295,-14.00
2025-06-06 15:05:09.284540,599616654828337295,12.00
2025-06-06 15:05:09.284540,599616654828337295,46.00
2025-06-06 15:05:09.284540,599616654828337295,53.00
2025-06-06 15:05:09.284540,599616654828337295,55.00
2025-06-06 15:05:09.284540,599616654828337295,58.00
2025-06-06 15:05:09.284540,599616654828337295,51.00
2025-06-06 15:05:09.284540,599616654828337295,48.00
2025-06-06 15:05:09.284540,599616654828337295,48.00
2025-06-06 15:05:09.284540,599616654828337295,43.00
2025-06-06 15:05:09.284540,599616654828337295,41.00
2025-06-06 15:05:09.284540,599616654828337295,43.00
2025-06-06 15:05:09.284540,599616654828337295,36.00
2025-06-06 15:05:09.284540,599616654828337295,31.00
2025-06-06 15:05:09.284540,599616654828337295,31.00
2025-06-06 15:05:09.284540,599616654828337295,-48.00
2025-06-06 15:05:09.284540,599616654828337295,-418.00
2025-06-06 15:05:09.284540,599616654828337295,-1036.00
2025-06-06 15:05:09.284540,599616654828337295,-1518.00
2025-06-06 15:05:09.284540,599616654828337295,-1540.00
2025-06-06 15:05:09.284540,599616654828337295,-871.00
2025-06-06 15:05:09.284540,599616654828337295,177.00
2025-06-06 15:05:09.284540,599616654828337295,486.00
2025-06-06 15:05:09.284540,599616654828337295,31.00
2025-06-06 15:05:09.284540,599616654828337295,-58.00
2025-06-06 15:05:09.284540,599616654828337295,153.00
2025-06-06 15:05:09.284540,599616654828337295,82.00
2025-06-06 15:05:09.284540,599616654828337295,-9.00
2025-06-06 15:05:09.284540,599616654828337295,36.00
2025-06-06 15:05:09.284540,599616654828337295,17.00
2025-06-06 15:05:09.284540,599616654828337295,-46.00
2025-06-06 15:05:09.284540,599616654828337295,-60.00
2025-06-06 15:05:09.284540,599616654828337295,-77.00
2025-06-06 15:05:09.284540,599616654828337295,-116.00
2025-06-06 15:05:09.284540,599616654828337295,-143.00
2025-06-06 15:05:09.284540,599616654828337295,-167.00
2025-06-06 15:05:09.284540,599616654828337295,-206.00
2025-06-06 15:05:09.284540,599616654828337295,-243.00
2025-06-06 15:05:09.284540,599616654828337295,-272.00
2025-06-06 15:05:09.284540,599616654828337295,-304.00
2025-06-06 15:05:09.284540,599616654828337295,-330.00
2025-06-06 15:05:09.284540,599616654828337295,-347.00
2025-06-06 15:05:09.284540,599616654828337295,-360.00
2025-06-06 15:05:09.284540,599616654828337295,-362.00
2025-06-06 15:05:09.284540,599616654828337295,-357.00
2025-06-06 15:05:09.284540,599616654828337295,-340.00
2025-06-06 15:05:09.284540,599616654828337295,-313.00
2025-06-06 15:05:09.284540,599616654828337295,-272.00
2025-06-06 15:05:09.284540,599616654828337295,-209.00
2025-06-06 15:05:09.284540,599616654828337295,-124.00
2025-06-06 15:05:09.284540,599616654828337295,-43.00
2025-06-06 15:05:09.284540,599616654828337295,26.00
2025-06-06 15:05:09.284540,599616654828337295,85.00
2025-06-06 15:05:09.284540,599616654828337295,126.00
2025-06-06 15:05:09.284540,599616654828337295,145.00
2025-06-06 15:05:09.284540,599616654828337295,158.00
2025-06-06 15:05:09.284540,599616654828337295,163.00
2025-06-06 15:05:09.284540,599616654828337295,160.00
2025-06-06 15:05:09.284540,599616654828337295,153.00
2025-06-06 15:05:09.284540,599616654828337295,143.00
2025-06-06 15:05:09.284540,599616654828337295,131.00
2025-06-06 15:05:09.284540,599616654828337295,116.00
2025-06-06 15:05:09.284540,599616654828337295,102.00
2025-06-06 15:05:09.284540,599616654828337295,85.00
2025-06-06 15:05:09.284540,599616654828337295,70.00
2025-06-06 15:05:09.284540,599616654828337295,65.00
2025-06-06 15:05:09.284540,599616654828337295,55.00
2025-06-06 15:05:09.284540,599616654828337295,48.00
2025-06-06 15:05:09.284540,599616654828337295,46.00
2025-06-06 15:05:09.827528,599616655389064854,46.00
2025-06-06 15:05:09.827528,599616655389064854,41.00
2025-06-06 15:05:09.827528,599616655389064854,38.00
2025-06-06 15:05:09.827528,599616655389064854,36.00
2025-06-06 15:05:09.827528,599616655389064854,36.00
2025-06-06 15:05:09.827528,599616655389064854,36.00
2025-06-06 15:05:09.827528,599616655389064854,29.00
2025-06-06 15:05:09.827528,599616655389064854,17.00
2025-06-06 15:05:09.827528,599616655389064854,19.00
2025-06-06 15:05:09.827528,599616655389064854,24.00
2025-06-06 15:05:09.827528,599616655389064854,9.00
2025-06-06 15:05:09.827528,599616655389064854,-12.00
2025-06-06 15:05:09.827528,599616655389064854,-2.00
2025-06-06 15:05:09.827528,599616655389064854,34.00
2025-06-06 15:05:09.827528,599616655389064854,55.00
2025-06-06 15:05:09.827528,599616655389064854,55.00
2025-06-06 15:05:09.827528,599616655389064854,48.00
2025-06-06 15:05:09.827528,599616655389064854,48.00
2025-06-06 15:05:09.827528,599616655389064854,48.00
2025-06-06 15:05:09.827528,599616655389064854,46.00
2025-06-06 15:05:09.827528,599616655389064854,41.00
2025-06-06 15:05:09.827528,599616655389064854,38.00
2025-06-06 15:05:09.827528,599616655389064854,38.00
2025-06-06 15:05:09.827528,599616655389064854,36.00
2025-06-06 15:05:09.827528,599616655389064854,29.00
2025-06-06 15:05:09.827528,599616655389064854,31.00
2025-06-06 15:05:09.827528,599616655389064854,4.00
2025-06-06 15:05:09.827528,599616655389064854,-245.00
2025-06-06 15:05:09.827528,599616655389064854,-802.00
2025-06-06 15:05:09.827528,599616655389064854,-1391.00
2025-06-06 15:05:09.827528,599616655389064854,-1649.00
2025-06-06 15:05:09.827528,599616655389064854,-1238.00
2025-06-06 15:05:09.827528,599616655389064854,-197.00
2025-06-06 15:05:09.827528,599616655389064854,447.00
2025-06-06 15:05:09.827528,599616655389064854,153.00
2025-06-06 15:05:09.827528,599616655389064854,-90.00
2025-06-06 15:05:09.827528,599616655389064854,109.00
2025-06-06 15:05:09.827528,599616655389064854,133.00
2025-06-06 15:05:09.827528,599616655389064854,9.00
2025-06-06 15:05:09.827528,599616655389064854,29.00
2025-06-06 15:05:09.827528,599616655389064854,43.00
2025-06-06 15:05:09.827528,599616655389064854,-19.00
2025-06-06 15:05:09.827528,599616655389064854,-43.00
2025-06-06 15:05:09.827528,599616655389064854,-48.00
2025-06-06 15:05:09.827528,599616655389064854,-87.00
2025-06-06 15:05:09.827528,599616655389064854,-121.00
2025-06-06 15:05:09.827528,599616655389064854,-145.00
2025-06-06 15:05:09.827528,599616655389064854,-177.00
2025-06-06 15:05:09.827528,599616655389064854,-216.00
2025-06-06 15:05:09.827528,599616655389064854,-250.00
2025-06-06 15:05:09.827528,599616655389064854,-284.00
2025-06-06 15:05:09.827528,599616655389064854,-318.00
2025-06-06 15:05:09.827528,599616655389064854,-340.00
2025-06-06 15:05:09.827528,599616655389064854,-355.00
2025-06-06 15:05:09.827528,599616655389064854,-364.00
2025-06-06 15:05:09.827528,599616655389064854,-369.00
2025-06-06 15:05:09.827528,599616655389064854,-367.00
2025-06-06 15:05:09.827528,599616655389064854,-345.00
2025-06-06 15:05:09.827528,599616655389064854,-306.00
2025-06-06 15:05:09.827528,599616655389064854,-248.00
2025-06-06 15:05:09.827528,599616655389064854,-165.00
2025-06-06 15:05:09.827528,599616655389064854,-75.00
2025-06-06 15:05:09.827528,599616655389064854,4.00
2025-06-06 15:05:09.827528,599616655389064854,72.00
2025-06-06 15:05:09.827528,599616655389064854,119.00
2025-06-06 15:05:09.827528,599616655389064854,143.00
2025-06-06 15:05:09.827528,599616655389064854,158.00
2025-06-06 15:05:09.827528,599616655389064854,163.00
2025-06-06 15:05:09.827528,599616655389064854,158.00
2025-06-06 15:05:09.827528,599616655389064854,150.00
2025-06-06 15:05:09.827528,599616655389064854,143.00
2025-06-06 15:05:09.827528,599616655389064854,131.00
2025-06-06 15:05:09.827528,599616655389064854,116.00
2025-06-06 15:05:10.424868,599616655949761897,104.00
2025-06-06 15:05:10.424868,599616655949761897,90.00
2025-06-06 15:05:10.424868,599616655949761897,77.00
2025-06-06 15:05:10.424868,599616655949761897,70.00
2025-06-06 15:05:10.424868,599616655949761897,63.00
2025-06-06 15:05:10.424868,599616655949761897,55.00
2025-06-06 15:05:10.424868,599616655949761897,48.00
2025-06-06 15:05:10.424868,599616655949761897,46.00
2025-06-06 15:05:10.424868,599616655949761897,46.00
2025-06-06 15:05:10.424868,599616655949761897,43.00
2025-06-06 15:05:10.424868,599616655949761897,41.00
2025-06-06 15:05:10.424868,599616655949761897,46.00
2025-06-06 15:05:10.424868,599616655949761897,48.00
2025-06-06 15:05:10.424868,599616655949761897,43.00
2025-06-06 15:05:10.424868,599616655949761897,43.00
2025-06-06 15:05:10.424868,599616655949761897,46.00
2025-06-06 15:05:10.424868,599616655949761897,41.00
2025-06-06 15:05:10.424868,599616655949761897,29.00
2025-06-06 15:05:10.424868,599616655949761897,21.00
2025-06-06 15:05:10.424868,599616655949761897,24.00
2025-06-06 15:05:10.424868,599616655949761897,14.00
2025-06-06 15:05:10.424868,599616655949761897,-12.00
2025-06-06 15:05:10.424868,599616655949761897,-24.00
2025-06-06 15:05:10.424868,599616655949761897,2.00
2025-06-06 15:05:10.424868,599616655949761897,36.00
2025-06-06 15:05:10.424868,599616655949761897,43.00
2025-06-06 15:05:10.424868,599616655949761897,36.00
2025-06-06 15:05:10.424868,599616655949761897,34.00
2025-06-06 15:05:10.424868,599616655949761897,34.00
2025-06-06 15:05:10.424868,599616655949761897,34.00
2025-06-06 15:05:10.424868,599616655949761897,29.00
2025-06-06 15:05:10.424868,599616655949761897,26.00
2025-06-06 15:05:10.424868,599616655949761897,29.00
2025-06-06 15:05:10.424868,599616655949761897,26.00
2025-06-06 15:05:10.424868,599616655949761897,17.00
2025-06-06 15:05:10.424868,599616655949761897,17.00
2025-06-06 15:05:10.424868,599616655949761897,26.00
2025-06-06 15:05:10.424868,599616655949761897,-80.00
2025-06-06 15:05:10.424868,599616655949761897,-484.00
2025-06-06 15:05:10.424868,599616655949761897,-1094.00
2025-06-06 15:05:10.424868,599616655949761897,-1593.00
2025-06-06 15:05:10.424868,599616655949761897,-1586.00
2025-06-06 15:05:10.424868,599616655949761897,-810.00
2025-06-06 15:05:10.424868,599616655949761897,167.00
2025-06-06 15:05:10.424868,599616655949761897,345.00
2025-06-06 15:05:10.424868,599616655949761897,-31.00
2025-06-06 15:05:10.424868,599616655949761897,-19.00
2025-06-06 15:05:10.424868,599616655949761897,158.00
2025-06-06 15:05:10.424868,599616655949761897,65.00
2025-06-06 15:05:10.424868,599616655949761897,0.00
2025-06-06 15:05:10.424868,599616655949761897,41.00
2025-06-06 15:05:10.424868,599616655949761897,9.00
2025-06-06 15:05:10.424868,599616655949761897,-43.00
2025-06-06 15:05:10.424868,599616655949761897,-51.00
2025-06-06 15:05:10.424868,599616655949761897,-72.00
2025-06-06 15:05:10.424868,599616655949761897,-111.00
2025-06-06 15:05:10.424868,599616655949761897,-141.00
2025-06-06 15:05:10.424868,599616655949761897,-165.00
2025-06-06 15:05:10.424868,599616655949761897,-199.00
2025-06-06 15:05:10.424868,599616655949761897,-233.00
2025-06-06 15:05:10.424868,599616655949761897,-267.00
2025-06-06 15:05:10.424868,599616655949761897,-301.00
2025-06-06 15:05:10.424868,599616655949761897,-335.00
2025-06-06 15:05:10.424868,599616655949761897,-360.00
2025-06-06 15:05:10.424868,599616655949761897,-377.00
2025-06-06 15:05:10.424868,599616655949761897,-384.00
2025-06-06 15:05:10.424868,599616655949761897,-384.00
2025-06-06 15:05:10.424868,599616655949761897,-374.00
2025-06-06 15:05:10.424868,599616655949761897,-350.00
2025-06-06 15:05:10.424868,599616655949761897,-301.00
2025-06-06 15:05:10.424868,599616655949761897,-226.00
2025-06-06 15:05:10.424868,599616655949761897,-141.00
2025-06-06 15:05:10.424868,599616655949761897,-55.00
2025-06-06 15:05:10.994252,599616656510489456,21.00
2025-06-06 15:05:10.994252,599616656510489456,85.00
2025-06-06 15:05:10.994252,599616656510489456,128.00
2025-06-06 15:05:10.994252,599616656510489456,153.00
2025-06-06 15:05:10.994252,599616656510489456,163.00
2025-06-06 15:05:10.994252,599616656510489456,160.00
2025-06-06 15:05:10.994252,599616656510489456,158.00
2025-06-06 15:05:10.994252,599616656510489456,150.00
2025-06-06 15:05:10.994252,599616656510489456,138.00
2025-06-06 15:05:10.994252,599616656510489456,128.00
2025-06-06 15:05:10.994252,599616656510489456,116.00
2025-06-06 15:05:10.994252,599616656510489456,99.00
2025-06-06 15:05:10.994252,599616656510489456,87.00
2025-06-06 15:05:10.994252,599616656510489456,82.00
2025-06-06 15:05:10.994252,599616656510489456,72.00
2025-06-06 15:05:10.994252,599616656510489456,55.00
2025-06-06 15:05:10.994252,599616656510489456,51.00
2025-06-06 15:05:10.994252,599616656510489456,53.00
2025-06-06 15:05:10.994252,599616656510489456,48.00
2025-06-06 15:05:10.994252,599616656510489456,43.00
2025-06-06 15:05:10.994252,599616656510489456,38.00
2025-06-06 15:05:10.994252,599616656510489456,38.00
2025-06-06 15:05:10.994252,599616656510489456,38.00
2025-06-06 15:05:10.994252,599616656510489456,46.00
2025-06-06 15:05:10.994252,599616656510489456,46.00
2025-06-06 15:05:10.994252,599616656510489456,43.00
2025-06-06 15:05:10.994252,599616656510489456,41.00
2025-06-06 15:05:10.994252,599616656510489456,46.00
2025-06-06 15:05:10.994252,599616656510489456,43.00
2025-06-06 15:05:10.994252,599616656510489456,43.00
2025-06-06 15:05:10.994252,599616656510489456,38.00
2025-06-06 15:05:10.994252,599616656510489456,34.00
2025-06-06 15:05:10.994252,599616656510489456,26.00
2025-06-06 15:05:10.994252,599616656510489456,24.00
2025-06-06 15:05:10.994252,599616656510489456,17.00
2025-06-06 15:05:10.994252,599616656510489456,2.00
2025-06-06 15:05:10.994252,599616656510489456,-2.00
2025-06-06 15:05:10.994252,599616656510489456,2.00
2025-06-06 15:05:10.994252,599616656510489456,-12.00
2025-06-06 15:05:10.994252,599616656510489456,-41.00
2025-06-06 15:05:10.994252,599616656510489456,-38.00
2025-06-06 15:05:10.994252,599616656510489456,4.00
2025-06-06 15:05:10.994252,599616656510489456,31.00
2025-06-06 15:05:10.994252,599616656510489456,19.00
2025-06-06 15:05:10.994252,599616656510489456,9.00
2025-06-06 15:05:10.994252,599616656510489456,14.00
2025-06-06 15:05:10.994252,599616656510489456,14.00
2025-06-06 15:05:10.994252,599616656510489456,9.00
2025-06-06 15:05:10.994252,599616656510489456,14.00
2025-06-06 15:05:10.994252,599616656510489456,14.00
2025-06-06 15:05:10.994252,599616656510489456,7.00
2025-06-06 15:05:10.994252,599616656510489456,4.00
2025-06-06 15:05:10.994252,599616656510489456,9.00
2025-06-06 15:05:10.994252,599616656510489456,17.00
2025-06-06 15:05:10.994252,599616656510489456,-36.00
2025-06-06 15:05:10.994252,599616656510489456,-343.00
2025-06-06 15:05:10.994252,599616656510489456,-912.00
2025-06-06 15:05:10.994252,599616656510489456,-1464.00
2025-06-06 15:05:10.994252,599616656510489456,-1666.00
2025-06-06 15:05:10.994252,599616656510489456,-1167.00
2025-06-06 15:05:10.994252,599616656510489456,-126.00
2025-06-06 15:05:10.994252,599616656510489456,399.00
2025-06-06 15:05:10.994252,599616656510489456,75.00
2025-06-06 15:05:10.994252,599616656510489456,-92.00
2025-06-06 15:05:10.994252,599616656510489456,109.00
2025-06-06 15:05:10.994252,599616656510489456,97.00
2025-06-06 15:05:10.994252,599616656510489456,-17.00
2025-06-06 15:05:10.994252,599616656510489456,9.00
2025-06-06 15:05:10.994252,599616656510489456,9.00
2025-06-06 15:05:10.994252,599616656510489456,-48.00
2025-06-06 15:05:10.994252,599616656510489456,-65.00
2025-06-06 15:05:10.994252,599616656510489456,-72.00
2025-06-06 15:05:10.994252,599616656510489456,-111.00
2025-06-06 15:05:11.564191,599616657071186497,-145.00
2025-06-06 15:05:11.564191,599616657071186497,-170.00
2025-06-06 15:05:11.564191,599616657071186497,-204.00
2025-06-06 15:05:11.564191,599616657071186497,-236.00
2025-06-06 15:05:11.564191,599616657071186497,-270.00
2025-06-06 15:05:11.564191,599616657071186497,-309.00
2025-06-06 15:05:11.564191,599616657071186497,-345.00
2025-06-06 15:05:11.564191,599616657071186497,-369.00
2025-06-06 15:05:11.564191,599616657071186497,-386.00
2025-06-06 15:05:11.564191,599616657071186497,-399.00
2025-06-06 15:05:11.564191,599616657071186497,-403.00
2025-06-06 15:05:11.564191,599616657071186497,-399.00
2025-06-06 15:05:11.564191,599616657071186497,-382.00
2025-06-06 15:05:11.564191,599616657071186497,-350.00
2025-06-06 15:05:11.564191,599616657071186497,-289.00
2025-06-06 15:05:11.564191,599616657071186497,-206.00
2025-06-06 15:05:11.564191,599616657071186497,-119.00
2025-06-06 15:05:11.564191,599616657071186497,-36.00
2025-06-06 15:05:11.564191,599616657071186497,43.00
2025-06-06 15:05:11.564191,599616657071186497,99.00
2025-06-06 15:05:11.564191,599616657071186497,133.00
2025-06-06 15:05:11.564191,599616657071186497,158.00
2025-06-06 15:05:11.564191,599616657071186497,167.00
2025-06-06 15:05:11.564191,599616657071186497,165.00
2025-06-06 15:05:11.564191,599616657071186497,160.00
2025-06-06 15:05:11.564191,599616657071186497,153.00
2025-06-06 15:05:11.564191,599616657071186497,136.00
2025-06-06 15:05:11.564191,599616657071186497,121.00
2025-06-06 15:05:11.564191,599616657071186497,114.00
2025-06-06 15:05:11.564191,599616657071186497,104.00
2025-06-06 15:05:11.564191,599616657071186497,85.00
2025-06-06 15:05:11.564191,599616657071186497,75.00
2025-06-06 15:05:11.564191,599616657071186497,77.00
2025-06-06 15:05:11.564191,599616657071186497,68.00
2025-06-06 15:05:11.564191,599616657071186497,55.00
2025-06-06 15:05:11.564191,599616657071186497,53.00
2025-06-06 15:05:11.564191,599616657071186497,53.00
2025-06-06 15:05:11.564191,599616657071186497,53.00
2025-06-06 15:05:11.564191,599616657071186497,53.00
2025-06-06 15:05:11.564191,599616657071186497,53.00
2025-06-06 15:05:11.564191,599616657071186497,58.00
2025-06-06 15:05:11.564191,599616657071186497,58.00
2025-06-06 15:05:11.564191,599616657071186497,51.00
2025-06-06 15:05:11.564191,599616657071186497,53.00
2025-06-06 15:05:11.564191,599616657071186497,55.00
2025-06-06 15:05:11.564191,599616657071186497,51.00
2025-06-06 15:05:11.564191,599616657071186497,53.00
2025-06-06 15:05:11.564191,599616657071186497,51.00
2025-06-06 15:05:11.564191,599616657071186497,43.00
2025-06-06 15:05:11.564191,599616657071186497,41.00
2025-06-06 15:05:11.564191,599616657071186497,38.00
2025-06-06 15:05:11.564191,599616657071186497,34.00
2025-06-06 15:05:11.564191,599616657071186497,26.00
2025-06-06 15:05:11.564191,599616657071186497,17.00
2025-06-06 15:05:11.564191,599616657071186497,4.00
2025-06-06 15:05:11.564191,599616657071186497,7.00
2025-06-06 15:05:11.564191,599616657071186497,4.00
2025-06-06 15:05:11.564191,599616657071186497,-21.00
2025-06-06 15:05:11.564191,599616657071186497,-34.00
2025-06-06 15:05:11.564191,599616657071186497,-7.00
2025-06-06 15:05:11.564191,599616657071186497,21.00
2025-06-06 15:05:11.564191,599616657071186497,29.00
2025-06-06 15:05:11.564191,599616657071186497,24.00
2025-06-06 15:05:11.564191,599616657071186497,21.00
2025-06-06 15:05:11.564191,599616657071186497,21.00
2025-06-06 15:05:11.564191,599616657071186497,21.00
2025-06-06 15:05:11.564191,599616657071186497,19.00
2025-06-06 15:05:11.564191,599616657071186497,12.00
2025-06-06 15:05:11.564191,599616657071186497,12.00
2025-06-06 15:05:11.564191,599616657071186497,12.00
2025-06-06 15:05:11.564191,599616657071186497,4.00
2025-06-06 15:05:11.564191,599616657071186497,0.00
2025-06-06 15:05:11.564191,599616657071186497,-2.00
2025-06-06 15:05:12.074604,599616657631914056,-128.00
2025-06-06 15:05:12.074604,599616657631914056,-569.00
2025-06-06 15:05:12.074604,599616657631914056,-1167.00
2025-06-06 15:05:12.074604,599616657631914056,-1540.00
2025-06-06 15:05:12.074604,599616657631914056,-1411.00
2025-06-06 15:05:12.074604,599616657631914056,-620.00
2025-06-06 15:05:12.074604,599616657631914056,289.00
2025-06-06 15:05:12.074604,599616657631914056,357.00
2025-06-06 15:05:12.074604,599616657631914056,-53.00
2025-06-06 15:05:12.074604,599616657631914056,-29.00
2025-06-06 15:05:12.074604,599616657631914056,121.00
2025-06-06 15:05:12.074604,599616657631914056,19.00
2025-06-06 15:05:12.074604,599616657631914056,-34.00
2025-06-06 15:05:12.074604,599616657631914056,4.00
2025-06-06 15:05:12.074604,599616657631914056,-29.00
2025-06-06 15:05:12.074604,599616657631914056,-77.00
2025-06-06 15:05:12.074604,599616657631914056,-87.00
2025-06-06 15:05:12.074604,599616657631914056,-111.00
2025-06-06 15:05:12.074604,599616657631914056,-145.00
2025-06-06 15:05:12.074604,599616657631914056,-170.00
2025-06-06 15:05:12.074604,599616657631914056,-199.00
2025-06-06 15:05:12.074604,599616657631914056,-240.00
2025-06-06 15:05:12.074604,599616657631914056,-277.00
2025-06-06 15:05:12.074604,599616657631914056,-309.00
2025-06-06 15:05:12.074604,599616657631914056,-340.00
2025-06-06 15:05:12.074604,599616657631914056,-372.00
2025-06-06 15:05:12.074604,599616657631914056,-394.00
2025-06-06 15:05:12.074604,599616657631914056,-406.00
2025-06-06 15:05:12.074604,599616657631914056,-413.00
2025-06-06 15:05:12.074604,599616657631914056,-413.00
2025-06-06 15:05:12.074604,599616657631914056,-401.00
2025-06-06 15:05:12.074604,599616657631914056,-377.00
2025-06-06 15:05:12.074604,599616657631914056,-328.00
2025-06-06 15:05:12.074604,599616657631914056,-255.00
2025-06-06 15:05:12.074604,599616657631914056,-165.00
2025-06-06 15:05:12.074604,599616657631914056,-72.00
2025-06-06 15:05:12.074604,599616657631914056,12.00
2025-06-06 15:05:12.074604,599616657631914056,75.00
2025-06-06 15:05:12.074604,599616657631914056,119.00
2025-06-06 15:05:12.074604,599616657631914056,148.00
2025-06-06 15:05:12.074604,599616657631914056,165.00
