Timestamp,Device Timestamp (ns),ECG Value (uV)
2025-06-06 15:13:38.485575,599617163974027159,206.00
2025-06-06 15:13:38.485575,599617163974027159,216.00
2025-06-06 15:13:38.485575,599617163974027159,-55.00
2025-06-06 15:13:38.485575,599617163974027159,68.00
2025-06-06 15:13:38.485575,599617163974027159,245.00
2025-06-06 15:13:38.485575,599617163974027159,14.00
2025-06-06 15:13:38.485575,599617163974027159,2.00
2025-06-06 15:13:38.485575,599617163974027159,199.00
2025-06-06 15:13:38.485575,599617163974027159,160.00
2025-06-06 15:13:38.485575,599617163974027159,46.00
2025-06-06 15:13:38.485575,599617163974027159,-19.00
2025-06-06 15:13:38.485575,599617163974027159,-85.00
2025-06-06 15:13:38.485575,599617163974027159,-65.00
2025-06-06 15:13:38.485575,599617163974027159,133.00
2025-06-06 15:13:38.485575,599617163974027159,260.00
2025-06-06 15:13:38.485575,599617163974027159,160.00
2025-06-06 15:13:38.485575,599617163974027159,92.00
2025-06-06 15:13:38.485575,599617163974027159,-65.00
2025-06-06 15:13:38.485575,599617163974027159,-367.00
2025-06-06 15:13:38.485575,599617163974027159,-17.00
2025-06-06 15:13:38.485575,599617163974027159,557.00
2025-06-06 15:13:38.485575,599617163974027159,384.00
2025-06-06 15:13:38.485575,599617163974027159,211.00
2025-06-06 15:13:38.485575,599617163974027159,291.00
2025-06-06 15:13:38.485575,599617163974027159,58.00
2025-06-06 15:13:38.485575,599617163974027159,-678.00
2025-06-06 15:13:38.485575,599617163974027159,-1540.00
2025-06-06 15:13:38.485575,599617163974027159,-1922.00
2025-06-06 15:13:38.485575,599617163974027159,-1554.00
2025-06-06 15:13:38.485575,599617163974027159,-19.00
2025-06-06 15:13:38.485575,599617163974027159,888.00
2025-06-06 15:13:38.485575,599617163974027159,-51.00
2025-06-06 15:13:38.485575,599617163974027159,-228.00
2025-06-06 15:13:38.485575,599617163974027159,450.00
2025-06-06 15:13:38.485575,599617163974027159,-9.00
2025-06-06 15:13:38.485575,599617163974027159,-467.00
2025-06-06 15:13:38.485575,599617163974027159,9.00
2025-06-06 15:13:38.485575,599617163974027159,51.00
2025-06-06 15:13:38.485575,599617163974027159,-248.00
2025-06-06 15:13:38.485575,599617163974027159,-43.00
2025-06-06 15:13:38.485575,599617163974027159,-21.00
2025-06-06 15:13:38.485575,599617163974027159,-72.00
2025-06-06 15:13:38.485575,599617163974027159,-26.00
2025-06-06 15:13:38.485575,599617163974027159,-442.00
2025-06-06 15:13:38.485575,599617163974027159,-591.00
2025-06-06 15:13:38.485575,599617163974027159,-158.00
2025-06-06 15:13:38.485575,599617163974027159,-163.00
2025-06-06 15:13:38.485575,599617163974027159,-457.00
2025-06-06 15:13:38.485575,599617163974027159,-379.00
2025-06-06 15:13:38.485575,599617163974027159,-360.00
2025-06-06 15:13:38.485575,599617163974027159,-435.00
2025-06-06 15:13:38.485575,599617163974027159,-450.00
2025-06-06 15:13:38.485575,599617163974027159,-652.00
2025-06-06 15:13:38.485575,599617163974027159,-676.00
2025-06-06 15:13:38.485575,599617163974027159,-452.00
2025-06-06 15:13:38.485575,599617163974027159,-442.00
2025-06-06 15:13:38.485575,599617163974027159,-518.00
2025-06-06 15:13:38.485575,599617163974027159,-489.00
2025-06-06 15:13:38.485575,599617163974027159,-447.00
2025-06-06 15:13:38.485575,599617163974027159,-399.00
2025-06-06 15:13:38.485575,599617163974027159,-231.00
2025-06-06 15:13:38.485575,599617163974027159,-46.00
2025-06-06 15:13:38.485575,599617163974027159,0.00
2025-06-06 15:13:38.485575,599617163974027159,4.00
2025-06-06 15:13:38.485575,599617163974027159,0.00
2025-06-06 15:13:38.485575,599617163974027159,2.00
2025-06-06 15:13:38.485575,599617163974027159,26.00
2025-06-06 15:13:38.485575,599617163974027159,53.00
2025-06-06 15:13:38.485575,599617163974027159,138.00
2025-06-06 15:13:38.485575,599617163974027159,109.00
2025-06-06 15:13:38.485575,599617163974027159,-26.00
2025-06-06 15:13:38.485575,599617163974027159,12.00
2025-06-06 15:13:38.485575,599617163974027159,109.00
2025-06-06 15:13:38.996476,599617164534785236,38.00
2025-06-06 15:13:38.996476,599617164534785236,-99.00
2025-06-06 15:13:38.996476,599617164534785236,-143.00
2025-06-06 15:13:38.996476,599617164534785236,-43.00
2025-06-06 15:13:38.996476,599617164534785236,26.00
2025-06-06 15:13:38.996476,599617164534785236,-75.00
2025-06-06 15:13:38.996476,599617164534785236,-63.00
2025-06-06 15:13:38.996476,599617164534785236,82.00
2025-06-06 15:13:38.996476,599617164534785236,53.00
2025-06-06 15:13:38.996476,599617164534785236,-63.00
2025-06-06 15:13:38.996476,599617164534785236,-58.00
2025-06-06 15:13:38.996476,599617164534785236,-29.00
2025-06-06 15:13:38.996476,599617164534785236,-68.00
2025-06-06 15:13:38.996476,599617164534785236,-97.00
2025-06-06 15:13:38.996476,599617164534785236,-85.00
2025-06-06 15:13:38.996476,599617164534785236,-70.00
2025-06-06 15:13:38.996476,599617164534785236,-53.00
2025-06-06 15:13:38.996476,599617164534785236,-111.00
2025-06-06 15:13:38.996476,599617164534785236,-172.00
2025-06-06 15:13:38.996476,599617164534785236,-41.00
2025-06-06 15:13:38.996476,599617164534785236,46.00
2025-06-06 15:13:38.996476,599617164534785236,-65.00
2025-06-06 15:13:38.996476,599617164534785236,-82.00
2025-06-06 15:13:38.996476,599617164534785236,-14.00
2025-06-06 15:13:38.996476,599617164534785236,-48.00
2025-06-06 15:13:38.996476,599617164534785236,-85.00
2025-06-06 15:13:38.996476,599617164534785236,-51.00
2025-06-06 15:13:38.996476,599617164534785236,-29.00
2025-06-06 15:13:38.996476,599617164534785236,-38.00
2025-06-06 15:13:38.996476,599617164534785236,-63.00
2025-06-06 15:13:38.996476,599617164534785236,-80.00
2025-06-06 15:13:38.996476,599617164534785236,-72.00
2025-06-06 15:13:38.996476,599617164534785236,-107.00
2025-06-06 15:13:38.996476,599617164534785236,-364.00
2025-06-06 15:13:38.996476,599617164534785236,-893.00
2025-06-06 15:13:38.996476,599617164534785236,-1296.00
2025-06-06 15:13:38.996476,599617164534785236,-1250.00
2025-06-06 15:13:38.996476,599617164534785236,-802.00
2025-06-06 15:13:38.996476,599617164534785236,-77.00
2025-06-06 15:13:38.996476,599617164534785236,389.00
2025-06-06 15:13:38.996476,599617164534785236,158.00
2025-06-06 15:13:38.996476,599617164534785236,-128.00
2025-06-06 15:13:38.996476,599617164534785236,-41.00
2025-06-06 15:13:38.996476,599617164534785236,7.00
2025-06-06 15:13:38.996476,599617164534785236,-63.00
2025-06-06 15:13:38.996476,599617164534785236,-68.00
2025-06-06 15:13:38.996476,599617164534785236,-77.00
2025-06-06 15:13:38.996476,599617164534785236,-124.00
2025-06-06 15:13:38.996476,599617164534785236,-138.00
2025-06-06 15:13:38.996476,599617164534785236,-141.00
2025-06-06 15:13:38.996476,599617164534785236,-177.00
2025-06-06 15:13:38.996476,599617164534785236,-221.00
2025-06-06 15:13:38.996476,599617164534785236,-233.00
2025-06-06 15:13:38.996476,599617164534785236,-253.00
2025-06-06 15:13:38.996476,599617164534785236,-289.00
2025-06-06 15:13:38.996476,599617164534785236,-323.00
2025-06-06 15:13:38.996476,599617164534785236,-352.00
2025-06-06 15:13:38.996476,599617164534785236,-389.00
2025-06-06 15:13:38.996476,599617164534785236,-418.00
2025-06-06 15:13:38.996476,599617164534785236,-442.00
2025-06-06 15:13:38.996476,599617164534785236,-462.00
2025-06-06 15:13:38.996476,599617164534785236,-472.00
2025-06-06 15:13:38.996476,599617164534785236,-472.00
2025-06-06 15:13:38.996476,599617164534785236,-464.00
2025-06-06 15:13:38.996476,599617164534785236,-437.00
2025-06-06 15:13:38.996476,599617164534785236,-382.00
2025-06-06 15:13:38.996476,599617164534785236,-301.00
2025-06-06 15:13:38.996476,599617164534785236,-189.00
2025-06-06 15:13:38.996476,599617164534785236,-65.00
2025-06-06 15:13:38.996476,599617164534785236,26.00
2025-06-06 15:13:38.996476,599617164534785236,87.00
2025-06-06 15:13:38.996476,599617164534785236,163.00
2025-06-06 15:13:38.996476,599617164534785236,214.00
2025-06-06 15:13:39.566982,599617165095543313,223.00
2025-06-06 15:13:39.566982,599617165095543313,233.00
2025-06-06 15:13:39.566982,599617165095543313,240.00
2025-06-06 15:13:39.566982,599617165095543313,236.00
2025-06-06 15:13:39.566982,599617165095543313,221.00
2025-06-06 15:13:39.566982,599617165095543313,199.00
2025-06-06 15:13:39.566982,599617165095543313,194.00
2025-06-06 15:13:39.566982,599617165095543313,211.00
2025-06-06 15:13:39.566982,599617165095543313,206.00
2025-06-06 15:13:39.566982,599617165095543313,153.00
2025-06-06 15:13:39.566982,599617165095543313,121.00
2025-06-06 15:13:39.566982,599617165095543313,145.00
2025-06-06 15:13:39.566982,599617165095543313,150.00
2025-06-06 15:13:39.566982,599617165095543313,131.00
2025-06-06 15:13:39.566982,599617165095543313,131.00
2025-06-06 15:13:39.566982,599617165095543313,133.00
2025-06-06 15:13:39.566982,599617165095543313,121.00
2025-06-06 15:13:39.566982,599617165095543313,119.00
2025-06-06 15:13:39.566982,599617165095543313,124.00
2025-06-06 15:13:39.566982,599617165095543313,116.00
2025-06-06 15:13:39.566982,599617165095543313,102.00
2025-06-06 15:13:39.566982,599617165095543313,99.00
2025-06-06 15:13:39.566982,599617165095543313,104.00
2025-06-06 15:13:39.566982,599617165095543313,92.00
2025-06-06 15:13:39.566982,599617165095543313,72.00
2025-06-06 15:13:39.566982,599617165095543313,68.00
2025-06-06 15:13:39.566982,599617165095543313,87.00
2025-06-06 15:13:39.566982,599617165095543313,116.00
2025-06-06 15:13:39.566982,599617165095543313,136.00
2025-06-06 15:13:39.566982,599617165095543313,133.00
2025-06-06 15:13:39.566982,599617165095543313,126.00
2025-06-06 15:13:39.566982,599617165095543313,128.00
2025-06-06 15:13:39.566982,599617165095543313,133.00
2025-06-06 15:13:39.566982,599617165095543313,126.00
2025-06-06 15:13:39.566982,599617165095543313,121.00
2025-06-06 15:13:39.566982,599617165095543313,119.00
2025-06-06 15:13:39.566982,599617165095543313,116.00
2025-06-06 15:13:39.566982,599617165095543313,111.00
2025-06-06 15:13:39.566982,599617165095543313,107.00
2025-06-06 15:13:39.566982,599617165095543313,104.00
2025-06-06 15:13:39.566982,599617165095543313,51.00
2025-06-06 15:13:39.566982,599617165095543313,-206.00
2025-06-06 15:13:39.566982,599617165095543313,-656.00
2025-06-06 15:13:39.566982,599617165095543313,-968.00
2025-06-06 15:13:39.566982,599617165095543313,-914.00
2025-06-06 15:13:39.566982,599617165095543313,-476.00
2025-06-06 15:13:39.566982,599617165095543313,163.00
2025-06-06 15:13:39.566982,599617165095543313,420.00
2025-06-06 15:13:39.566982,599617165095543313,143.00
2025-06-06 15:13:39.566982,599617165095543313,-34.00
2025-06-06 15:13:39.566982,599617165095543313,72.00
2025-06-06 15:13:39.566982,599617165095543313,82.00
2025-06-06 15:13:39.566982,599617165095543313,2.00
2025-06-06 15:13:39.566982,599617165095543313,4.00
2025-06-06 15:13:39.566982,599617165095543313,4.00
2025-06-06 15:13:39.566982,599617165095543313,-41.00
2025-06-06 15:13:39.566982,599617165095543313,-63.00
2025-06-06 15:13:39.566982,599617165095543313,-75.00
2025-06-06 15:13:39.566982,599617165095543313,-104.00
2025-06-06 15:13:39.566982,599617165095543313,-136.00
2025-06-06 15:13:39.566982,599617165095543313,-160.00
2025-06-06 15:13:39.566982,599617165095543313,-194.00
2025-06-06 15:13:39.566982,599617165095543313,-228.00
2025-06-06 15:13:39.566982,599617165095543313,-257.00
2025-06-06 15:13:39.566982,599617165095543313,-296.00
2025-06-06 15:13:39.566982,599617165095543313,-338.00
2025-06-06 15:13:39.566982,599617165095543313,-374.00
2025-06-06 15:13:39.566982,599617165095543313,-406.00
2025-06-06 15:13:39.566982,599617165095543313,-430.00
2025-06-06 15:13:39.566982,599617165095543313,-445.00
2025-06-06 15:13:39.566982,599617165095543313,-445.00
2025-06-06 15:13:39.566982,599617165095543313,-440.00
2025-06-06 15:13:39.566982,599617165095543313,-425.00
2025-06-06 15:13:40.107367,599617165656301390,-374.00
2025-06-06 15:13:40.107367,599617165656301390,-279.00
2025-06-06 15:13:40.107367,599617165656301390,-170.00
2025-06-06 15:13:40.107367,599617165656301390,-60.00
2025-06-06 15:13:40.107367,599617165656301390,36.00
2025-06-06 15:13:40.107367,599617165656301390,121.00
2025-06-06 15:13:40.107367,599617165656301390,182.00
2025-06-06 15:13:40.107367,599617165656301390,221.00
2025-06-06 15:13:40.107367,599617165656301390,240.00
2025-06-06 15:13:40.107367,599617165656301390,248.00
2025-06-06 15:13:40.107367,599617165656301390,245.00
2025-06-06 15:13:40.107367,599617165656301390,236.00
2025-06-06 15:13:40.107367,599617165656301390,226.00
2025-06-06 15:13:40.107367,599617165656301390,216.00
2025-06-06 15:13:40.107367,599617165656301390,199.00
2025-06-06 15:13:40.107367,599617165656301390,184.00
2025-06-06 15:13:40.107367,599617165656301390,172.00
2025-06-06 15:13:40.107367,599617165656301390,163.00
2025-06-06 15:13:40.107367,599617165656301390,153.00
2025-06-06 15:13:40.107367,599617165656301390,145.00
2025-06-06 15:13:40.107367,599617165656301390,143.00
2025-06-06 15:13:40.107367,599617165656301390,136.00
2025-06-06 15:13:40.107367,599617165656301390,131.00
2025-06-06 15:13:40.107367,599617165656301390,126.00
2025-06-06 15:13:40.107367,599617165656301390,121.00
2025-06-06 15:13:40.107367,599617165656301390,121.00
2025-06-06 15:13:40.107367,599617165656301390,124.00
2025-06-06 15:13:40.107367,599617165656301390,119.00
2025-06-06 15:13:40.107367,599617165656301390,107.00
2025-06-06 15:13:40.107367,599617165656301390,104.00
2025-06-06 15:13:40.107367,599617165656301390,111.00
2025-06-06 15:13:40.107367,599617165656301390,97.00
2025-06-06 15:13:40.107367,599617165656301390,68.00
2025-06-06 15:13:40.107367,599617165656301390,72.00
2025-06-06 15:13:40.107367,599617165656301390,111.00
2025-06-06 15:13:40.107367,599617165656301390,138.00
2025-06-06 15:13:40.107367,599617165656301390,138.00
2025-06-06 15:13:40.107367,599617165656301390,131.00
2025-06-06 15:13:40.107367,599617165656301390,126.00
2025-06-06 15:13:40.107367,599617165656301390,126.00
2025-06-06 15:13:40.107367,599617165656301390,126.00
2025-06-06 15:13:40.107367,599617165656301390,121.00
2025-06-06 15:13:40.107367,599617165656301390,116.00
2025-06-06 15:13:40.107367,599617165656301390,111.00
2025-06-06 15:13:40.107367,599617165656301390,109.00
2025-06-06 15:13:40.107367,599617165656301390,104.00
2025-06-06 15:13:40.107367,599617165656301390,102.00
2025-06-06 15:13:40.107367,599617165656301390,82.00
2025-06-06 15:13:40.107367,599617165656301390,-97.00
2025-06-06 15:13:40.107367,599617165656301390,-532.00
2025-06-06 15:13:40.107367,599617165656301390,-963.00
2025-06-06 15:13:40.107367,599617165656301390,-1085.00
2025-06-06 15:13:40.107367,599617165656301390,-768.00
2025-06-06 15:13:40.107367,599617165656301390,-102.00
2025-06-06 15:13:40.107367,599617165656301390,369.00
2025-06-06 15:13:40.107367,599617165656301390,238.00
2025-06-06 15:13:40.107367,599617165656301390,-21.00
2025-06-06 15:13:40.107367,599617165656301390,38.00
2025-06-06 15:13:40.107367,599617165656301390,114.00
2025-06-06 15:13:40.107367,599617165656301390,34.00
2025-06-06 15:13:40.107367,599617165656301390,7.00
2025-06-06 15:13:40.107367,599617165656301390,24.00
2025-06-06 15:13:40.107367,599617165656301390,-12.00
2025-06-06 15:13:40.107367,599617165656301390,-46.00
2025-06-06 15:13:40.107367,599617165656301390,-58.00
2025-06-06 15:13:40.107367,599617165656301390,-85.00
2025-06-06 15:13:40.107367,599617165656301390,-119.00
2025-06-06 15:13:40.107367,599617165656301390,-145.00
2025-06-06 15:13:40.107367,599617165656301390,-175.00
2025-06-06 15:13:40.107367,599617165656301390,-211.00
2025-06-06 15:13:40.107367,599617165656301390,-248.00
2025-06-06 15:13:40.107367,599617165656301390,-282.00
2025-06-06 15:13:40.107367,599617165656301390,-318.00
2025-06-06 15:13:40.676720,599617166217059467,-357.00
2025-06-06 15:13:40.676720,599617166217059467,-386.00
2025-06-06 15:13:40.676720,599617166217059467,-413.00
2025-06-06 15:13:40.676720,599617166217059467,-433.00
2025-06-06 15:13:40.676720,599617166217059467,-445.00
2025-06-06 15:13:40.676720,599617166217059467,-445.00
2025-06-06 15:13:40.676720,599617166217059467,-430.00
2025-06-06 15:13:40.676720,599617166217059467,-386.00
2025-06-06 15:13:40.676720,599617166217059467,-306.00
2025-06-06 15:13:40.676720,599617166217059467,-201.00
2025-06-06 15:13:40.676720,599617166217059467,-87.00
2025-06-06 15:13:40.676720,599617166217059467,17.00
2025-06-06 15:13:40.676720,599617166217059467,102.00
2025-06-06 15:13:40.676720,599617166217059467,165.00
2025-06-06 15:13:40.676720,599617166217059467,206.00
2025-06-06 15:13:40.676720,599617166217059467,228.00
2025-06-06 15:13:40.676720,599617166217059467,238.00
2025-06-06 15:13:40.676720,599617166217059467,240.00
2025-06-06 15:13:40.676720,599617166217059467,233.00
2025-06-06 15:13:40.676720,599617166217059467,221.00
2025-06-06 15:13:40.676720,599617166217059467,206.00
2025-06-06 15:13:40.676720,599617166217059467,192.00
2025-06-06 15:13:40.676720,599617166217059467,180.00
2025-06-06 15:13:40.676720,599617166217059467,170.00
2025-06-06 15:13:40.676720,599617166217059467,158.00
2025-06-06 15:13:40.676720,599617166217059467,143.00
2025-06-06 15:13:40.676720,599617166217059467,136.00
2025-06-06 15:13:40.676720,599617166217059467,131.00
2025-06-06 15:13:40.676720,599617166217059467,128.00
2025-06-06 15:13:40.676720,599617166217059467,126.00
2025-06-06 15:13:40.676720,599617166217059467,121.00
2025-06-06 15:13:40.676720,599617166217059467,114.00
2025-06-06 15:13:40.676720,599617166217059467,114.00
2025-06-06 15:13:40.676720,599617166217059467,116.00
2025-06-06 15:13:40.676720,599617166217059467,107.00
2025-06-06 15:13:40.676720,599617166217059467,92.00
2025-06-06 15:13:40.676720,599617166217059467,94.00
2025-06-06 15:13:40.676720,599617166217059467,99.00
2025-06-06 15:13:40.676720,599617166217059467,85.00
2025-06-06 15:13:40.676720,599617166217059467,60.00
2025-06-06 15:13:40.676720,599617166217059467,63.00
2025-06-06 15:13:40.676720,599617166217059467,99.00
2025-06-06 15:13:40.676720,599617166217059467,133.00
2025-06-06 15:13:40.676720,599617166217059467,133.00
2025-06-06 15:13:40.676720,599617166217059467,126.00
2025-06-06 15:13:40.676720,599617166217059467,126.00
2025-06-06 15:13:40.676720,599617166217059467,128.00
2025-06-06 15:13:40.676720,599617166217059467,124.00
2025-06-06 15:13:40.676720,599617166217059467,119.00
2025-06-06 15:13:40.676720,599617166217059467,119.00
2025-06-06 15:13:40.676720,599617166217059467,116.00
2025-06-06 15:13:40.676720,599617166217059467,111.00
2025-06-06 15:13:40.676720,599617166217059467,104.00
2025-06-06 15:13:40.676720,599617166217059467,104.00
2025-06-06 15:13:40.676720,599617166217059467,80.00
2025-06-06 15:13:40.676720,599617166217059467,-131.00
2025-06-06 15:13:40.676720,599617166217059467,-588.00
2025-06-06 15:13:40.676720,599617166217059467,-1026.00
2025-06-06 15:13:40.676720,599617166217059467,-1160.00
2025-06-06 15:13:40.676720,599617166217059467,-834.00
2025-06-06 15:13:40.676720,599617166217059467,-119.00
2025-06-06 15:13:40.676720,599617166217059467,372.00
2025-06-06 15:13:40.676720,599617166217059467,216.00
2025-06-06 15:13:40.676720,599617166217059467,-29.00
2025-06-06 15:13:40.676720,599617166217059467,70.00
2025-06-06 15:13:40.676720,599617166217059467,138.00
2025-06-06 15:13:40.676720,599617166217059467,41.00
2025-06-06 15:13:40.676720,599617166217059467,24.00
2025-06-06 15:13:40.676720,599617166217059467,41.00
2025-06-06 15:13:40.676720,599617166217059467,-4.00
2025-06-06 15:13:40.676720,599617166217059467,-38.00
2025-06-06 15:13:40.676720,599617166217059467,-46.00
2025-06-06 15:13:40.676720,599617166217059467,-72.00
2025-06-06 15:13:41.215203,599617166777817544,-107.00
2025-06-06 15:13:41.215203,599617166777817544,-136.00
2025-06-06 15:13:41.215203,599617166777817544,-167.00
2025-06-06 15:13:41.215203,599617166777817544,-201.00
2025-06-06 15:13:41.215203,599617166777817544,-236.00
2025-06-06 15:13:41.215203,599617166777817544,-277.00
2025-06-06 15:13:41.215203,599617166777817544,-318.00
2025-06-06 15:13:41.215203,599617166777817544,-352.00
2025-06-06 15:13:41.215203,599617166777817544,-379.00
2025-06-06 15:13:41.215203,599617166777817544,-406.00
2025-06-06 15:13:41.215203,599617166777817544,-425.00
2025-06-06 15:13:41.215203,599617166777817544,-435.00
2025-06-06 15:13:41.215203,599617166777817544,-435.00
2025-06-06 15:13:41.215203,599617166777817544,-420.00
2025-06-06 15:13:41.215203,599617166777817544,-377.00
2025-06-06 15:13:41.215203,599617166777817544,-299.00
2025-06-06 15:13:41.215203,599617166777817544,-194.00
2025-06-06 15:13:41.215203,599617166777817544,-85.00
2025-06-06 15:13:41.215203,599617166777817544,19.00
2025-06-06 15:13:41.215203,599617166777817544,104.00
2025-06-06 15:13:41.215203,599617166777817544,167.00
2025-06-06 15:13:41.215203,599617166777817544,206.00
2025-06-06 15:13:41.215203,599617166777817544,228.00
2025-06-06 15:13:41.215203,599617166777817544,236.00
2025-06-06 15:13:41.215203,599617166777817544,231.00
2025-06-06 15:13:41.215203,599617166777817544,223.00
2025-06-06 15:13:41.215203,599617166777817544,218.00
2025-06-06 15:13:41.215203,599617166777817544,201.00
2025-06-06 15:13:41.215203,599617166777817544,182.00
2025-06-06 15:13:41.215203,599617166777817544,172.00
2025-06-06 15:13:41.215203,599617166777817544,165.00
2025-06-06 15:13:41.215203,599617166777817544,153.00
2025-06-06 15:13:41.215203,599617166777817544,141.00
2025-06-06 15:13:41.215203,599617166777817544,136.00
2025-06-06 15:13:41.215203,599617166777817544,133.00
2025-06-06 15:13:41.215203,599617166777817544,126.00
2025-06-06 15:13:41.215203,599617166777817544,124.00
2025-06-06 15:13:41.215203,599617166777817544,126.00
2025-06-06 15:13:41.215203,599617166777817544,121.00
2025-06-06 15:13:41.215203,599617166777817544,116.00
2025-06-06 15:13:41.215203,599617166777817544,119.00
2025-06-06 15:13:41.215203,599617166777817544,114.00
2025-06-06 15:13:41.215203,599617166777817544,94.00
2025-06-06 15:13:41.215203,599617166777817544,85.00
2025-06-06 15:13:41.215203,599617166777817544,94.00
2025-06-06 15:13:41.215203,599617166777817544,90.00
2025-06-06 15:13:41.215203,599617166777817544,58.00
2025-06-06 15:13:41.215203,599617166777817544,53.00
2025-06-06 15:13:41.215203,599617166777817544,92.00
2025-06-06 15:13:41.215203,599617166777817544,119.00
2025-06-06 15:13:41.215203,599617166777817544,121.00
2025-06-06 15:13:41.215203,599617166777817544,116.00
2025-06-06 15:13:41.215203,599617166777817544,116.00
2025-06-06 15:13:41.215203,599617166777817544,111.00
2025-06-06 15:13:41.215203,599617166777817544,111.00
2025-06-06 15:13:41.215203,599617166777817544,111.00
2025-06-06 15:13:41.215203,599617166777817544,109.00
2025-06-06 15:13:41.215203,599617166777817544,102.00
2025-06-06 15:13:41.215203,599617166777817544,94.00
2025-06-06 15:13:41.215203,599617166777817544,92.00
2025-06-06 15:13:41.215203,599617166777817544,94.00
2025-06-06 15:13:41.215203,599617166777817544,72.00
2025-06-06 15:13:41.215203,599617166777817544,-131.00
2025-06-06 15:13:41.215203,599617166777817544,-608.00
2025-06-06 15:13:41.215203,599617166777817544,-1080.00
2025-06-06 15:13:41.215203,599617166777817544,-1228.00
2025-06-06 15:13:41.215203,599617166777817544,-917.00
2025-06-06 15:13:41.215203,599617166777817544,-163.00
2025-06-06 15:13:41.215203,599617166777817544,413.00
2025-06-06 15:13:41.215203,599617166777817544,250.00
2025-06-06 15:13:41.215203,599617166777817544,-48.00
2025-06-06 15:13:41.215203,599617166777817544,53.00
2025-06-06 15:13:41.215203,599617166777817544,133.00
2025-06-06 15:13:41.814966,599617167338575623,29.00
2025-06-06 15:13:41.814966,599617167338575623,9.00
2025-06-06 15:13:41.814966,599617167338575623,26.00
2025-06-06 15:13:41.814966,599617167338575623,-17.00
2025-06-06 15:13:41.814966,599617167338575623,-51.00
2025-06-06 15:13:41.814966,599617167338575623,-63.00
2025-06-06 15:13:41.814966,599617167338575623,-92.00
2025-06-06 15:13:41.814966,599617167338575623,-128.00
2025-06-06 15:13:41.814966,599617167338575623,-155.00
2025-06-06 15:13:41.814966,599617167338575623,-184.00
2025-06-06 15:13:41.814966,599617167338575623,-223.00
2025-06-06 15:13:41.814966,599617167338575623,-262.00
2025-06-06 15:13:41.814966,599617167338575623,-299.00
2025-06-06 15:13:41.814966,599617167338575623,-333.00
2025-06-06 15:13:41.814966,599617167338575623,-367.00
2025-06-06 15:13:41.814966,599617167338575623,-391.00
2025-06-06 15:13:41.814966,599617167338575623,-408.00
2025-06-06 15:13:41.814966,599617167338575623,-428.00
2025-06-06 15:13:41.814966,599617167338575623,-437.00
2025-06-06 15:13:41.814966,599617167338575623,-433.00
2025-06-06 15:13:41.814966,599617167338575623,-420.00
2025-06-06 15:13:41.814966,599617167338575623,-386.00
2025-06-06 15:13:41.814966,599617167338575623,-316.00
2025-06-06 15:13:41.814966,599617167338575623,-216.00
2025-06-06 15:13:41.814966,599617167338575623,-109.00
2025-06-06 15:13:41.814966,599617167338575623,-9.00
2025-06-06 15:13:41.814966,599617167338575623,80.00
2025-06-06 15:13:41.814966,599617167338575623,155.00
2025-06-06 15:13:41.814966,599617167338575623,199.00
2025-06-06 15:13:41.814966,599617167338575623,221.00
2025-06-06 15:13:41.814966,599617167338575623,228.00
2025-06-06 15:13:41.814966,599617167338575623,228.00
2025-06-06 15:13:41.814966,599617167338575623,226.00
2025-06-06 15:13:41.814966,599617167338575623,218.00
2025-06-06 15:13:41.814966,599617167338575623,204.00
2025-06-06 15:13:41.814966,599617167338575623,184.00
2025-06-06 15:13:41.814966,599617167338575623,170.00
2025-06-06 15:13:41.814966,599617167338575623,160.00
2025-06-06 15:13:41.814966,599617167338575623,155.00
2025-06-06 15:13:41.814966,599617167338575623,155.00
2025-06-06 15:13:41.814966,599617167338575623,143.00
2025-06-06 15:13:41.814966,599617167338575623,131.00
2025-06-06 15:13:41.814966,599617167338575623,133.00
2025-06-06 15:13:41.814966,599617167338575623,138.00
2025-06-06 15:13:41.814966,599617167338575623,136.00
2025-06-06 15:13:41.814966,599617167338575623,126.00
2025-06-06 15:13:41.814966,599617167338575623,121.00
2025-06-06 15:13:41.814966,599617167338575623,109.00
2025-06-06 15:13:41.814966,599617167338575623,97.00
2025-06-06 15:13:41.814966,599617167338575623,102.00
2025-06-06 15:13:41.814966,599617167338575623,111.00
2025-06-06 15:13:41.814966,599617167338575623,94.00
2025-06-06 15:13:41.814966,599617167338575623,72.00
2025-06-06 15:13:41.814966,599617167338575623,92.00
2025-06-06 15:13:41.814966,599617167338575623,138.00
2025-06-06 15:13:41.814966,599617167338575623,153.00
2025-06-06 15:13:41.814966,599617167338575623,145.00
2025-06-06 15:13:41.814966,599617167338575623,138.00
2025-06-06 15:13:41.814966,599617167338575623,131.00
2025-06-06 15:13:41.814966,599617167338575623,131.00
2025-06-06 15:13:41.814966,599617167338575623,133.00
2025-06-06 15:13:41.814966,599617167338575623,131.00
2025-06-06 15:13:41.814966,599617167338575623,126.00
2025-06-06 15:13:41.814966,599617167338575623,121.00
2025-06-06 15:13:41.814966,599617167338575623,119.00
2025-06-06 15:13:41.814966,599617167338575623,116.00
2025-06-06 15:13:41.814966,599617167338575623,114.00
2025-06-06 15:13:41.814966,599617167338575623,34.00
2025-06-06 15:13:41.814966,599617167338575623,-296.00
2025-06-06 15:13:41.814966,599617167338575623,-807.00
2025-06-06 15:13:41.814966,599617167338575623,-1070.00
2025-06-06 15:13:41.814966,599617167338575623,-854.00
2025-06-06 15:13:41.814966,599617167338575623,-274.00
2025-06-06 15:13:42.386548,599617167899333700,345.00
2025-06-06 15:13:42.386548,599617167899333700,452.00
2025-06-06 15:13:42.386548,599617167899333700,99.00
2025-06-06 15:13:42.386548,599617167899333700,-9.00
2025-06-06 15:13:42.386548,599617167899333700,116.00
2025-06-06 15:13:42.386548,599617167899333700,82.00
2025-06-06 15:13:42.386548,599617167899333700,12.00
2025-06-06 15:13:42.386548,599617167899333700,24.00
2025-06-06 15:13:42.386548,599617167899333700,14.00
2025-06-06 15:13:42.386548,599617167899333700,-24.00
2025-06-06 15:13:42.386548,599617167899333700,-48.00
2025-06-06 15:13:42.386548,599617167899333700,-70.00
2025-06-06 15:13:42.386548,599617167899333700,-104.00
2025-06-06 15:13:42.386548,599617167899333700,-136.00
2025-06-06 15:13:42.386548,599617167899333700,-160.00
2025-06-06 15:13:42.386548,599617167899333700,-187.00
2025-06-06 15:13:42.386548,599617167899333700,-218.00
2025-06-06 15:13:42.386548,599617167899333700,-248.00
2025-06-06 15:13:42.386548,599617167899333700,-274.00
2025-06-06 15:13:42.386548,599617167899333700,-304.00
2025-06-06 15:13:42.386548,599617167899333700,-323.00
2025-06-06 15:13:42.386548,599617167899333700,-338.00
2025-06-06 15:13:42.386548,599617167899333700,-347.00
2025-06-06 15:13:42.386548,599617167899333700,-350.00
2025-06-06 15:13:42.386548,599617167899333700,-350.00
2025-06-06 15:13:42.386548,599617167899333700,-347.00
2025-06-06 15:13:42.386548,599617167899333700,-316.00
2025-06-06 15:13:42.386548,599617167899333700,-257.00
2025-06-06 15:13:42.386548,599617167899333700,-189.00
2025-06-06 15:13:42.386548,599617167899333700,-99.00
2025-06-06 15:13:42.386548,599617167899333700,2.00
2025-06-06 15:13:42.386548,599617167899333700,87.00
2025-06-06 15:13:42.386548,599617167899333700,145.00
2025-06-06 15:13:42.386548,599617167899333700,194.00
2025-06-06 15:13:42.386548,599617167899333700,221.00
2025-06-06 15:13:42.386548,599617167899333700,231.00
2025-06-06 15:13:42.386548,599617167899333700,243.00
2025-06-06 15:13:42.386548,599617167899333700,238.00
2025-06-06 15:13:42.386548,599617167899333700,218.00
2025-06-06 15:13:42.386548,599617167899333700,211.00
2025-06-06 15:13:42.386548,599617167899333700,201.00
2025-06-06 15:13:42.386548,599617167899333700,182.00
2025-06-06 15:13:42.386548,599617167899333700,172.00
2025-06-06 15:13:42.386548,599617167899333700,170.00
2025-06-06 15:13:42.386548,599617167899333700,163.00
2025-06-06 15:13:42.386548,599617167899333700,150.00
2025-06-06 15:13:42.386548,599617167899333700,141.00
2025-06-06 15:13:42.386548,599617167899333700,131.00
2025-06-06 15:13:42.386548,599617167899333700,128.00
2025-06-06 15:13:42.386548,599617167899333700,121.00
2025-06-06 15:13:42.386548,599617167899333700,111.00
2025-06-06 15:13:42.386548,599617167899333700,102.00
2025-06-06 15:13:42.386548,599617167899333700,90.00
2025-06-06 15:13:42.386548,599617167899333700,99.00
2025-06-06 15:13:42.386548,599617167899333700,107.00
2025-06-06 15:13:42.386548,599617167899333700,82.00
2025-06-06 15:13:42.386548,599617167899333700,77.00
2025-06-06 15:13:42.386548,599617167899333700,111.00
2025-06-06 15:13:42.386548,599617167899333700,138.00
2025-06-06 15:13:42.386548,599617167899333700,148.00
2025-06-06 15:13:42.386548,599617167899333700,145.00
2025-06-06 15:13:42.386548,599617167899333700,133.00
2025-06-06 15:13:42.386548,599617167899333700,138.00
2025-06-06 15:13:42.386548,599617167899333700,150.00
2025-06-06 15:13:42.386548,599617167899333700,145.00
2025-06-06 15:13:42.386548,599617167899333700,141.00
2025-06-06 15:13:42.386548,599617167899333700,141.00
2025-06-06 15:13:42.386548,599617167899333700,133.00
2025-06-06 15:13:42.386548,599617167899333700,128.00
2025-06-06 15:13:42.386548,599617167899333700,126.00
2025-06-06 15:13:42.386548,599617167899333700,104.00
2025-06-06 15:13:42.386548,599617167899333700,-48.00
2025-06-06 15:13:42.386548,599617167899333700,-418.00
2025-06-06 15:13:42.927524,599617168460091777,-698.00
2025-06-06 15:13:42.927524,599617168460091777,-515.00
2025-06-06 15:13:42.927524,599617168460091777,-51.00
2025-06-06 15:13:42.927524,599617168460091777,316.00
2025-06-06 15:13:42.927524,599617168460091777,408.00
2025-06-06 15:13:42.927524,599617168460091777,214.00
2025-06-06 15:13:42.927524,599617168460091777,21.00
2025-06-06 15:13:42.927524,599617168460091777,29.00
2025-06-06 15:13:42.927524,599617168460091777,48.00
2025-06-06 15:13:42.927524,599617168460091777,-2.00
2025-06-06 15:13:42.927524,599617168460091777,-21.00
2025-06-06 15:13:42.927524,599617168460091777,-17.00
2025-06-06 15:13:42.927524,599617168460091777,-46.00
2025-06-06 15:13:42.927524,599617168460091777,-72.00
2025-06-06 15:13:42.927524,599617168460091777,-82.00
2025-06-06 15:13:42.927524,599617168460091777,-104.00
2025-06-06 15:13:42.927524,599617168460091777,-136.00
2025-06-06 15:13:42.927524,599617168460091777,-155.00
2025-06-06 15:13:42.927524,599617168460091777,-182.00
2025-06-06 15:13:42.927524,599617168460091777,-216.00
2025-06-06 15:13:42.927524,599617168460091777,-245.00
2025-06-06 15:13:42.927524,599617168460091777,-267.00
2025-06-06 15:13:42.927524,599617168460091777,-294.00
2025-06-06 15:13:42.927524,599617168460091777,-311.00
2025-06-06 15:13:42.927524,599617168460091777,-323.00
2025-06-06 15:13:42.927524,599617168460091777,-338.00
2025-06-06 15:13:42.927524,599617168460091777,-345.00
2025-06-06 15:13:42.927524,599617168460091777,-343.00
2025-06-06 15:13:42.927524,599617168460091777,-340.00
2025-06-06 15:13:42.927524,599617168460091777,-326.00
2025-06-06 15:13:42.927524,599617168460091777,-284.00
2025-06-06 15:13:42.927524,599617168460091777,-228.00
2025-06-06 15:13:42.927524,599617168460091777,-155.00
2025-06-06 15:13:42.927524,599617168460091777,-70.00
2025-06-06 15:13:42.927524,599617168460091777,7.00
2025-06-06 15:13:42.927524,599617168460091777,65.00
2025-06-06 15:13:42.927524,599617168460091777,114.00
2025-06-06 15:13:42.927524,599617168460091777,148.00
2025-06-06 15:13:42.927524,599617168460091777,165.00
2025-06-06 15:13:42.927524,599617168460091777,167.00
2025-06-06 15:13:42.927524,599617168460091777,165.00
2025-06-06 15:13:42.927524,599617168460091777,155.00
2025-06-06 15:13:42.927524,599617168460091777,148.00
2025-06-06 15:13:42.927524,599617168460091777,141.00
2025-06-06 15:13:42.927524,599617168460091777,133.00
2025-06-06 15:13:42.927524,599617168460091777,119.00
2025-06-06 15:13:42.927524,599617168460091777,109.00
2025-06-06 15:13:42.927524,599617168460091777,104.00
2025-06-06 15:13:42.927524,599617168460091777,94.00
2025-06-06 15:13:42.927524,599617168460091777,80.00
2025-06-06 15:13:42.927524,599617168460091777,68.00
2025-06-06 15:13:42.927524,599617168460091777,68.00
2025-06-06 15:13:42.927524,599617168460091777,60.00
2025-06-06 15:13:42.927524,599617168460091777,53.00
2025-06-06 15:13:42.927524,599617168460091777,41.00
2025-06-06 15:13:42.927524,599617168460091777,38.00
2025-06-06 15:13:42.927524,599617168460091777,38.00
2025-06-06 15:13:42.927524,599617168460091777,26.00
2025-06-06 15:13:42.927524,599617168460091777,14.00
2025-06-06 15:13:42.927524,599617168460091777,36.00
2025-06-06 15:13:42.927524,599617168460091777,72.00
2025-06-06 15:13:42.927524,599617168460091777,90.00
2025-06-06 15:13:42.927524,599617168460091777,85.00
2025-06-06 15:13:42.927524,599617168460091777,85.00
2025-06-06 15:13:42.927524,599617168460091777,85.00
2025-06-06 15:13:42.927524,599617168460091777,85.00
2025-06-06 15:13:42.927524,599617168460091777,87.00
2025-06-06 15:13:42.927524,599617168460091777,85.00
2025-06-06 15:13:42.927524,599617168460091777,80.00
2025-06-06 15:13:42.927524,599617168460091777,80.00
2025-06-06 15:13:42.927524,599617168460091777,75.00
2025-06-06 15:13:42.927524,599617168460091777,70.00
2025-06-06 15:13:42.927524,599617168460091777,70.00
2025-06-06 15:13:43.466720,599617169020849854,-4.00
2025-06-06 15:13:43.466720,599617169020849854,-306.00
2025-06-06 15:13:43.466720,599617169020849854,-725.00
2025-06-06 15:13:43.466720,599617169020849854,-846.00
2025-06-06 15:13:43.466720,599617169020849854,-559.00
2025-06-06 15:13:43.466720,599617169020849854,-94.00
2025-06-06 15:13:43.466720,599617169020849854,289.00
2025-06-06 15:13:43.466720,599617169020849854,301.00
2025-06-06 15:13:43.466720,599617169020849854,29.00
2025-06-06 15:13:43.466720,599617169020849854,-60.00
2025-06-06 15:13:43.466720,599617169020849854,17.00
2025-06-06 15:13:43.466720,599617169020849854,-4.00
2025-06-06 15:13:43.466720,599617169020849854,-53.00
2025-06-06 15:13:43.466720,599617169020849854,-48.00
2025-06-06 15:13:43.466720,599617169020849854,-65.00
2025-06-06 15:13:43.466720,599617169020849854,-97.00
2025-06-06 15:13:43.466720,599617169020849854,-109.00
2025-06-06 15:13:43.466720,599617169020849854,-126.00
2025-06-06 15:13:43.466720,599617169020849854,-155.00
2025-06-06 15:13:43.466720,599617169020849854,-175.00
2025-06-06 15:13:43.466720,599617169020849854,-197.00
2025-06-06 15:13:43.466720,599617169020849854,-226.00
2025-06-06 15:13:43.466720,599617169020849854,-253.00
2025-06-06 15:13:43.466720,599617169020849854,-277.00
2025-06-06 15:13:43.466720,599617169020849854,-296.00
2025-06-06 15:13:43.466720,599617169020849854,-316.00
2025-06-06 15:13:43.466720,599617169020849854,-338.00
2025-06-06 15:13:43.466720,599617169020849854,-350.00
2025-06-06 15:13:43.466720,599617169020849854,-355.00
2025-06-06 15:13:43.466720,599617169020849854,-357.00
2025-06-06 15:13:43.466720,599617169020849854,-355.00
2025-06-06 15:13:43.466720,599617169020849854,-340.00
2025-06-06 15:13:43.466720,599617169020849854,-311.00
2025-06-06 15:13:43.466720,599617169020849854,-262.00
2025-06-06 15:13:43.466720,599617169020849854,-197.00
2025-06-06 15:13:43.466720,599617169020849854,-114.00
2025-06-06 15:13:43.466720,599617169020849854,-31.00
2025-06-06 15:13:43.466720,599617169020849854,43.00
2025-06-06 15:13:43.466720,599617169020849854,102.00
2025-06-06 15:13:43.466720,599617169020849854,138.00
2025-06-06 15:13:43.466720,599617169020849854,163.00
2025-06-06 15:13:43.466720,599617169020849854,172.00
2025-06-06 15:13:43.466720,599617169020849854,175.00
2025-06-06 15:13:43.466720,599617169020849854,172.00
2025-06-06 15:13:43.466720,599617169020849854,155.00
2025-06-06 15:13:43.466720,599617169020849854,143.00
2025-06-06 15:13:43.466720,599617169020849854,136.00
2025-06-06 15:13:43.466720,599617169020849854,124.00
2025-06-06 15:13:43.466720,599617169020849854,109.00
2025-06-06 15:13:43.466720,599617169020849854,104.00
2025-06-06 15:13:43.466720,599617169020849854,99.00
2025-06-06 15:13:43.466720,599617169020849854,87.00
2025-06-06 15:13:43.466720,599617169020849854,77.00
2025-06-06 15:13:43.466720,599617169020849854,72.00
2025-06-06 15:13:43.466720,599617169020849854,70.00
2025-06-06 15:13:43.466720,599617169020849854,65.00
2025-06-06 15:13:43.466720,599617169020849854,51.00
2025-06-06 15:13:43.466720,599617169020849854,43.00
2025-06-06 15:13:43.466720,599617169020849854,58.00
2025-06-06 15:13:43.466720,599617169020849854,53.00
2025-06-06 15:13:43.466720,599617169020849854,29.00
2025-06-06 15:13:43.466720,599617169020849854,26.00
2025-06-06 15:13:43.466720,599617169020849854,53.00
2025-06-06 15:13:43.466720,599617169020849854,85.00
2025-06-06 15:13:43.466720,599617169020849854,99.00
2025-06-06 15:13:43.466720,599617169020849854,94.00
2025-06-06 15:13:43.466720,599617169020849854,94.00
2025-06-06 15:13:43.466720,599617169020849854,94.00
2025-06-06 15:13:43.466720,599617169020849854,92.00
2025-06-06 15:13:43.466720,599617169020849854,87.00
2025-06-06 15:13:43.466720,599617169020849854,87.00
2025-06-06 15:13:43.466720,599617169020849854,90.00
2025-06-06 15:13:43.466720,599617169020849854,87.00
2025-06-06 15:13:44.036925,599617169581602843,75.00
2025-06-06 15:13:44.036925,599617169581602843,72.00
2025-06-06 15:13:44.036925,599617169581602843,63.00
2025-06-06 15:13:44.036925,599617169581602843,-92.00
2025-06-06 15:13:44.036925,599617169581602843,-489.00
2025-06-06 15:13:44.036925,599617169581602843,-873.00
2025-06-06 15:13:44.036925,599617169581602843,-902.00
2025-06-06 15:13:44.036925,599617169581602843,-554.00
2025-06-06 15:13:44.036925,599617169581602843,-24.00
2025-06-06 15:13:44.036925,599617169581602843,326.00
2025-06-06 15:13:44.036925,599617169581602843,218.00
2025-06-06 15:13:44.036925,599617169581602843,-24.00
2025-06-06 15:13:44.036925,599617169581602843,-17.00
2025-06-06 15:13:44.036925,599617169581602843,48.00
2025-06-06 15:13:44.036925,599617169581602843,-4.00
2025-06-06 15:13:44.036925,599617169581602843,-36.00
2025-06-06 15:13:44.036925,599617169581602843,-26.00
2025-06-06 15:13:44.036925,599617169581602843,-53.00
2025-06-06 15:13:44.036925,599617169581602843,-90.00
2025-06-06 15:13:44.036925,599617169581602843,-99.00
2025-06-06 15:13:44.036925,599617169581602843,-119.00
2025-06-06 15:13:44.036925,599617169581602843,-153.00
2025-06-06 15:13:44.036925,599617169581602843,-175.00
2025-06-06 15:13:44.036925,599617169581602843,-189.00
2025-06-06 15:13:44.036925,599617169581602843,-214.00
2025-06-06 15:13:44.036925,599617169581602843,-250.00
2025-06-06 15:13:44.036925,599617169581602843,-279.00
2025-06-06 15:13:44.036925,599617169581602843,-301.00
2025-06-06 15:13:44.036925,599617169581602843,-318.00
2025-06-06 15:13:44.036925,599617169581602843,-340.00
2025-06-06 15:13:44.036925,599617169581602843,-352.00
2025-06-06 15:13:44.036925,599617169581602843,-357.00
2025-06-06 15:13:44.036925,599617169581602843,-360.00
2025-06-06 15:13:44.036925,599617169581602843,-355.00
2025-06-06 15:13:44.036925,599617169581602843,-338.00
2025-06-06 15:13:44.036925,599617169581602843,-306.00
2025-06-06 15:13:44.036925,599617169581602843,-248.00
2025-06-06 15:13:44.036925,599617169581602843,-165.00
2025-06-06 15:13:44.036925,599617169581602843,-77.00
2025-06-06 15:13:44.036925,599617169581602843,2.00
2025-06-06 15:13:44.036925,599617169581602843,72.00
2025-06-06 15:13:44.036925,599617169581602843,121.00
2025-06-06 15:13:44.036925,599617169581602843,155.00
2025-06-06 15:13:44.036925,599617169581602843,175.00
2025-06-06 15:13:44.036925,599617169581602843,180.00
2025-06-06 15:13:44.036925,599617169581602843,182.00
2025-06-06 15:13:44.036925,599617169581602843,175.00
2025-06-06 15:13:44.036925,599617169581602843,163.00
2025-06-06 15:13:44.036925,599617169581602843,150.00
2025-06-06 15:13:44.036925,599617169581602843,141.00
2025-06-06 15:13:44.036925,599617169581602843,131.00
2025-06-06 15:13:44.036925,599617169581602843,121.00
2025-06-06 15:13:44.036925,599617169581602843,111.00
2025-06-06 15:13:44.036925,599617169581602843,104.00
2025-06-06 15:13:44.036925,599617169581602843,99.00
2025-06-06 15:13:44.036925,599617169581602843,97.00
2025-06-06 15:13:44.036925,599617169581602843,87.00
2025-06-06 15:13:44.036925,599617169581602843,77.00
2025-06-06 15:13:44.036925,599617169581602843,80.00
2025-06-06 15:13:44.036925,599617169581602843,80.00
2025-06-06 15:13:44.036925,599617169581602843,63.00
2025-06-06 15:13:44.036925,599617169581602843,53.00
2025-06-06 15:13:44.036925,599617169581602843,60.00
2025-06-06 15:13:44.036925,599617169581602843,65.00
2025-06-06 15:13:44.036925,599617169581602843,48.00
2025-06-06 15:13:44.036925,599617169581602843,29.00
2025-06-06 15:13:44.036925,599617169581602843,36.00
2025-06-06 15:13:44.036925,599617169581602843,65.00
2025-06-06 15:13:44.036925,599617169581602843,92.00
2025-06-06 15:13:44.036925,599617169581602843,99.00
2025-06-06 15:13:44.036925,599617169581602843,94.00
2025-06-06 15:13:44.036925,599617169581602843,90.00
2025-06-06 15:13:44.036925,599617169581602843,90.00
2025-06-06 15:13:44.576429,599617170142366008,85.00
2025-06-06 15:13:44.576429,599617170142366008,80.00
2025-06-06 15:13:44.576429,599617170142366008,80.00
2025-06-06 15:13:44.576429,599617170142366008,85.00
2025-06-06 15:13:44.576429,599617170142366008,80.00
2025-06-06 15:13:44.576429,599617170142366008,70.00
2025-06-06 15:13:44.576429,599617170142366008,68.00
2025-06-06 15:13:44.576429,599617170142366008,29.00
2025-06-06 15:13:44.576429,599617170142366008,-187.00
2025-06-06 15:13:44.576429,599617170142366008,-583.00
2025-06-06 15:13:44.576429,599617170142366008,-856.00
2025-06-06 15:13:44.576429,599617170142366008,-766.00
2025-06-06 15:13:44.576429,599617170142366008,-364.00
2025-06-06 15:13:44.576429,599617170142366008,104.00
2025-06-06 15:13:44.576429,599617170142366008,291.00
2025-06-06 15:13:44.576429,599617170142366008,114.00
2025-06-06 15:13:44.576429,599617170142366008,-46.00
2025-06-06 15:13:44.576429,599617170142366008,4.00
2025-06-06 15:13:44.576429,599617170142366008,34.00
2025-06-06 15:13:44.576429,599617170142366008,-24.00
2025-06-06 15:13:44.576429,599617170142366008,-38.00
2025-06-06 15:13:44.576429,599617170142366008,-38.00
2025-06-06 15:13:44.576429,599617170142366008,-68.00
2025-06-06 15:13:44.576429,599617170142366008,-90.00
2025-06-06 15:13:44.576429,599617170142366008,-104.00
2025-06-06 15:13:44.576429,599617170142366008,-126.00
2025-06-06 15:13:44.576429,599617170142366008,-150.00
2025-06-06 15:13:44.576429,599617170142366008,-172.00
2025-06-06 15:13:44.576429,599617170142366008,-197.00
2025-06-06 15:13:44.576429,599617170142366008,-223.00
2025-06-06 15:13:44.576429,599617170142366008,-248.00
2025-06-06 15:13:44.576429,599617170142366008,-272.00
2025-06-06 15:13:44.576429,599617170142366008,-301.00
2025-06-06 15:13:44.576429,599617170142366008,-326.00
2025-06-06 15:13:44.576429,599617170142366008,-338.00
2025-06-06 15:13:44.576429,599617170142366008,-350.00
2025-06-06 15:13:44.576429,599617170142366008,-362.00
2025-06-06 15:13:44.576429,599617170142366008,-364.00
2025-06-06 15:13:44.576429,599617170142366008,-360.00
2025-06-06 15:13:44.576429,599617170142366008,-345.00
2025-06-06 15:13:44.576429,599617170142366008,-306.00
2025-06-06 15:13:44.576429,599617170142366008,-243.00
2025-06-06 15:13:44.576429,599617170142366008,-160.00
2025-06-06 15:13:44.576429,599617170142366008,-75.00
2025-06-06 15:13:44.576429,599617170142366008,7.00
2025-06-06 15:13:44.576429,599617170142366008,77.00
2025-06-06 15:13:44.576429,599617170142366008,128.00
2025-06-06 15:13:44.576429,599617170142366008,158.00
2025-06-06 15:13:44.576429,599617170142366008,167.00
2025-06-06 15:13:44.576429,599617170142366008,170.00
2025-06-06 15:13:44.576429,599617170142366008,170.00
2025-06-06 15:13:44.576429,599617170142366008,165.00
2025-06-06 15:13:44.576429,599617170142366008,155.00
2025-06-06 15:13:44.576429,599617170142366008,143.00
2025-06-06 15:13:44.576429,599617170142366008,128.00
2025-06-06 15:13:44.576429,599617170142366008,119.00
2025-06-06 15:13:44.576429,599617170142366008,111.00
2025-06-06 15:13:44.576429,599617170142366008,109.00
2025-06-06 15:13:44.576429,599617170142366008,109.00
2025-06-06 15:13:44.576429,599617170142366008,109.00
2025-06-06 15:13:44.576429,599617170142366008,107.00
2025-06-06 15:13:44.576429,599617170142366008,102.00
2025-06-06 15:13:44.576429,599617170142366008,102.00
2025-06-06 15:13:44.576429,599617170142366008,99.00
2025-06-06 15:13:44.576429,599617170142366008,92.00
2025-06-06 15:13:44.576429,599617170142366008,85.00
2025-06-06 15:13:44.576429,599617170142366008,82.00
2025-06-06 15:13:44.576429,599617170142366008,85.00
2025-06-06 15:13:44.576429,599617170142366008,72.00
2025-06-06 15:13:44.576429,599617170142366008,58.00
2025-06-06 15:13:44.576429,599617170142366008,63.00
2025-06-06 15:13:44.576429,599617170142366008,65.00
2025-06-06 15:13:44.576429,599617170142366008,46.00
2025-06-06 15:13:45.178711,599617170703124087,21.00
2025-06-06 15:13:45.178711,599617170703124087,26.00
2025-06-06 15:13:45.178711,599617170703124087,55.00
2025-06-06 15:13:45.178711,599617170703124087,82.00
2025-06-06 15:13:45.178711,599617170703124087,82.00
2025-06-06 15:13:45.178711,599617170703124087,75.00
2025-06-06 15:13:45.178711,599617170703124087,77.00
2025-06-06 15:13:45.178711,599617170703124087,77.00
2025-06-06 15:13:45.178711,599617170703124087,72.00
2025-06-06 15:13:45.178711,599617170703124087,72.00
2025-06-06 15:13:45.178711,599617170703124087,72.00
2025-06-06 15:13:45.178711,599617170703124087,65.00
2025-06-06 15:13:45.178711,599617170703124087,63.00
2025-06-06 15:13:45.178711,599617170703124087,60.00
2025-06-06 15:13:45.178711,599617170703124087,53.00
2025-06-06 15:13:45.178711,599617170703124087,9.00
2025-06-06 15:13:45.178711,599617170703124087,-199.00
2025-06-06 15:13:45.178711,599617170703124087,-545.00
2025-06-06 15:13:45.178711,599617170703124087,-761.00
2025-06-06 15:13:45.178711,599617170703124087,-659.00
2025-06-06 15:13:45.178711,599617170703124087,-294.00
2025-06-06 15:13:45.178711,599617170703124087,87.00
2025-06-06 15:13:45.178711,599617170703124087,223.00
2025-06-06 15:13:45.178711,599617170703124087,72.00
2025-06-06 15:13:45.178711,599617170703124087,-72.00
2025-06-06 15:13:45.178711,599617170703124087,-31.00
2025-06-06 15:13:45.178711,599617170703124087,0.00
2025-06-06 15:13:45.178711,599617170703124087,-53.00
2025-06-06 15:13:45.178711,599617170703124087,-68.00
2025-06-06 15:13:45.178711,599617170703124087,-65.00
2025-06-06 15:13:45.178711,599617170703124087,-97.00
2025-06-06 15:13:45.178711,599617170703124087,-124.00
2025-06-06 15:13:45.178711,599617170703124087,-133.00
2025-06-06 15:13:45.178711,599617170703124087,-153.00
2025-06-06 15:13:45.178711,599617170703124087,-180.00
2025-06-06 15:13:45.178711,599617170703124087,-199.00
2025-06-06 15:13:45.178711,599617170703124087,-218.00
2025-06-06 15:13:45.178711,599617170703124087,-240.00
2025-06-06 15:13:45.178711,599617170703124087,-267.00
2025-06-06 15:13:45.178711,599617170703124087,-291.00
2025-06-06 15:13:45.178711,599617170703124087,-313.00
2025-06-06 15:13:45.178711,599617170703124087,-338.00
2025-06-06 15:13:45.178711,599617170703124087,-360.00
2025-06-06 15:13:45.178711,599617170703124087,-377.00
2025-06-06 15:13:45.178711,599617170703124087,-382.00
2025-06-06 15:13:45.178711,599617170703124087,-379.00
2025-06-06 15:13:45.178711,599617170703124087,-374.00
2025-06-06 15:13:45.178711,599617170703124087,-357.00
2025-06-06 15:13:45.178711,599617170703124087,-323.00
2025-06-06 15:13:45.178711,599617170703124087,-265.00
2025-06-06 15:13:45.178711,599617170703124087,-180.00
2025-06-06 15:13:45.178711,599617170703124087,-90.00
2025-06-06 15:13:45.178711,599617170703124087,-4.00
2025-06-06 15:13:45.178711,599617170703124087,68.00
2025-06-06 15:13:45.178711,599617170703124087,121.00
2025-06-06 15:13:45.178711,599617170703124087,158.00
2025-06-06 15:13:45.178711,599617170703124087,180.00
2025-06-06 15:13:45.178711,599617170703124087,187.00
2025-06-06 15:13:45.178711,599617170703124087,182.00
2025-06-06 15:13:45.178711,599617170703124087,175.00
2025-06-06 15:13:45.178711,599617170703124087,167.00
2025-06-06 15:13:45.178711,599617170703124087,158.00
2025-06-06 15:13:45.178711,599617170703124087,145.00
2025-06-06 15:13:45.178711,599617170703124087,138.00
2025-06-06 15:13:45.178711,599617170703124087,131.00
2025-06-06 15:13:45.178711,599617170703124087,119.00
2025-06-06 15:13:45.178711,599617170703124087,109.00
2025-06-06 15:13:45.178711,599617170703124087,114.00
2025-06-06 15:13:45.178711,599617170703124087,116.00
2025-06-06 15:13:45.178711,599617170703124087,111.00
2025-06-06 15:13:45.178711,599617170703124087,107.00
2025-06-06 15:13:45.178711,599617170703124087,107.00
2025-06-06 15:13:45.178711,599617170703124087,102.00
2025-06-06 15:13:45.777965,599617171263882164,102.00
2025-06-06 15:13:45.777965,599617171263882164,107.00
2025-06-06 15:13:45.777965,599617171263882164,107.00
2025-06-06 15:13:45.777965,599617171263882164,94.00
2025-06-06 15:13:45.777965,599617171263882164,87.00
2025-06-06 15:13:45.777965,599617171263882164,85.00
2025-06-06 15:13:45.777965,599617171263882164,80.00
2025-06-06 15:13:45.777965,599617171263882164,65.00
2025-06-06 15:13:45.777965,599617171263882164,46.00
2025-06-06 15:13:45.777965,599617171263882164,38.00
2025-06-06 15:13:45.777965,599617171263882164,48.00
2025-06-06 15:13:45.777965,599617171263882164,38.00
2025-06-06 15:13:45.777965,599617171263882164,12.00
2025-06-06 15:13:45.777965,599617171263882164,7.00
2025-06-06 15:13:45.777965,599617171263882164,38.00
2025-06-06 15:13:45.777965,599617171263882164,68.00
2025-06-06 15:13:45.777965,599617171263882164,70.00
2025-06-06 15:13:45.777965,599617171263882164,63.00
2025-06-06 15:13:45.777965,599617171263882164,60.00
2025-06-06 15:13:45.777965,599617171263882164,60.00
2025-06-06 15:13:45.777965,599617171263882164,60.00
2025-06-06 15:13:45.777965,599617171263882164,60.00
2025-06-06 15:13:45.777965,599617171263882164,58.00
2025-06-06 15:13:45.777965,599617171263882164,53.00
2025-06-06 15:13:45.777965,599617171263882164,48.00
2025-06-06 15:13:45.777965,599617171263882164,46.00
2025-06-06 15:13:45.777965,599617171263882164,43.00
2025-06-06 15:13:45.777965,599617171263882164,-9.00
2025-06-06 15:13:45.777965,599617171263882164,-253.00
2025-06-06 15:13:45.777965,599617171263882164,-627.00
2025-06-06 15:13:45.777965,599617171263882164,-807.00
2025-06-06 15:13:45.777965,599617171263882164,-644.00
2025-06-06 15:13:45.777965,599617171263882164,-236.00
2025-06-06 15:13:45.777965,599617171263882164,197.00
2025-06-06 15:13:45.777965,599617171263882164,306.00
2025-06-06 15:13:45.777965,599617171263882164,55.00
2025-06-06 15:13:45.777965,599617171263882164,-92.00
2025-06-06 15:13:45.777965,599617171263882164,-9.00
2025-06-06 15:13:45.777965,599617171263882164,2.00
2025-06-06 15:13:45.777965,599617171263882164,-63.00
2025-06-06 15:13:45.777965,599617171263882164,-68.00
2025-06-06 15:13:45.777965,599617171263882164,-68.00
2025-06-06 15:13:45.777965,599617171263882164,-97.00
2025-06-06 15:13:45.777965,599617171263882164,-114.00
2025-06-06 15:13:45.777965,599617171263882164,-124.00
2025-06-06 15:13:45.777965,599617171263882164,-148.00
2025-06-06 15:13:45.777965,599617171263882164,-175.00
2025-06-06 15:13:45.777965,599617171263882164,-194.00
2025-06-06 15:13:45.777965,599617171263882164,-216.00
2025-06-06 15:13:45.777965,599617171263882164,-238.00
2025-06-06 15:13:45.777965,599617171263882164,-257.00
2025-06-06 15:13:45.777965,599617171263882164,-279.00
2025-06-06 15:13:45.777965,599617171263882164,-301.00
2025-06-06 15:13:45.777965,599617171263882164,-316.00
2025-06-06 15:13:45.777965,599617171263882164,-333.00
2025-06-06 15:13:45.777965,599617171263882164,-352.00
2025-06-06 15:13:45.777965,599617171263882164,-360.00
2025-06-06 15:13:45.777965,599617171263882164,-355.00
2025-06-06 15:13:45.777965,599617171263882164,-347.00
2025-06-06 15:13:45.777965,599617171263882164,-335.00
2025-06-06 15:13:45.777965,599617171263882164,-309.00
2025-06-06 15:13:45.777965,599617171263882164,-257.00
2025-06-06 15:13:45.777965,599617171263882164,-187.00
2025-06-06 15:13:45.777965,599617171263882164,-109.00
2025-06-06 15:13:45.777965,599617171263882164,-26.00
2025-06-06 15:13:45.777965,599617171263882164,38.00
2025-06-06 15:13:45.777965,599617171263882164,80.00
2025-06-06 15:13:45.777965,599617171263882164,116.00
2025-06-06 15:13:45.777965,599617171263882164,141.00
2025-06-06 15:13:45.777965,599617171263882164,148.00
2025-06-06 15:13:45.777965,599617171263882164,143.00
2025-06-06 15:13:45.777965,599617171263882164,133.00
2025-06-06 15:13:45.777965,599617171263882164,126.00
2025-06-06 15:13:46.316345,599617171824640241,116.00
2025-06-06 15:13:46.316345,599617171824640241,109.00
2025-06-06 15:13:46.316345,599617171824640241,97.00
2025-06-06 15:13:46.316345,599617171824640241,85.00
2025-06-06 15:13:46.316345,599617171824640241,80.00
2025-06-06 15:13:46.316345,599617171824640241,82.00
2025-06-06 15:13:46.316345,599617171824640241,80.00
2025-06-06 15:13:46.316345,599617171824640241,70.00
2025-06-06 15:13:46.316345,599617171824640241,70.00
2025-06-06 15:13:46.316345,599617171824640241,80.00
2025-06-06 15:13:46.316345,599617171824640241,87.00
2025-06-06 15:13:46.316345,599617171824640241,80.00
2025-06-06 15:13:46.316345,599617171824640241,68.00
2025-06-06 15:13:46.316345,599617171824640241,68.00
2025-06-06 15:13:46.316345,599617171824640241,77.00
2025-06-06 15:13:46.316345,599617171824640241,77.00
2025-06-06 15:13:46.316345,599617171824640241,72.00
2025-06-06 15:13:46.316345,599617171824640241,68.00
2025-06-06 15:13:46.316345,599617171824640241,60.00
2025-06-06 15:13:46.316345,599617171824640241,55.00
2025-06-06 15:13:46.316345,599617171824640241,43.00
2025-06-06 15:13:46.316345,599617171824640241,26.00
2025-06-06 15:13:46.316345,599617171824640241,34.00
2025-06-06 15:13:46.316345,599617171824640241,38.00
2025-06-06 15:13:46.316345,599617171824640241,17.00
2025-06-06 15:13:46.316345,599617171824640241,24.00
2025-06-06 15:13:46.316345,599617171824640241,24.00
2025-06-06 15:13:46.316345,599617171824640241,-21.00
2025-06-06 15:13:46.316345,599617171824640241,-51.00
2025-06-06 15:13:46.316345,599617171824640241,-26.00
2025-06-06 15:13:46.316345,599617171824640241,17.00
2025-06-06 15:13:46.316345,599617171824640241,43.00
2025-06-06 15:13:46.316345,599617171824640241,38.00
2025-06-06 15:13:46.316345,599617171824640241,26.00
2025-06-06 15:13:46.316345,599617171824640241,34.00
2025-06-06 15:13:46.316345,599617171824640241,43.00
2025-06-06 15:13:46.316345,599617171824640241,17.00
2025-06-06 15:13:46.316345,599617171824640241,-19.00
2025-06-06 15:13:46.316345,599617171824640241,-9.00
2025-06-06 15:13:46.316345,599617171824640241,34.00
2025-06-06 15:13:46.316345,599617171824640241,41.00
2025-06-06 15:13:46.316345,599617171824640241,4.00
2025-06-06 15:13:46.316345,599617171824640241,-51.00
2025-06-06 15:13:46.316345,599617171824640241,-233.00
2025-06-06 15:13:46.316345,599617171824640241,-576.00
2025-06-06 15:13:46.316345,599617171824640241,-771.00
2025-06-06 15:13:46.316345,599617171824640241,-639.00
2025-06-06 15:13:46.316345,599617171824640241,-291.00
2025-06-06 15:13:46.316345,599617171824640241,107.00
2025-06-06 15:13:46.316345,599617171824640241,250.00
2025-06-06 15:13:46.316345,599617171824640241,26.00
2025-06-06 15:13:46.316345,599617171824640241,-145.00
2025-06-06 15:13:46.316345,599617171824640241,-70.00
2025-06-06 15:13:46.316345,599617171824640241,-43.00
2025-06-06 15:13:46.316345,599617171824640241,-131.00
2025-06-06 15:13:46.316345,599617171824640241,-148.00
2025-06-06 15:13:46.316345,599617171824640241,-111.00
2025-06-06 15:13:46.316345,599617171824640241,-119.00
2025-06-06 15:13:46.316345,599617171824640241,-128.00
2025-06-06 15:13:46.316345,599617171824640241,-172.00
2025-06-06 15:13:46.316345,599617171824640241,-279.00
2025-06-06 15:13:46.316345,599617171824640241,-274.00
2025-06-06 15:13:46.316345,599617171824640241,-214.00
2025-06-06 15:13:46.316345,599617171824640241,-301.00
2025-06-06 15:13:46.316345,599617171824640241,-382.00
2025-06-06 15:13:46.316345,599617171824640241,-326.00
2025-06-06 15:13:46.316345,599617171824640241,-279.00
2025-06-06 15:13:46.316345,599617171824640241,-343.00
2025-06-06 15:13:46.316345,599617171824640241,-406.00
2025-06-06 15:13:46.316345,599617171824640241,-391.00
2025-06-06 15:13:46.316345,599617171824640241,-372.00
2025-06-06 15:13:46.316345,599617171824640241,-399.00
2025-06-06 15:13:46.316345,599617171824640241,-433.00
2025-06-06 15:13:46.827826,599617172385398318,-445.00
2025-06-06 15:13:46.827826,599617172385398318,-430.00
2025-06-06 15:13:46.827826,599617172385398318,-394.00
2025-06-06 15:13:46.827826,599617172385398318,-330.00
2025-06-06 15:13:46.827826,599617172385398318,-262.00
2025-06-06 15:13:46.827826,599617172385398318,-177.00
2025-06-06 15:13:46.827826,599617172385398318,-82.00
2025-06-06 15:13:46.827826,599617172385398318,-17.00
2025-06-06 15:13:46.827826,599617172385398318,14.00
2025-06-06 15:13:46.827826,599617172385398318,31.00
2025-06-06 15:13:46.827826,599617172385398318,65.00
2025-06-06 15:13:46.827826,599617172385398318,75.00
2025-06-06 15:13:46.827826,599617172385398318,43.00
2025-06-06 15:13:46.827826,599617172385398318,68.00
2025-06-06 15:13:46.827826,599617172385398318,111.00
2025-06-06 15:13:46.827826,599617172385398318,85.00
2025-06-06 15:13:46.827826,599617172385398318,55.00
2025-06-06 15:13:46.827826,599617172385398318,65.00
2025-06-06 15:13:46.827826,599617172385398318,58.00
2025-06-06 15:13:46.827826,599617172385398318,34.00
2025-06-06 15:13:46.827826,599617172385398318,2.00
2025-06-06 15:13:46.827826,599617172385398318,-46.00
2025-06-06 15:13:46.827826,599617172385398318,-19.00
2025-06-06 15:13:46.827826,599617172385398318,68.00
2025-06-06 15:13:46.827826,599617172385398318,58.00
2025-06-06 15:13:46.827826,599617172385398318,14.00
2025-06-06 15:13:46.827826,599617172385398318,38.00
2025-06-06 15:13:46.827826,599617172385398318,53.00
2025-06-06 15:13:46.827826,599617172385398318,17.00
2025-06-06 15:13:46.827826,599617172385398318,2.00
2025-06-06 15:13:46.827826,599617172385398318,9.00
2025-06-06 15:13:46.827826,599617172385398318,-9.00
2025-06-06 15:13:46.827826,599617172385398318,21.00
2025-06-06 15:13:46.827826,599617172385398318,55.00
2025-06-06 15:13:46.827826,599617172385398318,-2.00
2025-06-06 15:13:46.827826,599617172385398318,-38.00
2025-06-06 15:13:46.827826,599617172385398318,0.00
2025-06-06 15:13:46.827826,599617172385398318,36.00
2025-06-06 15:13:46.827826,599617172385398318,14.00
2025-06-06 15:13:46.827826,599617172385398318,-43.00
2025-06-06 15:13:46.827826,599617172385398318,-43.00
2025-06-06 15:13:46.827826,599617172385398318,-9.00
2025-06-06 15:13:46.827826,599617172385398318,-43.00
2025-06-06 15:13:46.827826,599617172385398318,-72.00
2025-06-06 15:13:46.827826,599617172385398318,-43.00
2025-06-06 15:13:46.827826,599617172385398318,-53.00
2025-06-06 15:13:46.827826,599617172385398318,-92.00
2025-06-06 15:13:46.827826,599617172385398318,-85.00
2025-06-06 15:13:46.827826,599617172385398318,-46.00
2025-06-06 15:13:46.827826,599617172385398318,-51.00
2025-06-06 15:13:46.827826,599617172385398318,-60.00
2025-06-06 15:13:46.827826,599617172385398318,7.00
2025-06-06 15:13:46.827826,599617172385398318,41.00
2025-06-06 15:13:46.827826,599617172385398318,-19.00
2025-06-06 15:13:46.827826,599617172385398318,-46.00
2025-06-06 15:13:46.827826,599617172385398318,-24.00
2025-06-06 15:13:46.827826,599617172385398318,-14.00
2025-06-06 15:13:46.827826,599617172385398318,-9.00
2025-06-06 15:13:46.827826,599617172385398318,-14.00
2025-06-06 15:13:46.827826,599617172385398318,-38.00
2025-06-06 15:13:46.827826,599617172385398318,-55.00
2025-06-06 15:13:46.827826,599617172385398318,-231.00
2025-06-06 15:13:46.827826,599617172385398318,-647.00
2025-06-06 15:13:46.827826,599617172385398318,-951.00
2025-06-06 15:13:46.827826,599617172385398318,-907.00
2025-06-06 15:13:46.827826,599617172385398318,-542.00
2025-06-06 15:13:46.827826,599617172385398318,36.00
2025-06-06 15:13:46.827826,599617172385398318,313.00
2025-06-06 15:13:46.827826,599617172385398318,43.00
2025-06-06 15:13:46.827826,599617172385398318,-175.00
2025-06-06 15:13:46.827826,599617172385398318,-75.00
2025-06-06 15:13:46.827826,599617172385398318,-41.00
2025-06-06 15:13:46.827826,599617172385398318,-136.00
2025-06-06 15:13:47.395359,599617172946151307,-180.00
2025-06-06 15:13:47.395359,599617172946151307,-150.00
2025-06-06 15:13:47.395359,599617172946151307,-107.00
2025-06-06 15:13:47.395359,599617172946151307,-133.00
2025-06-06 15:13:47.395359,599617172946151307,-199.00
2025-06-06 15:13:47.395359,599617172946151307,-221.00
2025-06-06 15:13:47.395359,599617172946151307,-211.00
2025-06-06 15:13:47.395359,599617172946151307,-221.00
2025-06-06 15:13:47.395359,599617172946151307,-284.00
2025-06-06 15:13:47.395359,599617172946151307,-328.00
2025-06-06 15:13:47.395359,599617172946151307,-316.00
2025-06-06 15:13:47.395359,599617172946151307,-338.00
2025-06-06 15:13:47.395359,599617172946151307,-352.00
2025-06-06 15:13:47.395359,599617172946151307,-318.00
2025-06-06 15:13:47.395359,599617172946151307,-347.00
2025-06-06 15:13:47.395359,599617172946151307,-406.00
2025-06-06 15:13:47.395359,599617172946151307,-394.00
2025-06-06 15:13:47.395359,599617172946151307,-362.00
2025-06-06 15:13:47.395359,599617172946151307,-350.00
2025-06-06 15:13:47.395359,599617172946151307,-357.00
2025-06-06 15:13:47.395359,599617172946151307,-350.00
2025-06-06 15:13:47.395359,599617172946151307,-282.00
2025-06-06 15:13:47.395359,599617172946151307,-240.00
2025-06-06 15:13:47.395359,599617172946151307,-218.00
2025-06-06 15:13:47.395359,599617172946151307,-109.00
2025-06-06 15:13:47.395359,599617172946151307,4.00
2025-06-06 15:13:47.395359,599617172946151307,26.00
2025-06-06 15:13:47.395359,599617172946151307,41.00
2025-06-06 15:13:47.395359,599617172946151307,92.00
2025-06-06 15:13:47.395359,599617172946151307,121.00
2025-06-06 15:13:47.395359,599617172946151307,119.00
2025-06-06 15:13:47.395359,599617172946151307,111.00
2025-06-06 15:13:47.395359,599617172946151307,107.00
2025-06-06 15:13:47.395359,599617172946151307,99.00
2025-06-06 15:13:47.395359,599617172946151307,75.00
2025-06-06 15:13:47.395359,599617172946151307,43.00
2025-06-06 15:13:47.395359,599617172946151307,48.00
2025-06-06 15:13:47.395359,599617172946151307,85.00
2025-06-06 15:13:47.395359,599617172946151307,82.00
2025-06-06 15:13:47.395359,599617172946151307,55.00
2025-06-06 15:13:47.395359,599617172946151307,70.00
2025-06-06 15:13:47.395359,599617172946151307,85.00
2025-06-06 15:13:47.395359,599617172946151307,53.00
2025-06-06 15:13:47.395359,599617172946151307,41.00
2025-06-06 15:13:47.395359,599617172946151307,58.00
2025-06-06 15:13:47.395359,599617172946151307,65.00
2025-06-06 15:13:47.395359,599617172946151307,58.00
2025-06-06 15:13:47.395359,599617172946151307,43.00
2025-06-06 15:13:47.395359,599617172946151307,65.00
2025-06-06 15:13:47.395359,599617172946151307,111.00
2025-06-06 15:13:47.395359,599617172946151307,97.00
2025-06-06 15:13:47.395359,599617172946151307,60.00
2025-06-06 15:13:47.395359,599617172946151307,70.00
2025-06-06 15:13:47.395359,599617172946151307,77.00
2025-06-06 15:13:47.395359,599617172946151307,58.00
2025-06-06 15:13:47.395359,599617172946151307,58.00
2025-06-06 15:13:47.395359,599617172946151307,58.00
2025-06-06 15:13:47.395359,599617172946151307,46.00
2025-06-06 15:13:47.395359,599617172946151307,41.00
2025-06-06 15:13:47.395359,599617172946151307,46.00
2025-06-06 15:13:47.395359,599617172946151307,38.00
2025-06-06 15:13:47.395359,599617172946151307,9.00
2025-06-06 15:13:47.395359,599617172946151307,9.00
2025-06-06 15:13:47.395359,599617172946151307,41.00
2025-06-06 15:13:47.395359,599617172946151307,12.00
2025-06-06 15:13:47.395359,599617172946151307,-60.00
2025-06-06 15:13:47.395359,599617172946151307,-26.00
2025-06-06 15:13:47.395359,599617172946151307,43.00
2025-06-06 15:13:47.395359,599617172946151307,29.00
2025-06-06 15:13:47.395359,599617172946151307,26.00
2025-06-06 15:13:47.395359,599617172946151307,55.00
2025-06-06 15:13:47.395359,599617172946151307,41.00
2025-06-06 15:13:47.395359,599617172946151307,17.00
2025-06-06 15:13:47.936453,599617173506883954,31.00
2025-06-06 15:13:47.936453,599617173506883954,41.00
2025-06-06 15:13:47.936453,599617173506883954,26.00
2025-06-06 15:13:47.936453,599617173506883954,17.00
2025-06-06 15:13:47.936453,599617173506883954,17.00
2025-06-06 15:13:47.936453,599617173506883954,4.00
2025-06-06 15:13:47.936453,599617173506883954,-145.00
2025-06-06 15:13:47.936453,599617173506883954,-549.00
2025-06-06 15:13:47.936453,599617173506883954,-973.00
2025-06-06 15:13:47.936453,599617173506883954,-1058.00
2025-06-06 15:13:47.936453,599617173506883954,-717.00
2025-06-06 15:13:47.936453,599617173506883954,-65.00
2025-06-06 15:13:47.936453,599617173506883954,391.00
2025-06-06 15:13:47.936453,599617173506883954,199.00
2025-06-06 15:13:47.936453,599617173506883954,-116.00
2025-06-06 15:13:47.936453,599617173506883954,-48.00
2025-06-06 15:13:47.936453,599617173506883954,38.00
2025-06-06 15:13:47.936453,599617173506883954,-43.00
2025-06-06 15:13:47.936453,599617173506883954,-70.00
2025-06-06 15:13:47.936453,599617173506883954,-60.00
2025-06-06 15:13:47.936453,599617173506883954,-97.00
2025-06-06 15:13:47.936453,599617173506883954,-116.00
2025-06-06 15:13:47.936453,599617173506883954,-119.00
2025-06-06 15:13:47.936453,599617173506883954,-138.00
2025-06-06 15:13:47.936453,599617173506883954,-155.00
2025-06-06 15:13:47.936453,599617173506883954,-167.00
2025-06-06 15:13:47.936453,599617173506883954,-201.00
2025-06-06 15:13:47.936453,599617173506883954,-233.00
2025-06-06 15:13:47.936453,599617173506883954,-253.00
2025-06-06 15:13:47.936453,599617173506883954,-272.00
2025-06-06 15:13:47.936453,599617173506883954,-287.00
2025-06-06 15:13:47.936453,599617173506883954,-296.00
2025-06-06 15:13:47.936453,599617173506883954,-313.00
2025-06-06 15:13:47.936453,599617173506883954,-333.00
2025-06-06 15:13:47.936453,599617173506883954,-323.00
2025-06-06 15:13:47.936453,599617173506883954,-289.00
2025-06-06 15:13:47.936453,599617173506883954,-282.00
2025-06-06 15:13:47.936453,599617173506883954,-289.00
2025-06-06 15:13:47.936453,599617173506883954,-277.00
2025-06-06 15:13:47.936453,599617173506883954,-243.00
2025-06-06 15:13:47.936453,599617173506883954,-197.00
2025-06-06 15:13:47.936453,599617173506883954,-128.00
2025-06-06 15:13:47.936453,599617173506883954,-51.00
2025-06-06 15:13:47.936453,599617173506883954,7.00
2025-06-06 15:13:47.936453,599617173506883954,55.00
2025-06-06 15:13:47.936453,599617173506883954,107.00
2025-06-06 15:13:47.936453,599617173506883954,138.00
2025-06-06 15:13:47.936453,599617173506883954,145.00
2025-06-06 15:13:47.936453,599617173506883954,155.00
2025-06-06 15:13:47.936453,599617173506883954,155.00
2025-06-06 15:13:47.936453,599617173506883954,145.00
2025-06-06 15:13:47.936453,599617173506883954,141.00
2025-06-06 15:13:47.936453,599617173506883954,121.00
2025-06-06 15:13:47.936453,599617173506883954,97.00
2025-06-06 15:13:47.936453,599617173506883954,111.00
2025-06-06 15:13:47.936453,599617173506883954,128.00
2025-06-06 15:13:47.936453,599617173506883954,107.00
2025-06-06 15:13:47.936453,599617173506883954,92.00
2025-06-06 15:13:47.936453,599617173506883954,102.00
2025-06-06 15:13:47.936453,599617173506883954,104.00
2025-06-06 15:13:47.936453,599617173506883954,102.00
2025-06-06 15:13:47.936453,599617173506883954,97.00
2025-06-06 15:13:47.936453,599617173506883954,90.00
2025-06-06 15:13:47.936453,599617173506883954,92.00
2025-06-06 15:13:47.936453,599617173506883954,104.00
2025-06-06 15:13:47.936453,599617173506883954,111.00
2025-06-06 15:13:47.936453,599617173506883954,109.00
2025-06-06 15:13:47.936453,599617173506883954,109.00
2025-06-06 15:13:47.936453,599617173506883954,107.00
2025-06-06 15:13:47.936453,599617173506883954,104.00
2025-06-06 15:13:47.936453,599617173506883954,102.00
2025-06-06 15:13:47.936453,599617173506883954,97.00
2025-06-06 15:13:47.936453,599617173506883954,92.00
2025-06-06 15:13:48.535517,599617174067647119,92.00
2025-06-06 15:13:48.535517,599617174067647119,87.00
2025-06-06 15:13:48.535517,599617174067647119,80.00
2025-06-06 15:13:48.535517,599617174067647119,77.00
2025-06-06 15:13:48.535517,599617174067647119,75.00
2025-06-06 15:13:48.535517,599617174067647119,58.00
2025-06-06 15:13:48.535517,599617174067647119,41.00
2025-06-06 15:13:48.535517,599617174067647119,43.00
2025-06-06 15:13:48.535517,599617174067647119,53.00
2025-06-06 15:13:48.535517,599617174067647119,36.00
2025-06-06 15:13:48.535517,599617174067647119,4.00
2025-06-06 15:13:48.535517,599617174067647119,9.00
2025-06-06 15:13:48.535517,599617174067647119,51.00
2025-06-06 15:13:48.535517,599617174067647119,72.00
2025-06-06 15:13:48.535517,599617174067647119,68.00
2025-06-06 15:13:48.535517,599617174067647119,68.00
2025-06-06 15:13:48.535517,599617174067647119,70.00
2025-06-06 15:13:48.535517,599617174067647119,65.00
2025-06-06 15:13:48.535517,599617174067647119,63.00
2025-06-06 15:13:48.535517,599617174067647119,65.00
2025-06-06 15:13:48.535517,599617174067647119,63.00
2025-06-06 15:13:48.535517,599617174067647119,60.00
2025-06-06 15:13:48.535517,599617174067647119,55.00
2025-06-06 15:13:48.535517,599617174067647119,48.00
2025-06-06 15:13:48.535517,599617174067647119,-53.00
2025-06-06 15:13:48.535517,599617174067647119,-411.00
2025-06-06 15:13:48.535517,599617174067647119,-897.00
2025-06-06 15:13:48.535517,599617174067647119,-1133.00
2025-06-06 15:13:48.535517,599617174067647119,-939.00
2025-06-06 15:13:48.535517,599617174067647119,-309.00
2025-06-06 15:13:48.535517,599617174067647119,364.00
2025-06-06 15:13:48.535517,599617174067647119,355.00
2025-06-06 15:13:48.535517,599617174067647119,-60.00
2025-06-06 15:13:48.535517,599617174067647119,-63.00
2025-06-06 15:13:48.535517,599617174067647119,94.00
2025-06-06 15:13:48.535517,599617174067647119,12.00
2025-06-06 15:13:48.535517,599617174067647119,-46.00
2025-06-06 15:13:48.535517,599617174067647119,-7.00
2025-06-06 15:13:48.535517,599617174067647119,-34.00
2025-06-06 15:13:48.535517,599617174067647119,-80.00
2025-06-06 15:13:48.535517,599617174067647119,-87.00
2025-06-06 15:13:48.535517,599617174067647119,-107.00
2025-06-06 15:13:48.535517,599617174067647119,-136.00
2025-06-06 15:13:48.535517,599617174067647119,-153.00
2025-06-06 15:13:48.535517,599617174067647119,-175.00
2025-06-06 15:13:48.535517,599617174067647119,-204.00
2025-06-06 15:13:48.535517,599617174067647119,-228.00
2025-06-06 15:13:48.535517,599617174067647119,-245.00
2025-06-06 15:13:48.535517,599617174067647119,-265.00
2025-06-06 15:13:48.535517,599617174067647119,-284.00
2025-06-06 15:13:48.535517,599617174067647119,-294.00
2025-06-06 15:13:48.535517,599617174067647119,-301.00
2025-06-06 15:13:48.535517,599617174067647119,-304.00
2025-06-06 15:13:48.535517,599617174067647119,-301.00
2025-06-06 15:13:48.535517,599617174067647119,-296.00
2025-06-06 15:13:48.535517,599617174067647119,-287.00
2025-06-06 15:13:48.535517,599617174067647119,-274.00
2025-06-06 15:13:48.535517,599617174067647119,-248.00
2025-06-06 15:13:48.535517,599617174067647119,-204.00
2025-06-06 15:13:48.535517,599617174067647119,-141.00
2025-06-06 15:13:48.535517,599617174067647119,-68.00
2025-06-06 15:13:48.535517,599617174067647119,0.00
2025-06-06 15:13:48.535517,599617174067647119,60.00
2025-06-06 15:13:48.535517,599617174067647119,107.00
2025-06-06 15:13:48.535517,599617174067647119,141.00
2025-06-06 15:13:48.535517,599617174067647119,163.00
2025-06-06 15:13:48.535517,599617174067647119,172.00
2025-06-06 15:13:48.535517,599617174067647119,172.00
2025-06-06 15:13:48.535517,599617174067647119,165.00
2025-06-06 15:13:48.535517,599617174067647119,153.00
2025-06-06 15:13:48.535517,599617174067647119,143.00
2025-06-06 15:13:48.535517,599617174067647119,133.00
2025-06-06 15:13:48.535517,599617174067647119,124.00
2025-06-06 15:13:49.106413,599617174628410282,116.00
2025-06-06 15:13:49.106413,599617174628410282,111.00
2025-06-06 15:13:49.106413,599617174628410282,111.00
2025-06-06 15:13:49.106413,599617174628410282,111.00
2025-06-06 15:13:49.106413,599617174628410282,111.00
2025-06-06 15:13:49.106413,599617174628410282,109.00
2025-06-06 15:13:49.106413,599617174628410282,107.00
2025-06-06 15:13:49.106413,599617174628410282,107.00
2025-06-06 15:13:49.106413,599617174628410282,109.00
2025-06-06 15:13:49.106413,599617174628410282,111.00
2025-06-06 15:13:49.106413,599617174628410282,109.00
2025-06-06 15:13:49.106413,599617174628410282,107.00
2025-06-06 15:13:49.106413,599617174628410282,107.00
2025-06-06 15:13:49.106413,599617174628410282,107.00
2025-06-06 15:13:49.106413,599617174628410282,107.00
2025-06-06 15:13:49.106413,599617174628410282,104.00
2025-06-06 15:13:49.106413,599617174628410282,99.00
2025-06-06 15:13:49.106413,599617174628410282,97.00
2025-06-06 15:13:49.106413,599617174628410282,94.00
2025-06-06 15:13:49.106413,599617174628410282,87.00
2025-06-06 15:13:49.106413,599617174628410282,80.00
2025-06-06 15:13:49.106413,599617174628410282,80.00
2025-06-06 15:13:49.106413,599617174628410282,68.00
2025-06-06 15:13:49.106413,599617174628410282,48.00
2025-06-06 15:13:49.106413,599617174628410282,41.00
2025-06-06 15:13:49.106413,599617174628410282,48.00
2025-06-06 15:13:49.106413,599617174628410282,41.00
2025-06-06 15:13:49.106413,599617174628410282,7.00
2025-06-06 15:13:49.106413,599617174628410282,-4.00
2025-06-06 15:13:49.106413,599617174628410282,31.00
2025-06-06 15:13:49.106413,599617174628410282,68.00
2025-06-06 15:13:49.106413,599617174628410282,68.00
2025-06-06 15:13:49.106413,599617174628410282,58.00
2025-06-06 15:13:49.106413,599617174628410282,60.00
2025-06-06 15:13:49.106413,599617174628410282,60.00
2025-06-06 15:13:49.106413,599617174628410282,53.00
2025-06-06 15:13:49.106413,599617174628410282,53.00
2025-06-06 15:13:49.106413,599617174628410282,53.00
2025-06-06 15:13:49.106413,599617174628410282,46.00
2025-06-06 15:13:49.106413,599617174628410282,43.00
2025-06-06 15:13:49.106413,599617174628410282,46.00
2025-06-06 15:13:49.106413,599617174628410282,-4.00
2025-06-06 15:13:49.106413,599617174628410282,-296.00
2025-06-06 15:13:49.106413,599617174628410282,-822.00
2025-06-06 15:13:49.106413,599617174628410282,-1199.00
2025-06-06 15:13:49.106413,599617174628410282,-1153.00
2025-06-06 15:13:49.106413,599617174628410282,-601.00
2025-06-06 15:13:49.106413,599617174628410282,209.00
2025-06-06 15:13:49.106413,599617174628410282,450.00
2025-06-06 15:13:49.106413,599617174628410282,14.00
2025-06-06 15:13:49.106413,599617174628410282,-124.00
2025-06-06 15:13:49.106413,599617174628410282,77.00
2025-06-06 15:13:49.106413,599617174628410282,46.00
2025-06-06 15:13:49.106413,599617174628410282,-51.00
2025-06-06 15:13:49.106413,599617174628410282,-17.00
2025-06-06 15:13:49.106413,599617174628410282,-24.00
2025-06-06 15:13:49.106413,599617174628410282,-77.00
2025-06-06 15:13:49.106413,599617174628410282,-90.00
2025-06-06 15:13:49.106413,599617174628410282,-104.00
2025-06-06 15:13:49.106413,599617174628410282,-141.00
2025-06-06 15:13:49.106413,599617174628410282,-165.00
2025-06-06 15:13:49.106413,599617174628410282,-182.00
2025-06-06 15:13:49.106413,599617174628410282,-209.00
2025-06-06 15:13:49.106413,599617174628410282,-236.00
2025-06-06 15:13:49.106413,599617174628410282,-255.00
2025-06-06 15:13:49.106413,599617174628410282,-272.00
2025-06-06 15:13:49.106413,599617174628410282,-289.00
2025-06-06 15:13:49.106413,599617174628410282,-301.00
2025-06-06 15:13:49.106413,599617174628410282,-306.00
2025-06-06 15:13:49.106413,599617174628410282,-309.00
2025-06-06 15:13:49.106413,599617174628410282,-309.00
2025-06-06 15:13:49.106413,599617174628410282,-304.00
2025-06-06 15:13:49.106413,599617174628410282,-291.00
2025-06-06 15:13:49.647306,599617175189188705,-277.00
2025-06-06 15:13:49.647306,599617175189188705,-250.00
2025-06-06 15:13:49.647306,599617175189188705,-206.00
2025-06-06 15:13:49.647306,599617175189188705,-145.00
2025-06-06 15:13:49.647306,599617175189188705,-80.00
2025-06-06 15:13:49.647306,599617175189188705,-14.00
2025-06-06 15:13:49.647306,599617175189188705,46.00
2025-06-06 15:13:49.647306,599617175189188705,97.00
2025-06-06 15:13:49.647306,599617175189188705,133.00
2025-06-06 15:13:49.647306,599617175189188705,150.00
2025-06-06 15:13:49.647306,599617175189188705,163.00
2025-06-06 15:13:49.647306,599617175189188705,167.00
2025-06-06 15:13:49.647306,599617175189188705,165.00
2025-06-06 15:13:49.647306,599617175189188705,155.00
2025-06-06 15:13:49.647306,599617175189188705,141.00
2025-06-06 15:13:49.647306,599617175189188705,126.00
2025-06-06 15:13:49.647306,599617175189188705,119.00
2025-06-06 15:13:49.647306,599617175189188705,111.00
2025-06-06 15:13:49.647306,599617175189188705,104.00
2025-06-06 15:13:49.647306,599617175189188705,99.00
2025-06-06 15:13:49.647306,599617175189188705,94.00
2025-06-06 15:13:49.647306,599617175189188705,94.00
2025-06-06 15:13:49.647306,599617175189188705,97.00
2025-06-06 15:13:49.647306,599617175189188705,97.00
2025-06-06 15:13:49.647306,599617175189188705,94.00
2025-06-06 15:13:49.647306,599617175189188705,92.00
2025-06-06 15:13:49.647306,599617175189188705,97.00
2025-06-06 15:13:49.647306,599617175189188705,99.00
2025-06-06 15:13:49.647306,599617175189188705,99.00
2025-06-06 15:13:49.647306,599617175189188705,102.00
2025-06-06 15:13:49.647306,599617175189188705,102.00
2025-06-06 15:13:49.647306,599617175189188705,99.00
2025-06-06 15:13:49.647306,599617175189188705,97.00
2025-06-06 15:13:49.647306,599617175189188705,99.00
2025-06-06 15:13:49.647306,599617175189188705,92.00
2025-06-06 15:13:49.647306,599617175189188705,82.00
2025-06-06 15:13:49.647306,599617175189188705,85.00
2025-06-06 15:13:49.647306,599617175189188705,82.00
2025-06-06 15:13:49.647306,599617175189188705,68.00
2025-06-06 15:13:49.647306,599617175189188705,48.00
2025-06-06 15:13:49.647306,599617175189188705,46.00
2025-06-06 15:13:49.647306,599617175189188705,53.00
2025-06-06 15:13:49.647306,599617175189188705,38.00
2025-06-06 15:13:49.647306,599617175189188705,9.00
2025-06-06 15:13:49.647306,599617175189188705,9.00
2025-06-06 15:13:49.647306,599617175189188705,46.00
2025-06-06 15:13:49.647306,599617175189188705,70.00
2025-06-06 15:13:49.647306,599617175189188705,70.00
2025-06-06 15:13:49.647306,599617175189188705,65.00
2025-06-06 15:13:49.647306,599617175189188705,63.00
2025-06-06 15:13:49.647306,599617175189188705,60.00
2025-06-06 15:13:49.647306,599617175189188705,55.00
2025-06-06 15:13:49.647306,599617175189188705,55.00
2025-06-06 15:13:49.647306,599617175189188705,53.00
2025-06-06 15:13:49.647306,599617175189188705,48.00
2025-06-06 15:13:49.647306,599617175189188705,43.00
2025-06-06 15:13:49.647306,599617175189188705,43.00
2025-06-06 15:13:49.647306,599617175189188705,-29.00
2025-06-06 15:13:49.647306,599617175189188705,-369.00
2025-06-06 15:13:49.647306,599617175189188705,-936.00
2025-06-06 15:13:49.647306,599617175189188705,-1296.00
2025-06-06 15:13:49.647306,599617175189188705,-1197.00
2025-06-06 15:13:49.647306,599617175189188705,-615.00
2025-06-06 15:13:49.647306,599617175189188705,240.00
2025-06-06 15:13:49.647306,599617175189188705,515.00
2025-06-06 15:13:49.647306,599617175189188705,51.00
2025-06-06 15:13:49.647306,599617175189188705,-102.00
2025-06-06 15:13:49.647306,599617175189188705,107.00
2025-06-06 15:13:49.647306,599617175189188705,63.00
2025-06-06 15:13:49.647306,599617175189188705,-41.00
2025-06-06 15:13:49.647306,599617175189188705,0.00
2025-06-06 15:13:49.647306,599617175189188705,-7.00
2025-06-06 15:13:49.647306,599617175189188705,-68.00
2025-06-06 15:13:50.216574,599617175749946782,-85.00
2025-06-06 15:13:50.216574,599617175749946782,-99.00
2025-06-06 15:13:50.216574,599617175749946782,-136.00
2025-06-06 15:13:50.216574,599617175749946782,-160.00
2025-06-06 15:13:50.216574,599617175749946782,-177.00
2025-06-06 15:13:50.216574,599617175749946782,-206.00
2025-06-06 15:13:50.216574,599617175749946782,-236.00
2025-06-06 15:13:50.216574,599617175749946782,-257.00
2025-06-06 15:13:50.216574,599617175749946782,-279.00
2025-06-06 15:13:50.216574,599617175749946782,-301.00
2025-06-06 15:13:50.216574,599617175749946782,-311.00
2025-06-06 15:13:50.216574,599617175749946782,-316.00
2025-06-06 15:13:50.216574,599617175749946782,-321.00
2025-06-06 15:13:50.216574,599617175749946782,-318.00
2025-06-06 15:13:50.216574,599617175749946782,-311.00
2025-06-06 15:13:50.216574,599617175749946782,-299.00
2025-06-06 15:13:50.216574,599617175749946782,-279.00
2025-06-06 15:13:50.216574,599617175749946782,-248.00
2025-06-06 15:13:50.216574,599617175749946782,-199.00
2025-06-06 15:13:50.216574,599617175749946782,-133.00
2025-06-06 15:13:50.216574,599617175749946782,-55.00
2025-06-06 15:13:50.216574,599617175749946782,14.00
2025-06-06 15:13:50.216574,599617175749946782,75.00
2025-06-06 15:13:50.216574,599617175749946782,128.00
2025-06-06 15:13:50.216574,599617175749946782,163.00
2025-06-06 15:13:50.216574,599617175749946782,180.00
2025-06-06 15:13:50.216574,599617175749946782,192.00
2025-06-06 15:13:50.216574,599617175749946782,194.00
2025-06-06 15:13:50.216574,599617175749946782,189.00
2025-06-06 15:13:50.216574,599617175749946782,180.00
2025-06-06 15:13:50.216574,599617175749946782,167.00
2025-06-06 15:13:50.216574,599617175749946782,153.00
2025-06-06 15:13:50.216574,599617175749946782,141.00
2025-06-06 15:13:50.216574,599617175749946782,131.00
2025-06-06 15:13:50.216574,599617175749946782,124.00
2025-06-06 15:13:50.216574,599617175749946782,119.00
2025-06-06 15:13:50.216574,599617175749946782,116.00
2025-06-06 15:13:50.216574,599617175749946782,111.00
2025-06-06 15:13:50.216574,599617175749946782,109.00
2025-06-06 15:13:50.216574,599617175749946782,109.00
2025-06-06 15:13:50.216574,599617175749946782,109.00
2025-06-06 15:13:50.216574,599617175749946782,107.00
2025-06-06 15:13:50.216574,599617175749946782,111.00
2025-06-06 15:13:50.216574,599617175749946782,114.00
2025-06-06 15:13:50.216574,599617175749946782,111.00
2025-06-06 15:13:50.216574,599617175749946782,104.00
2025-06-06 15:13:50.216574,599617175749946782,102.00
2025-06-06 15:13:50.216574,599617175749946782,99.00
2025-06-06 15:13:50.216574,599617175749946782,92.00
2025-06-06 15:13:50.216574,599617175749946782,82.00
2025-06-06 15:13:50.216574,599617175749946782,70.00
2025-06-06 15:13:50.216574,599617175749946782,65.00
2025-06-06 15:13:50.216574,599617175749946782,70.00
2025-06-06 15:13:50.216574,599617175749946782,53.00
2025-06-06 15:13:50.216574,599617175749946782,21.00
2025-06-06 15:13:50.216574,599617175749946782,34.00
2025-06-06 15:13:50.216574,599617175749946782,77.00
2025-06-06 15:13:50.216574,599617175749946782,92.00
2025-06-06 15:13:50.216574,599617175749946782,82.00
2025-06-06 15:13:50.216574,599617175749946782,82.00
2025-06-06 15:13:50.216574,599617175749946782,82.00
2025-06-06 15:13:50.216574,599617175749946782,77.00
2025-06-06 15:13:50.216574,599617175749946782,77.00
2025-06-06 15:13:50.216574,599617175749946782,80.00
2025-06-06 15:13:50.216574,599617175749946782,77.00
2025-06-06 15:13:50.216574,599617175749946782,72.00
2025-06-06 15:13:50.216574,599617175749946782,70.00
2025-06-06 15:13:50.216574,599617175749946782,65.00
2025-06-06 15:13:50.216574,599617175749946782,24.00
2025-06-06 15:13:50.216574,599617175749946782,-223.00
2025-06-06 15:13:50.216574,599617175749946782,-761.00
2025-06-06 15:13:50.216574,599617175749946782,-1206.00
2025-06-06 15:13:50.216574,599617175749946782,-1197.00
2025-06-06 15:13:50.758474,599617176310699771,-739.00
2025-06-06 15:13:50.758474,599617176310699771,72.00
2025-06-06 15:13:50.758474,599617176310699771,540.00
2025-06-06 15:13:50.758474,599617176310699771,177.00
2025-06-06 15:13:50.758474,599617176310699771,-119.00
2025-06-06 15:13:50.758474,599617176310699771,55.00
2025-06-06 15:13:50.758474,599617176310699771,82.00
2025-06-06 15:13:50.758474,599617176310699771,-36.00
2025-06-06 15:13:50.758474,599617176310699771,-19.00
2025-06-06 15:13:50.758474,599617176310699771,-9.00
2025-06-06 15:13:50.758474,599617176310699771,-68.00
2025-06-06 15:13:50.758474,599617176310699771,-90.00
2025-06-06 15:13:50.758474,599617176310699771,-97.00
2025-06-06 15:13:50.758474,599617176310699771,-136.00
2025-06-06 15:13:50.758474,599617176310699771,-170.00
2025-06-06 15:13:50.758474,599617176310699771,-189.00
2025-06-06 15:13:50.758474,599617176310699771,-216.00
2025-06-06 15:13:50.758474,599617176310699771,-248.00
2025-06-06 15:13:50.758474,599617176310699771,-274.00
2025-06-06 15:13:50.758474,599617176310699771,-299.00
2025-06-06 15:13:50.758474,599617176310699771,-321.00
2025-06-06 15:13:50.758474,599617176310699771,-338.00
2025-06-06 15:13:50.758474,599617176310699771,-347.00
2025-06-06 15:13:50.758474,599617176310699771,-355.00
2025-06-06 15:13:50.758474,599617176310699771,-350.00
2025-06-06 15:13:50.758474,599617176310699771,-343.00
2025-06-06 15:13:50.758474,599617176310699771,-330.00
2025-06-06 15:13:50.758474,599617176310699771,-311.00
2025-06-06 15:13:50.758474,599617176310699771,-274.00
2025-06-06 15:13:50.758474,599617176310699771,-216.00
2025-06-06 15:13:50.758474,599617176310699771,-141.00
2025-06-06 15:13:50.758474,599617176310699771,-58.00
2025-06-06 15:13:50.758474,599617176310699771,19.00
2025-06-06 15:13:50.758474,599617176310699771,82.00
2025-06-06 15:13:50.758474,599617176310699771,131.00
2025-06-06 15:13:50.758474,599617176310699771,163.00
2025-06-06 15:13:50.758474,599617176310699771,180.00
2025-06-06 15:13:50.758474,599617176310699771,184.00
2025-06-06 15:13:50.758474,599617176310699771,189.00
2025-06-06 15:13:50.758474,599617176310699771,189.00
2025-06-06 15:13:50.758474,599617176310699771,182.00
2025-06-06 15:13:50.758474,599617176310699771,172.00
2025-06-06 15:13:50.758474,599617176310699771,160.00
2025-06-06 15:13:50.758474,599617176310699771,148.00
2025-06-06 15:13:50.758474,599617176310699771,136.00
2025-06-06 15:13:50.758474,599617176310699771,126.00
2025-06-06 15:13:50.758474,599617176310699771,119.00
2025-06-06 15:13:50.758474,599617176310699771,114.00
2025-06-06 15:13:50.758474,599617176310699771,107.00
2025-06-06 15:13:50.758474,599617176310699771,102.00
2025-06-06 15:13:50.758474,599617176310699771,104.00
2025-06-06 15:13:50.758474,599617176310699771,109.00
2025-06-06 15:13:50.758474,599617176310699771,107.00
2025-06-06 15:13:50.758474,599617176310699771,107.00
2025-06-06 15:13:50.758474,599617176310699771,107.00
2025-06-06 15:13:50.758474,599617176310699771,104.00
2025-06-06 15:13:50.758474,599617176310699771,104.00
2025-06-06 15:13:50.758474,599617176310699771,102.00
2025-06-06 15:13:50.758474,599617176310699771,97.00
2025-06-06 15:13:50.758474,599617176310699771,94.00
2025-06-06 15:13:50.758474,599617176310699771,94.00
2025-06-06 15:13:50.758474,599617176310699771,85.00
2025-06-06 15:13:50.758474,599617176310699771,70.00
2025-06-06 15:13:50.758474,599617176310699771,68.00
2025-06-06 15:13:50.758474,599617176310699771,70.00
2025-06-06 15:13:50.758474,599617176310699771,53.00
2025-06-06 15:13:50.758474,599617176310699771,24.00
2025-06-06 15:13:50.758474,599617176310699771,36.00
2025-06-06 15:13:50.758474,599617176310699771,80.00
2025-06-06 15:13:50.758474,599617176310699771,97.00
2025-06-06 15:13:50.758474,599617176310699771,90.00
2025-06-06 15:13:50.758474,599617176310699771,85.00
2025-06-06 15:13:50.758474,599617176310699771,82.00
2025-06-06 15:13:51.328255,599617176871432418,80.00
2025-06-06 15:13:51.328255,599617176871432418,80.00
2025-06-06 15:13:51.328255,599617176871432418,77.00
2025-06-06 15:13:51.328255,599617176871432418,75.00
2025-06-06 15:13:51.328255,599617176871432418,70.00
2025-06-06 15:13:51.328255,599617176871432418,65.00
2025-06-06 15:13:51.328255,599617176871432418,65.00
2025-06-06 15:13:51.328255,599617176871432418,14.00
2025-06-06 15:13:51.328255,599617176871432418,-274.00
2025-06-06 15:13:51.328255,599617176871432418,-812.00
2025-06-06 15:13:51.328255,599617176871432418,-1226.00
2025-06-06 15:13:51.328255,599617176871432418,-1223.00
2025-06-06 15:13:51.328255,599617176871432418,-703.00
2025-06-06 15:13:51.328255,599617176871432418,148.00
2025-06-06 15:13:51.328255,599617176871432418,481.00
2025-06-06 15:13:51.328255,599617176871432418,77.00
2025-06-06 15:13:51.328255,599617176871432418,-99.00
2025-06-06 15:13:51.328255,599617176871432418,94.00
2025-06-06 15:13:51.328255,599617176871432418,77.00
2025-06-06 15:13:51.328255,599617176871432418,-24.00
2025-06-06 15:13:51.328255,599617176871432418,2.00
2025-06-06 15:13:51.328255,599617176871432418,-2.00
2025-06-06 15:13:51.328255,599617176871432418,-55.00
2025-06-06 15:13:51.328255,599617176871432418,-72.00
2025-06-06 15:13:51.328255,599617176871432418,-87.00
2025-06-06 15:13:51.328255,599617176871432418,-126.00
2025-06-06 15:13:51.328255,599617176871432418,-155.00
2025-06-06 15:13:51.328255,599617176871432418,-180.00
2025-06-06 15:13:51.328255,599617176871432418,-206.00
2025-06-06 15:13:51.328255,599617176871432418,-233.00
2025-06-06 15:13:51.328255,599617176871432418,-262.00
2025-06-06 15:13:51.328255,599617176871432418,-289.00
2025-06-06 15:13:51.328255,599617176871432418,-313.00
2025-06-06 15:13:51.328255,599617176871432418,-338.00
2025-06-06 15:13:51.328255,599617176871432418,-355.00
2025-06-06 15:13:51.328255,599617176871432418,-357.00
2025-06-06 15:13:51.328255,599617176871432418,-357.00
2025-06-06 15:13:51.328255,599617176871432418,-355.00
2025-06-06 15:13:51.328255,599617176871432418,-345.00
2025-06-06 15:13:51.328255,599617176871432418,-323.00
2025-06-06 15:13:51.328255,599617176871432418,-284.00
2025-06-06 15:13:51.328255,599617176871432418,-218.00
2025-06-06 15:13:51.328255,599617176871432418,-131.00
2025-06-06 15:13:51.328255,599617176871432418,-46.00
2025-06-06 15:13:51.328255,599617176871432418,31.00
2025-06-06 15:13:51.328255,599617176871432418,99.00
2025-06-06 15:13:51.328255,599617176871432418,145.00
2025-06-06 15:13:51.328255,599617176871432418,170.00
2025-06-06 15:13:51.328255,599617176871432418,182.00
2025-06-06 15:13:51.328255,599617176871432418,189.00
2025-06-06 15:13:51.328255,599617176871432418,189.00
2025-06-06 15:13:51.328255,599617176871432418,184.00
2025-06-06 15:13:51.328255,599617176871432418,177.00
2025-06-06 15:13:51.328255,599617176871432418,163.00
2025-06-06 15:13:51.328255,599617176871432418,148.00
2025-06-06 15:13:51.328255,599617176871432418,133.00
2025-06-06 15:13:51.328255,599617176871432418,126.00
2025-06-06 15:13:51.328255,599617176871432418,119.00
2025-06-06 15:13:51.328255,599617176871432418,111.00
2025-06-06 15:13:51.328255,599617176871432418,104.00
2025-06-06 15:13:51.328255,599617176871432418,102.00
2025-06-06 15:13:51.328255,599617176871432418,97.00
2025-06-06 15:13:51.328255,599617176871432418,94.00
2025-06-06 15:13:51.328255,599617176871432418,97.00
2025-06-06 15:13:51.328255,599617176871432418,97.00
2025-06-06 15:13:51.328255,599617176871432418,97.00
2025-06-06 15:13:51.328255,599617176871432418,99.00
2025-06-06 15:13:51.328255,599617176871432418,99.00
2025-06-06 15:13:51.328255,599617176871432418,97.00
2025-06-06 15:13:51.328255,599617176871432418,92.00
2025-06-06 15:13:51.328255,599617176871432418,92.00
2025-06-06 15:13:51.328255,599617176871432418,94.00
2025-06-06 15:13:51.328255,599617176871432418,87.00
2025-06-06 15:13:51.895380,599617177432190497,70.00
2025-06-06 15:13:51.895380,599617177432190497,63.00
2025-06-06 15:13:51.895380,599617177432190497,70.00
2025-06-06 15:13:51.895380,599617177432190497,63.00
2025-06-06 15:13:51.895380,599617177432190497,29.00
2025-06-06 15:13:51.895380,599617177432190497,19.00
2025-06-06 15:13:51.895380,599617177432190497,55.00
2025-06-06 15:13:51.895380,599617177432190497,90.00
2025-06-06 15:13:51.895380,599617177432190497,90.00
2025-06-06 15:13:51.895380,599617177432190497,82.00
2025-06-06 15:13:51.895380,599617177432190497,82.00
2025-06-06 15:13:51.895380,599617177432190497,80.00
2025-06-06 15:13:51.895380,599617177432190497,77.00
2025-06-06 15:13:51.895380,599617177432190497,75.00
2025-06-06 15:13:51.895380,599617177432190497,72.00
2025-06-06 15:13:51.895380,599617177432190497,68.00
2025-06-06 15:13:51.895380,599617177432190497,63.00
2025-06-06 15:13:51.895380,599617177432190497,63.00
2025-06-06 15:13:51.895380,599617177432190497,51.00
2025-06-06 15:13:51.895380,599617177432190497,-121.00
2025-06-06 15:13:51.895380,599617177432190497,-583.00
2025-06-06 15:13:51.895380,599617177432190497,-1102.00
2025-06-06 15:13:51.895380,599617177432190497,-1318.00
2025-06-06 15:13:51.895380,599617177432190497,-1036.00
2025-06-06 15:13:51.895380,599617177432190497,-250.00
2025-06-06 15:13:51.895380,599617177432190497,403.00
2025-06-06 15:13:51.895380,599617177432190497,257.00
2025-06-06 15:13:51.895380,599617177432190497,-87.00
2025-06-06 15:13:51.895380,599617177432190497,19.00
2025-06-06 15:13:51.895380,599617177432190497,126.00
2025-06-06 15:13:51.895380,599617177432190497,17.00
2025-06-06 15:13:51.895380,599617177432190497,-7.00
2025-06-06 15:13:51.895380,599617177432190497,19.00
2025-06-06 15:13:51.895380,599617177432190497,-29.00
2025-06-06 15:13:51.895380,599617177432190497,-63.00
2025-06-06 15:13:51.895380,599617177432190497,-68.00
2025-06-06 15:13:51.895380,599617177432190497,-99.00
2025-06-06 15:13:51.895380,599617177432190497,-136.00
2025-06-06 15:13:51.895380,599617177432190497,-155.00
2025-06-06 15:13:51.895380,599617177432190497,-184.00
2025-06-06 15:13:51.895380,599617177432190497,-221.00
2025-06-06 15:13:51.895380,599617177432190497,-253.00
2025-06-06 15:13:51.895380,599617177432190497,-282.00
2025-06-06 15:13:51.895380,599617177432190497,-313.00
2025-06-06 15:13:51.895380,599617177432190497,-340.00
2025-06-06 15:13:51.895380,599617177432190497,-357.00
2025-06-06 15:13:51.895380,599617177432190497,-372.00
2025-06-06 15:13:51.895380,599617177432190497,-379.00
2025-06-06 15:13:51.895380,599617177432190497,-379.00
2025-06-06 15:13:51.895380,599617177432190497,-372.00
2025-06-06 15:13:51.895380,599617177432190497,-355.00
2025-06-06 15:13:51.895380,599617177432190497,-318.00
2025-06-06 15:13:51.895380,599617177432190497,-257.00
2025-06-06 15:13:51.895380,599617177432190497,-175.00
2025-06-06 15:13:51.895380,599617177432190497,-82.00
2025-06-06 15:13:51.895380,599617177432190497,4.00
2025-06-06 15:13:51.895380,599617177432190497,77.00
2025-06-06 15:13:51.895380,599617177432190497,133.00
2025-06-06 15:13:51.895380,599617177432190497,167.00
2025-06-06 15:13:51.895380,599617177432190497,184.00
2025-06-06 15:13:51.895380,599617177432190497,192.00
2025-06-06 15:13:51.895380,599617177432190497,194.00
2025-06-06 15:13:51.895380,599617177432190497,189.00
2025-06-06 15:13:51.895380,599617177432190497,177.00
2025-06-06 15:13:51.895380,599617177432190497,167.00
2025-06-06 15:13:51.895380,599617177432190497,158.00
2025-06-06 15:13:51.895380,599617177432190497,141.00
2025-06-06 15:13:51.895380,599617177432190497,126.00
2025-06-06 15:13:51.895380,599617177432190497,121.00
2025-06-06 15:13:51.895380,599617177432190497,116.00
2025-06-06 15:13:51.895380,599617177432190497,107.00
2025-06-06 15:13:51.895380,599617177432190497,99.00
2025-06-06 15:13:51.895380,599617177432190497,99.00
2025-06-06 15:13:52.467053,599617177992948574,99.00
2025-06-06 15:13:52.467053,599617177992948574,97.00
2025-06-06 15:13:52.467053,599617177992948574,97.00
2025-06-06 15:13:52.467053,599617177992948574,102.00
2025-06-06 15:13:52.467053,599617177992948574,102.00
2025-06-06 15:13:52.467053,599617177992948574,102.00
2025-06-06 15:13:52.467053,599617177992948574,99.00
2025-06-06 15:13:52.467053,599617177992948574,97.00
2025-06-06 15:13:52.467053,599617177992948574,97.00
2025-06-06 15:13:52.467053,599617177992948574,94.00
2025-06-06 15:13:52.467053,599617177992948574,90.00
2025-06-06 15:13:52.467053,599617177992948574,77.00
2025-06-06 15:13:52.467053,599617177992948574,70.00
2025-06-06 15:13:52.467053,599617177992948574,77.00
2025-06-06 15:13:52.467053,599617177992948574,75.00
2025-06-06 15:13:52.467053,599617177992948574,43.00
2025-06-06 15:13:52.467053,599617177992948574,24.00
2025-06-06 15:13:52.467053,599617177992948574,51.00
2025-06-06 15:13:52.467053,599617177992948574,90.00
2025-06-06 15:13:52.467053,599617177992948574,94.00
2025-06-06 15:13:52.467053,599617177992948574,87.00
2025-06-06 15:13:52.467053,599617177992948574,82.00
2025-06-06 15:13:52.467053,599617177992948574,82.00
2025-06-06 15:13:52.467053,599617177992948574,80.00
2025-06-06 15:13:52.467053,599617177992948574,77.00
2025-06-06 15:13:52.467053,599617177992948574,72.00
2025-06-06 15:13:52.467053,599617177992948574,70.00
2025-06-06 15:13:52.467053,599617177992948574,70.00
2025-06-06 15:13:52.467053,599617177992948574,65.00
2025-06-06 15:13:52.467053,599617177992948574,63.00
2025-06-06 15:13:52.467053,599617177992948574,-36.00
2025-06-06 15:13:52.467053,599617177992948574,-423.00
2025-06-06 15:13:52.467053,599617177992948574,-980.00
2025-06-06 15:13:52.467053,599617177992948574,-1311.00
2025-06-06 15:13:52.467053,599617177992948574,-1192.00
2025-06-06 15:13:52.467053,599617177992948574,-542.00
2025-06-06 15:13:52.467053,599617177992948574,265.00
2025-06-06 15:13:52.467053,599617177992948574,401.00
2025-06-06 15:13:52.467053,599617177992948574,-2.00
2025-06-06 15:13:52.467053,599617177992948574,-41.00
2025-06-06 15:13:52.467053,599617177992948574,133.00
2025-06-06 15:13:52.467053,599617177992948574,63.00
2025-06-06 15:13:52.467053,599617177992948574,-12.00
2025-06-06 15:13:52.467053,599617177992948574,24.00
2025-06-06 15:13:52.467053,599617177992948574,2.00
2025-06-06 15:13:52.467053,599617177992948574,-53.00
2025-06-06 15:13:52.467053,599617177992948574,-63.00
2025-06-06 15:13:52.467053,599617177992948574,-85.00
2025-06-06 15:13:52.467053,599617177992948574,-126.00
2025-06-06 15:13:52.467053,599617177992948574,-153.00
2025-06-06 15:13:52.467053,599617177992948574,-177.00
2025-06-06 15:13:52.467053,599617177992948574,-209.00
2025-06-06 15:13:52.467053,599617177992948574,-243.00
2025-06-06 15:13:52.467053,599617177992948574,-277.00
2025-06-06 15:13:52.467053,599617177992948574,-311.00
2025-06-06 15:13:52.467053,599617177992948574,-338.00
2025-06-06 15:13:52.467053,599617177992948574,-364.00
2025-06-06 15:13:52.467053,599617177992948574,-386.00
2025-06-06 15:13:52.467053,599617177992948574,-399.00
2025-06-06 15:13:52.467053,599617177992948574,-399.00
2025-06-06 15:13:52.467053,599617177992948574,-394.00
2025-06-06 15:13:52.467053,599617177992948574,-382.00
2025-06-06 15:13:52.467053,599617177992948574,-352.00
2025-06-06 15:13:52.467053,599617177992948574,-289.00
2025-06-06 15:13:52.467053,599617177992948574,-199.00
2025-06-06 15:13:52.467053,599617177992948574,-102.00
2025-06-06 15:13:52.467053,599617177992948574,-12.00
2025-06-06 15:13:52.467053,599617177992948574,68.00
2025-06-06 15:13:52.467053,599617177992948574,136.00
2025-06-06 15:13:52.467053,599617177992948574,180.00
2025-06-06 15:13:52.467053,599617177992948574,204.00
2025-06-06 15:13:52.467053,599617177992948574,216.00
2025-06-06 15:13:52.467053,599617177992948574,218.00
2025-06-06 15:13:53.007505,599617178553706651,216.00
2025-06-06 15:13:53.007505,599617178553706651,211.00
2025-06-06 15:13:53.007505,599617178553706651,199.00
2025-06-06 15:13:53.007505,599617178553706651,182.00
2025-06-06 15:13:53.007505,599617178553706651,165.00
2025-06-06 15:13:53.007505,599617178553706651,153.00
2025-06-06 15:13:53.007505,599617178553706651,145.00
2025-06-06 15:13:53.007505,599617178553706651,141.00
2025-06-06 15:13:53.007505,599617178553706651,133.00
2025-06-06 15:13:53.007505,599617178553706651,124.00
2025-06-06 15:13:53.007505,599617178553706651,119.00
2025-06-06 15:13:53.007505,599617178553706651,116.00
2025-06-06 15:13:53.007505,599617178553706651,119.00
2025-06-06 15:13:53.007505,599617178553706651,119.00
2025-06-06 15:13:53.007505,599617178553706651,111.00
2025-06-06 15:13:53.007505,599617178553706651,111.00
2025-06-06 15:13:53.007505,599617178553706651,114.00
2025-06-06 15:13:53.007505,599617178553706651,114.00
2025-06-06 15:13:53.007505,599617178553706651,107.00
2025-06-06 15:13:53.007505,599617178553706651,104.00
2025-06-06 15:13:53.007505,599617178553706651,107.00
2025-06-06 15:13:53.007505,599617178553706651,99.00
2025-06-06 15:13:53.007505,599617178553706651,82.00
2025-06-06 15:13:53.007505,599617178553706651,77.00
2025-06-06 15:13:53.007505,599617178553706651,87.00
2025-06-06 15:13:53.007505,599617178553706651,80.00
2025-06-06 15:13:53.007505,599617178553706651,48.00
2025-06-06 15:13:53.007505,599617178553706651,48.00
2025-06-06 15:13:53.007505,599617178553706651,85.00
2025-06-06 15:13:53.007505,599617178553706651,109.00
2025-06-06 15:13:53.007505,599617178553706651,104.00
2025-06-06 15:13:53.007505,599617178553706651,99.00
2025-06-06 15:13:53.007505,599617178553706651,99.00
2025-06-06 15:13:53.007505,599617178553706651,94.00
2025-06-06 15:13:53.007505,599617178553706651,92.00
2025-06-06 15:13:53.007505,599617178553706651,92.00
2025-06-06 15:13:53.007505,599617178553706651,87.00
2025-06-06 15:13:53.007505,599617178553706651,82.00
2025-06-06 15:13:53.007505,599617178553706651,77.00
2025-06-06 15:13:53.007505,599617178553706651,77.00
2025-06-06 15:13:53.007505,599617178553706651,65.00
2025-06-06 15:13:53.007505,599617178553706651,-94.00
2025-06-06 15:13:53.007505,599617178553706651,-557.00
2025-06-06 15:13:53.007505,599617178553706651,-1080.00
2025-06-06 15:13:53.007505,599617178553706651,-1267.00
2025-06-06 15:13:53.007505,599617178553706651,-987.00
2025-06-06 15:13:53.007505,599617178553706651,-253.00
2025-06-06 15:13:53.007505,599617178553706651,428.00
2025-06-06 15:13:53.007505,599617178553706651,340.00
2025-06-06 15:13:53.007505,599617178553706651,-46.00
2025-06-06 15:13:53.007505,599617178553706651,2.00
2025-06-06 15:13:53.007505,599617178553706651,124.00
2025-06-06 15:13:53.007505,599617178553706651,26.00
2025-06-06 15:13:53.007505,599617178553706651,-14.00
2025-06-06 15:13:53.007505,599617178553706651,12.00
2025-06-06 15:13:53.007505,599617178553706651,-24.00
2025-06-06 15:13:53.007505,599617178553706651,-63.00
2025-06-06 15:13:53.007505,599617178553706651,-75.00
2025-06-06 15:13:53.007505,599617178553706651,-107.00
2025-06-06 15:13:53.007505,599617178553706651,-143.00
2025-06-06 15:13:53.007505,599617178553706651,-167.00
2025-06-06 15:13:53.007505,599617178553706651,-199.00
2025-06-06 15:13:53.007505,599617178553706651,-236.00
2025-06-06 15:13:53.007505,599617178553706651,-270.00
2025-06-06 15:13:53.007505,599617178553706651,-301.00
2025-06-06 15:13:53.007505,599617178553706651,-335.00
2025-06-06 15:13:53.007505,599617178553706651,-364.00
2025-06-06 15:13:53.007505,599617178553706651,-389.00
2025-06-06 15:13:53.007505,599617178553706651,-403.00
2025-06-06 15:13:53.007505,599617178553706651,-411.00
2025-06-06 15:13:53.007505,599617178553706651,-413.00
2025-06-06 15:13:53.007505,599617178553706651,-403.00
2025-06-06 15:13:53.007505,599617178553706651,-382.00
2025-06-06 15:13:53.576217,599617179114464728,-340.00
2025-06-06 15:13:53.576217,599617179114464728,-270.00
2025-06-06 15:13:53.576217,599617179114464728,-175.00
2025-06-06 15:13:53.576217,599617179114464728,-77.00
2025-06-06 15:13:53.576217,599617179114464728,14.00
2025-06-06 15:13:53.576217,599617179114464728,99.00
2025-06-06 15:13:53.576217,599617179114464728,165.00
2025-06-06 15:13:53.576217,599617179114464728,199.00
2025-06-06 15:13:53.576217,599617179114464728,216.00
2025-06-06 15:13:53.576217,599617179114464728,226.00
2025-06-06 15:13:53.576217,599617179114464728,223.00
2025-06-06 15:13:53.576217,599617179114464728,218.00
2025-06-06 15:13:53.576217,599617179114464728,211.00
2025-06-06 15:13:53.576217,599617179114464728,199.00
2025-06-06 15:13:53.576217,599617179114464728,184.00
2025-06-06 15:13:53.576217,599617179114464728,167.00
2025-06-06 15:13:53.576217,599617179114464728,153.00
2025-06-06 15:13:53.576217,599617179114464728,143.00
2025-06-06 15:13:53.576217,599617179114464728,133.00
2025-06-06 15:13:53.576217,599617179114464728,121.00
2025-06-06 15:13:53.576217,599617179114464728,111.00
2025-06-06 15:13:53.576217,599617179114464728,109.00
2025-06-06 15:13:53.576217,599617179114464728,104.00
2025-06-06 15:13:53.576217,599617179114464728,99.00
2025-06-06 15:13:53.576217,599617179114464728,99.00
2025-06-06 15:13:53.576217,599617179114464728,97.00
2025-06-06 15:13:53.576217,599617179114464728,97.00
2025-06-06 15:13:53.576217,599617179114464728,102.00
2025-06-06 15:13:53.576217,599617179114464728,104.00
2025-06-06 15:13:53.576217,599617179114464728,104.00
2025-06-06 15:13:53.576217,599617179114464728,104.00
2025-06-06 15:13:53.576217,599617179114464728,102.00
2025-06-06 15:13:53.576217,599617179114464728,97.00
2025-06-06 15:13:53.576217,599617179114464728,97.00
2025-06-06 15:13:53.576217,599617179114464728,94.00
2025-06-06 15:13:53.576217,599617179114464728,87.00
2025-06-06 15:13:53.576217,599617179114464728,70.00
2025-06-06 15:13:53.576217,599617179114464728,70.00
2025-06-06 15:13:53.576217,599617179114464728,77.00
2025-06-06 15:13:53.576217,599617179114464728,55.00
2025-06-06 15:13:53.576217,599617179114464728,21.00
2025-06-06 15:13:53.576217,599617179114464728,26.00
2025-06-06 15:13:53.576217,599617179114464728,68.00
2025-06-06 15:13:53.576217,599617179114464728,90.00
2025-06-06 15:13:53.576217,599617179114464728,87.00
2025-06-06 15:13:53.576217,599617179114464728,82.00
2025-06-06 15:13:53.576217,599617179114464728,82.00
2025-06-06 15:13:53.576217,599617179114464728,80.00
2025-06-06 15:13:53.576217,599617179114464728,77.00
2025-06-06 15:13:53.576217,599617179114464728,75.00
2025-06-06 15:13:53.576217,599617179114464728,72.00
2025-06-06 15:13:53.576217,599617179114464728,68.00
2025-06-06 15:13:53.576217,599617179114464728,60.00
2025-06-06 15:13:53.576217,599617179114464728,63.00
2025-06-06 15:13:53.576217,599617179114464728,48.00
2025-06-06 15:13:53.576217,599617179114464728,-136.00
2025-06-06 15:13:53.576217,599617179114464728,-605.00
2025-06-06 15:13:53.576217,599617179114464728,-1094.00
2025-06-06 15:13:53.576217,599617179114464728,-1267.00
2025-06-06 15:13:53.576217,599617179114464728,-946.00
2025-06-06 15:13:53.576217,599617179114464728,-160.00
2025-06-06 15:13:53.576217,599617179114464728,413.00
2025-06-06 15:13:53.576217,599617179114464728,211.00
2025-06-06 15:13:53.576217,599617179114464728,-92.00
2025-06-06 15:13:53.576217,599617179114464728,26.00
2025-06-06 15:13:53.576217,599617179114464728,104.00
2025-06-06 15:13:53.576217,599617179114464728,-2.00
2025-06-06 15:13:53.576217,599617179114464728,-17.00
2025-06-06 15:13:53.576217,599617179114464728,7.00
2025-06-06 15:13:53.576217,599617179114464728,-41.00
2025-06-06 15:13:53.576217,599617179114464728,-72.00
2025-06-06 15:13:53.576217,599617179114464728,-80.00
2025-06-06 15:13:53.576217,599617179114464728,-114.00
2025-06-06 15:13:54.116072,599617179675222805,-150.00
2025-06-06 15:13:54.116072,599617179675222805,-175.00
2025-06-06 15:13:54.116072,599617179675222805,-204.00
2025-06-06 15:13:54.116072,599617179675222805,-240.00
2025-06-06 15:13:54.116072,599617179675222805,-274.00
2025-06-06 15:13:54.116072,599617179675222805,-311.00
2025-06-06 15:13:54.116072,599617179675222805,-347.00
2025-06-06 15:13:54.116072,599617179675222805,-379.00
2025-06-06 15:13:54.116072,599617179675222805,-401.00
2025-06-06 15:13:54.116072,599617179675222805,-420.00
2025-06-06 15:13:54.116072,599617179675222805,-435.00
2025-06-06 15:13:54.116072,599617179675222805,-437.00
2025-06-06 15:13:54.116072,599617179675222805,-433.00
2025-06-06 15:13:54.116072,599617179675222805,-411.00
2025-06-06 15:13:54.116072,599617179675222805,-367.00
2025-06-06 15:13:54.116072,599617179675222805,-289.00
2025-06-06 15:13:54.116072,599617179675222805,-187.00
2025-06-06 15:13:54.116072,599617179675222805,-82.00
2025-06-06 15:13:54.116072,599617179675222805,12.00
2025-06-06 15:13:54.116072,599617179675222805,90.00
2025-06-06 15:13:54.116072,599617179675222805,145.00
2025-06-06 15:13:54.116072,599617179675222805,182.00
2025-06-06 15:13:54.116072,599617179675222805,201.00
2025-06-06 15:13:54.116072,599617179675222805,209.00
2025-06-06 15:13:54.116072,599617179675222805,209.00
2025-06-06 15:13:54.116072,599617179675222805,204.00
2025-06-06 15:13:54.116072,599617179675222805,194.00
2025-06-06 15:13:54.116072,599617179675222805,182.00
2025-06-06 15:13:54.116072,599617179675222805,165.00
2025-06-06 15:13:54.116072,599617179675222805,150.00
2025-06-06 15:13:54.116072,599617179675222805,138.00
2025-06-06 15:13:54.116072,599617179675222805,126.00
2025-06-06 15:13:54.116072,599617179675222805,116.00
2025-06-06 15:13:54.116072,599617179675222805,107.00
2025-06-06 15:13:54.116072,599617179675222805,104.00
2025-06-06 15:13:54.116072,599617179675222805,107.00
2025-06-06 15:13:54.116072,599617179675222805,104.00
2025-06-06 15:13:54.116072,599617179675222805,97.00
2025-06-06 15:13:54.116072,599617179675222805,92.00
2025-06-06 15:13:54.116072,599617179675222805,92.00
2025-06-06 15:13:54.116072,599617179675222805,94.00
2025-06-06 15:13:54.116072,599617179675222805,94.00
2025-06-06 15:13:54.116072,599617179675222805,97.00
2025-06-06 15:13:54.116072,599617179675222805,97.00
2025-06-06 15:13:54.116072,599617179675222805,99.00
2025-06-06 15:13:54.116072,599617179675222805,99.00
2025-06-06 15:13:54.116072,599617179675222805,99.00
2025-06-06 15:13:54.116072,599617179675222805,102.00
2025-06-06 15:13:54.116072,599617179675222805,99.00
2025-06-06 15:13:54.116072,599617179675222805,94.00
2025-06-06 15:13:54.116072,599617179675222805,90.00
2025-06-06 15:13:54.116072,599617179675222805,82.00
2025-06-06 15:13:54.116072,599617179675222805,80.00
2025-06-06 15:13:54.116072,599617179675222805,77.00
2025-06-06 15:13:54.116072,599617179675222805,63.00
2025-06-06 15:13:54.116072,599617179675222805,48.00
2025-06-06 15:13:54.116072,599617179675222805,53.00
2025-06-06 15:13:54.116072,599617179675222805,58.00
2025-06-06 15:13:54.116072,599617179675222805,31.00
2025-06-06 15:13:54.116072,599617179675222805,2.00
2025-06-06 15:13:54.116072,599617179675222805,19.00
2025-06-06 15:13:54.116072,599617179675222805,58.00
2025-06-06 15:13:54.116072,599617179675222805,72.00
2025-06-06 15:13:54.116072,599617179675222805,68.00
2025-06-06 15:13:54.116072,599617179675222805,63.00
2025-06-06 15:13:54.116072,599617179675222805,60.00
2025-06-06 15:13:54.116072,599617179675222805,58.00
2025-06-06 15:13:54.116072,599617179675222805,53.00
2025-06-06 15:13:54.116072,599617179675222805,53.00
2025-06-06 15:13:54.116072,599617179675222805,51.00
2025-06-06 15:13:54.116072,599617179675222805,46.00
2025-06-06 15:13:54.116072,599617179675222805,46.00
2025-06-06 15:13:54.116072,599617179675222805,48.00
2025-06-06 15:13:54.686777,599617180235980882,19.00
2025-06-06 15:13:54.686777,599617180235980882,-218.00
2025-06-06 15:13:54.686777,599617180235980882,-708.00
2025-06-06 15:13:54.686777,599617180235980882,-1141.00
2025-06-06 15:13:54.686777,599617180235980882,-1231.00
2025-06-06 15:13:54.686777,599617180235980882,-822.00
2025-06-06 15:13:54.686777,599617180235980882,-34.00
2025-06-06 15:13:54.686777,599617180235980882,391.00
2025-06-06 15:13:54.686777,599617180235980882,111.00
2025-06-06 15:13:54.686777,599617180235980882,-104.00
2025-06-06 15:13:54.686777,599617180235980882,51.00
2025-06-06 15:13:54.686777,599617180235980882,77.00
2025-06-06 15:13:54.686777,599617180235980882,-24.00
2025-06-06 15:13:54.686777,599617180235980882,-19.00
2025-06-06 15:13:54.686777,599617180235980882,-9.00
2025-06-06 15:13:54.686777,599617180235980882,-58.00
2025-06-06 15:13:54.686777,599617180235980882,-85.00
2025-06-06 15:13:54.686777,599617180235980882,-94.00
2025-06-06 15:13:54.686777,599617180235980882,-126.00
2025-06-06 15:13:54.686777,599617180235980882,-158.00
2025-06-06 15:13:54.686777,599617180235980882,-184.00
2025-06-06 15:13:54.686777,599617180235980882,-216.00
2025-06-06 15:13:54.686777,599617180235980882,-250.00
2025-06-06 15:13:54.686777,599617180235980882,-284.00
2025-06-06 15:13:54.686777,599617180235980882,-321.00
2025-06-06 15:13:54.686777,599617180235980882,-357.00
2025-06-06 15:13:54.686777,599617180235980882,-389.00
2025-06-06 15:13:54.686777,599617180235980882,-416.00
2025-06-06 15:13:54.686777,599617180235980882,-437.00
2025-06-06 15:13:54.686777,599617180235980882,-445.00
2025-06-06 15:13:54.686777,599617180235980882,-450.00
2025-06-06 15:13:54.686777,599617180235980882,-445.00
2025-06-06 15:13:54.686777,599617180235980882,-423.00
2025-06-06 15:13:54.686777,599617180235980882,-374.00
2025-06-06 15:13:54.686777,599617180235980882,-294.00
2025-06-06 15:13:54.686777,599617180235980882,-192.00
2025-06-06 15:13:54.686777,599617180235980882,-90.00
2025-06-06 15:13:54.686777,599617180235980882,7.00
2025-06-06 15:13:54.686777,599617180235980882,87.00
2025-06-06 15:13:54.686777,599617180235980882,145.00
2025-06-06 15:13:54.686777,599617180235980882,182.00
2025-06-06 15:13:54.686777,599617180235980882,201.00
2025-06-06 15:13:54.686777,599617180235980882,206.00
2025-06-06 15:13:54.686777,599617180235980882,206.00
2025-06-06 15:13:54.686777,599617180235980882,201.00
2025-06-06 15:13:54.686777,599617180235980882,192.00
2025-06-06 15:13:54.686777,599617180235980882,180.00
2025-06-06 15:13:54.686777,599617180235980882,165.00
2025-06-06 15:13:54.686777,599617180235980882,153.00
2025-06-06 15:13:54.686777,599617180235980882,141.00
2025-06-06 15:13:54.686777,599617180235980882,131.00
2025-06-06 15:13:54.686777,599617180235980882,121.00
2025-06-06 15:13:54.686777,599617180235980882,116.00
2025-06-06 15:13:54.686777,599617180235980882,109.00
2025-06-06 15:13:54.686777,599617180235980882,104.00
2025-06-06 15:13:54.686777,599617180235980882,102.00
2025-06-06 15:13:54.686777,599617180235980882,104.00
2025-06-06 15:13:54.686777,599617180235980882,102.00
2025-06-06 15:13:54.686777,599617180235980882,99.00
2025-06-06 15:13:54.686777,599617180235980882,104.00
2025-06-06 15:13:54.686777,599617180235980882,104.00
2025-06-06 15:13:54.686777,599617180235980882,102.00
2025-06-06 15:13:54.686777,599617180235980882,104.00
2025-06-06 15:13:54.686777,599617180235980882,104.00
2025-06-06 15:13:54.686777,599617180235980882,104.00
2025-06-06 15:13:54.686777,599617180235980882,104.00
2025-06-06 15:13:54.686777,599617180235980882,104.00
2025-06-06 15:13:54.686777,599617180235980882,104.00
2025-06-06 15:13:54.686777,599617180235980882,102.00
2025-06-06 15:13:54.686777,599617180235980882,97.00
2025-06-06 15:13:54.686777,599617180235980882,94.00
2025-06-06 15:13:54.686777,599617180235980882,90.00
2025-06-06 15:13:54.686777,599617180235980882,87.00
2025-06-06 15:13:55.285356,599617180796738961,85.00
2025-06-06 15:13:55.285356,599617180796738961,80.00
2025-06-06 15:13:55.285356,599617180796738961,72.00
2025-06-06 15:13:55.285356,599617180796738961,68.00
2025-06-06 15:13:55.285356,599617180796738961,65.00
2025-06-06 15:13:55.285356,599617180796738961,58.00
2025-06-06 15:13:55.285356,599617180796738961,43.00
2025-06-06 15:13:55.285356,599617180796738961,31.00
2025-06-06 15:13:55.285356,599617180796738961,34.00
2025-06-06 15:13:55.285356,599617180796738961,29.00
2025-06-06 15:13:55.285356,599617180796738961,0.00
2025-06-06 15:13:55.285356,599617180796738961,-14.00
2025-06-06 15:13:55.285356,599617180796738961,19.00
2025-06-06 15:13:55.285356,599617180796738961,53.00
2025-06-06 15:13:55.285356,599617180796738961,53.00
2025-06-06 15:13:55.285356,599617180796738961,43.00
2025-06-06 15:13:55.285356,599617180796738961,41.00
2025-06-06 15:13:55.285356,599617180796738961,36.00
2025-06-06 15:13:55.285356,599617180796738961,36.00
2025-06-06 15:13:55.285356,599617180796738961,43.00
2025-06-06 15:13:55.285356,599617180796738961,41.00
2025-06-06 15:13:55.285356,599617180796738961,17.00
2025-06-06 15:13:55.285356,599617180796738961,7.00
2025-06-06 15:13:55.285356,599617180796738961,29.00
2025-06-06 15:13:55.285356,599617180796738961,41.00
2025-06-06 15:13:55.285356,599617180796738961,-92.00
2025-06-06 15:13:55.285356,599617180796738961,-496.00
2025-06-06 15:13:55.285356,599617180796738961,-995.00
2025-06-06 15:13:55.285356,599617180796738961,-1262.00
2025-06-06 15:13:55.285356,599617180796738961,-1082.00
2025-06-06 15:13:55.285356,599617180796738961,-391.00
2025-06-06 15:13:55.285356,599617180796738961,301.00
2025-06-06 15:13:55.285356,599617180796738961,287.00
