Timestamp,Device Timestamp (ns),ECG Value (uV)
2025-12-25 16:26:45.082789,599618127500454061,-52.00
2025-12-25 16:26:45.082789,599618127500454061,-59.00
2025-12-25 16:26:45.082789,599618127500454061,-75.00
2025-12-25 16:26:45.082789,599618127500454061,-91.00
2025-12-25 16:26:45.082789,599618127500454061,-96.00
2025-12-25 16:26:45.082789,599618127500454061,-98.00
2025-12-25 16:26:45.082789,599618127500454061,-98.00
2025-12-25 16:26:45.082789,599618127500454061,-89.00
2025-12-25 16:26:45.082789,599618127500454061,-75.00
2025-12-25 16:26:45.082789,599618127500454061,-68.00
2025-12-25 16:26:45.082789,599618127500454061,-66.00
2025-12-25 16:26:45.082789,599618127500454061,-64.00
2025-12-25 16:26:45.082789,599618127500454061,-62.00
2025-12-25 16:26:45.082789,599618127500454061,-62.00
2025-12-25 16:26:45.082789,599618127500454061,-59.00
2025-12-25 16:26:45.082789,599618127500454061,-64.00
2025-12-25 16:26:45.082789,599618127500454061,-66.00
2025-12-25 16:26:45.082789,599618127500454061,-59.00
2025-12-25 16:26:45.082789,599618127500454061,-62.00
2025-12-25 16:26:45.082789,599618127500454061,-71.00
2025-12-25 16:26:45.082789,599618127500454061,-68.00
2025-12-25 16:26:45.082789,599618127500454061,-62.00
2025-12-25 16:26:45.082789,599618127500454061,-64.00
2025-12-25 16:26:45.082789,599618127500454061,-66.00
2025-12-25 16:26:45.082789,599618127500454061,-64.00
2025-12-25 16:26:45.082789,599618127500454061,-59.00
2025-12-25 16:26:45.082789,599618127500454061,-55.00
2025-12-25 16:26:45.082789,599618127500454061,-55.00
2025-12-25 16:26:45.082789,599618127500454061,-43.00
2025-12-25 16:26:45.082789,599618127500454061,-27.00
2025-12-25 16:26:45.082789,599618127500454061,-34.00
2025-12-25 16:26:45.082789,599618127500454061,-45.00
2025-12-25 16:26:45.082789,599618127500454061,-50.00
2025-12-25 16:26:45.082789,599618127500454061,-52.00
2025-12-25 16:26:45.082789,599618127500454061,-55.00
2025-12-25 16:26:45.082789,599618127500454061,-52.00
2025-12-25 16:26:45.082789,599618127500454061,-59.00
2025-12-25 16:26:45.082789,599618127500454061,-59.00
2025-12-25 16:26:45.082789,599618127500454061,-52.00
2025-12-25 16:26:45.082789,599618127500454061,-55.00
2025-12-25 16:26:45.082789,599618127500454061,-57.00
2025-12-25 16:26:45.082789,599618127500454061,-55.00
2025-12-25 16:26:45.082789,599618127500454061,-55.00
2025-12-25 16:26:45.082789,599618127500454061,-55.00
2025-12-25 16:26:45.082789,599618127500454061,-52.00
2025-12-25 16:26:45.082789,599618127500454061,-4.00
2025-12-25 16:26:45.082789,599618127500454061,156.00
2025-12-25 16:26:45.082789,599618127500454061,294.00
2025-12-25 16:26:45.082789,599618127500454061,101.00
2025-12-25 16:26:45.082789,599618127500454061,-268.00
2025-12-25 16:26:45.082789,599618127500454061,-344.00
2025-12-25 16:26:45.082789,599618127500454061,-220.00
2025-12-25 16:26:45.082789,599618127500454061,-179.00
2025-12-25 16:26:45.082789,599618127500454061,-131.00
2025-12-25 16:26:45.082789,599618127500454061,-48.00
2025-12-25 16:26:45.082789,599618127500454061,-39.00
2025-12-25 16:26:45.082789,599618127500454061,-57.00
2025-12-25 16:26:45.082789,599618127500454061,-41.00
2025-12-25 16:26:45.082789,599618127500454061,-29.00
2025-12-25 16:26:45.082789,599618127500454061,-34.00
2025-12-25 16:26:45.082789,599618127500454061,-32.00
2025-12-25 16:26:45.082789,599618127500454061,-29.00
2025-12-25 16:26:45.082789,599618127500454061,-29.00
2025-12-25 16:26:45.082789,599618127500454061,-25.00
2025-12-25 16:26:45.082789,599618127500454061,-25.00
2025-12-25 16:26:45.082789,599618127500454061,-25.00
2025-12-25 16:26:45.082789,599618127500454061,-16.00
2025-12-25 16:26:45.082789,599618127500454061,-11.00
2025-12-25 16:26:45.082789,599618127500454061,-13.00
2025-12-25 16:26:45.082789,599618127500454061,-16.00
2025-12-25 16:26:45.082789,599618127500454061,-13.00
2025-12-25 16:26:45.082789,599618127500454061,-2.00
2025-12-25 16:26:45.082789,599618127500454061,0.00
2025-12-25 16:26:45.482943,599618128061400332,-9.00
2025-12-25 16:26:45.482943,599618128061400332,-6.00
2025-12-25 16:26:45.482943,599618128061400332,2.00
2025-12-25 16:26:45.482943,599618128061400332,2.00
2025-12-25 16:26:45.482943,599618128061400332,-4.00
2025-12-25 16:26:45.482943,599618128061400332,-2.00
2025-12-25 16:26:45.482943,599618128061400332,-4.00
2025-12-25 16:26:45.482943,599618128061400332,-20.00
2025-12-25 16:26:45.482943,599618128061400332,-34.00
2025-12-25 16:26:45.482943,599618128061400332,-43.00
2025-12-25 16:26:45.482943,599618128061400332,-50.00
2025-12-25 16:26:45.482943,599618128061400332,-45.00
2025-12-25 16:26:45.482943,599618128061400332,-43.00
2025-12-25 16:26:45.482943,599618128061400332,-43.00
2025-12-25 16:26:45.482943,599618128061400332,-43.00
2025-12-25 16:26:45.482943,599618128061400332,-48.00
2025-12-25 16:26:45.482943,599618128061400332,-41.00
2025-12-25 16:26:45.482943,599618128061400332,-27.00
2025-12-25 16:26:45.482943,599618128061400332,-25.00
2025-12-25 16:26:45.482943,599618128061400332,-32.00
2025-12-25 16:26:45.482943,599618128061400332,-32.00
2025-12-25 16:26:45.482943,599618128061400332,-36.00
2025-12-25 16:26:45.482943,599618128061400332,-41.00
2025-12-25 16:26:45.482943,599618128061400332,-34.00
2025-12-25 16:26:45.482943,599618128061400332,-36.00
2025-12-25 16:26:45.482943,599618128061400332,-48.00
2025-12-25 16:26:45.482943,599618128061400332,-50.00
2025-12-25 16:26:45.482943,599618128061400332,-48.00
2025-12-25 16:26:45.482943,599618128061400332,-43.00
2025-12-25 16:26:45.482943,599618128061400332,-36.00
2025-12-25 16:26:45.482943,599618128061400332,-34.00
2025-12-25 16:26:45.482943,599618128061400332,-41.00
2025-12-25 16:26:45.482943,599618128061400332,-48.00
2025-12-25 16:26:45.482943,599618128061400332,-50.00
2025-12-25 16:26:45.482943,599618128061400332,-43.00
2025-12-25 16:26:45.482943,599618128061400332,-36.00
2025-12-25 16:26:45.482943,599618128061400332,-39.00
2025-12-25 16:26:45.482943,599618128061400332,-32.00
2025-12-25 16:26:45.482943,599618128061400332,-20.00
2025-12-25 16:26:45.482943,599618128061400332,-22.00
2025-12-25 16:26:45.482943,599618128061400332,-41.00
2025-12-25 16:26:45.482943,599618128061400332,-43.00
2025-12-25 16:26:45.482943,599618128061400332,-43.00
2025-12-25 16:26:45.482943,599618128061400332,-50.00
2025-12-25 16:26:45.482943,599618128061400332,-57.00
2025-12-25 16:26:45.482943,599618128061400332,-57.00
2025-12-25 16:26:45.482943,599618128061400332,-50.00
2025-12-25 16:26:45.482943,599618128061400332,-45.00
2025-12-25 16:26:45.482943,599618128061400332,-48.00
2025-12-25 16:26:45.482943,599618128061400332,-52.00
2025-12-25 16:26:45.482943,599618128061400332,-57.00
2025-12-25 16:26:45.482943,599618128061400332,-57.00
2025-12-25 16:26:45.482943,599618128061400332,-55.00
2025-12-25 16:26:45.482943,599618128061400332,-57.00
2025-12-25 16:26:45.482943,599618128061400332,-27.00
2025-12-25 16:26:45.482943,599618128061400332,112.00
2025-12-25 16:26:45.482943,599618128061400332,278.00
2025-12-25 16:26:45.482943,599618128061400332,154.00
2025-12-25 16:26:45.482943,599618128061400332,-216.00
2025-12-25 16:26:45.482943,599618128061400332,-356.00
2025-12-25 16:26:45.482943,599618128061400332,-241.00
2025-12-25 16:26:45.482943,599618128061400332,-188.00
2025-12-25 16:26:45.482943,599618128061400332,-154.00
2025-12-25 16:26:45.482943,599618128061400332,-66.00
2025-12-25 16:26:45.482943,599618128061400332,-34.00
2025-12-25 16:26:45.482943,599618128061400332,-50.00
2025-12-25 16:26:45.482943,599618128061400332,-39.00
2025-12-25 16:26:45.482943,599618128061400332,-27.00
2025-12-25 16:26:45.482943,599618128061400332,-36.00
2025-12-25 16:26:45.482943,599618128061400332,-32.00
2025-12-25 16:26:45.482943,599618128061400332,-20.00
2025-12-25 16:26:45.482943,599618128061400332,-22.00
2025-12-25 16:26:45.482943,599618128061400332,-18.00
2025-12-25 16:26:46.119738,599618128622346607,-18.00
2025-12-25 16:26:46.119738,599618128622346607,-25.00
2025-12-25 16:26:46.119738,599618128622346607,-20.00
2025-12-25 16:26:46.119738,599618128622346607,-9.00
2025-12-25 16:26:46.119738,599618128622346607,-9.00
2025-12-25 16:26:46.119738,599618128622346607,-9.00
2025-12-25 16:26:46.119738,599618128622346607,2.00
2025-12-25 16:26:46.119738,599618128622346607,11.00
2025-12-25 16:26:46.119738,599618128622346607,18.00
2025-12-25 16:26:46.119738,599618128622346607,32.00
2025-12-25 16:26:46.119738,599618128622346607,27.00
2025-12-25 16:26:46.119738,599618128622346607,13.00
2025-12-25 16:26:46.119738,599618128622346607,11.00
2025-12-25 16:26:46.119738,599618128622346607,16.00
2025-12-25 16:26:46.119738,599618128622346607,22.00
2025-12-25 16:26:46.119738,599618128622346607,27.00
2025-12-25 16:26:46.119738,599618128622346607,16.00
2025-12-25 16:26:46.119738,599618128622346607,-6.00
2025-12-25 16:26:46.119738,599618128622346607,-25.00
2025-12-25 16:26:46.119738,599618128622346607,-32.00
2025-12-25 16:26:46.119738,599618128622346607,-34.00
2025-12-25 16:26:46.119738,599618128622346607,-43.00
2025-12-25 16:26:46.119738,599618128622346607,-59.00
2025-12-25 16:26:46.119738,599618128622346607,-64.00
2025-12-25 16:26:46.119738,599618128622346607,-59.00
2025-12-25 16:26:46.119738,599618128622346607,-52.00
2025-12-25 16:26:46.119738,599618128622346607,-43.00
2025-12-25 16:26:46.119738,599618128622346607,-43.00
2025-12-25 16:26:46.119738,599618128622346607,-57.00
2025-12-25 16:26:46.119738,599618128622346607,-59.00
2025-12-25 16:26:46.119738,599618128622346607,-50.00
2025-12-25 16:26:46.119738,599618128622346607,-50.00
2025-12-25 16:26:46.119738,599618128622346607,-50.00
2025-12-25 16:26:46.119738,599618128622346607,-41.00
2025-12-25 16:26:46.119738,599618128622346607,-39.00
2025-12-25 16:26:46.119738,599618128622346607,-48.00
2025-12-25 16:26:46.119738,599618128622346607,-52.00
2025-12-25 16:26:46.119738,599618128622346607,-48.00
2025-12-25 16:26:46.119738,599618128622346607,-39.00
2025-12-25 16:26:46.119738,599618128622346607,-39.00
2025-12-25 16:26:46.119738,599618128622346607,-45.00
2025-12-25 16:26:46.119738,599618128622346607,-52.00
2025-12-25 16:26:46.119738,599618128622346607,-57.00
2025-12-25 16:26:46.119738,599618128622346607,-57.00
2025-12-25 16:26:46.119738,599618128622346607,-57.00
2025-12-25 16:26:46.119738,599618128622346607,-52.00
2025-12-25 16:26:46.119738,599618128622346607,-45.00
2025-12-25 16:26:46.119738,599618128622346607,-36.00
2025-12-25 16:26:46.119738,599618128622346607,-27.00
2025-12-25 16:26:46.119738,599618128622346607,-29.00
2025-12-25 16:26:46.119738,599618128622346607,-43.00
2025-12-25 16:26:46.119738,599618128622346607,-57.00
2025-12-25 16:26:46.119738,599618128622346607,-57.00
2025-12-25 16:26:46.119738,599618128622346607,-52.00
2025-12-25 16:26:46.119738,599618128622346607,-59.00
2025-12-25 16:26:46.119738,599618128622346607,-64.00
2025-12-25 16:26:46.119738,599618128622346607,-52.00
2025-12-25 16:26:46.119738,599618128622346607,-43.00
2025-12-25 16:26:46.119738,599618128622346607,-43.00
2025-12-25 16:26:46.119738,599618128622346607,-50.00
2025-12-25 16:26:46.119738,599618128622346607,-50.00
2025-12-25 16:26:46.119738,599618128622346607,-48.00
2025-12-25 16:26:46.119738,599618128622346607,-59.00
2025-12-25 16:26:46.119738,599618128622346607,-57.00
2025-12-25 16:26:46.119738,599618128622346607,18.00
2025-12-25 16:26:46.119738,599618128622346607,190.00
2025-12-25 16:26:46.119738,599618128622346607,282.00
2025-12-25 16:26:46.119738,599618128622346607,34.00
2025-12-25 16:26:46.119738,599618128622346607,-308.00
2025-12-25 16:26:46.119738,599618128622346607,-324.00
2025-12-25 16:26:46.119738,599618128622346607,-200.00
2025-12-25 16:26:46.119738,599618128622346607,-167.00
2025-12-25 16:26:46.119738,599618128622346607,-103.00
2025-12-25 16:26:46.576718,599618129183292878,-29.00
2025-12-25 16:26:46.576718,599618129183292878,-36.00
2025-12-25 16:26:46.576718,599618129183292878,-41.00
2025-12-25 16:26:46.576718,599618129183292878,-20.00
2025-12-25 16:26:46.576718,599618129183292878,-20.00
2025-12-25 16:26:46.576718,599618129183292878,-34.00
2025-12-25 16:26:46.576718,599618129183292878,-27.00
2025-12-25 16:26:46.576718,599618129183292878,-16.00
2025-12-25 16:26:46.576718,599618129183292878,-22.00
2025-12-25 16:26:46.576718,599618129183292878,-32.00
2025-12-25 16:26:46.576718,599618129183292878,-22.00
2025-12-25 16:26:46.576718,599618129183292878,-4.00
2025-12-25 16:26:46.576718,599618129183292878,2.00
2025-12-25 16:26:46.576718,599618129183292878,0.00
2025-12-25 16:26:46.576718,599618129183292878,6.00
2025-12-25 16:26:46.576718,599618129183292878,11.00
2025-12-25 16:26:46.576718,599618129183292878,11.00
2025-12-25 16:26:46.576718,599618129183292878,20.00
2025-12-25 16:26:46.576718,599618129183292878,41.00
2025-12-25 16:26:46.576718,599618129183292878,39.00
2025-12-25 16:26:46.576718,599618129183292878,25.00
2025-12-25 16:26:46.576718,599618129183292878,27.00
2025-12-25 16:26:46.576718,599618129183292878,34.00
2025-12-25 16:26:46.576718,599618129183292878,34.00
2025-12-25 16:26:46.576718,599618129183292878,32.00
2025-12-25 16:26:46.576718,599618129183292878,25.00
2025-12-25 16:26:46.576718,599618129183292878,13.00
2025-12-25 16:26:46.576718,599618129183292878,0.00
2025-12-25 16:26:46.576718,599618129183292878,-13.00
2025-12-25 16:26:46.576718,599618129183292878,-27.00
2025-12-25 16:26:46.576718,599618129183292878,-43.00
2025-12-25 16:26:46.576718,599618129183292878,-55.00
2025-12-25 16:26:46.576718,599618129183292878,-50.00
2025-12-25 16:26:46.576718,599618129183292878,-52.00
2025-12-25 16:26:46.576718,599618129183292878,-59.00
2025-12-25 16:26:46.576718,599618129183292878,-55.00
2025-12-25 16:26:46.576718,599618129183292878,-45.00
2025-12-25 16:26:46.576718,599618129183292878,-48.00
2025-12-25 16:26:46.576718,599618129183292878,-48.00
2025-12-25 16:26:46.576718,599618129183292878,-43.00
2025-12-25 16:26:46.576718,599618129183292878,-39.00
2025-12-25 16:26:46.576718,599618129183292878,-41.00
2025-12-25 16:26:46.576718,599618129183292878,-41.00
2025-12-25 16:26:46.576718,599618129183292878,-41.00
2025-12-25 16:26:46.576718,599618129183292878,-43.00
2025-12-25 16:26:46.576718,599618129183292878,-45.00
2025-12-25 16:26:46.576718,599618129183292878,-50.00
2025-12-25 16:26:46.576718,599618129183292878,-50.00
2025-12-25 16:26:46.576718,599618129183292878,-36.00
2025-12-25 16:26:46.576718,599618129183292878,-34.00
2025-12-25 16:26:46.576718,599618129183292878,-39.00
2025-12-25 16:26:46.576718,599618129183292878,-41.00
2025-12-25 16:26:46.576718,599618129183292878,-43.00
2025-12-25 16:26:46.576718,599618129183292878,-48.00
2025-12-25 16:26:46.576718,599618129183292878,-45.00
2025-12-25 16:26:46.576718,599618129183292878,-48.00
2025-12-25 16:26:46.576718,599618129183292878,-50.00
2025-12-25 16:26:46.576718,599618129183292878,-45.00
2025-12-25 16:26:46.576718,599618129183292878,-34.00
2025-12-25 16:26:46.576718,599618129183292878,-22.00
2025-12-25 16:26:46.576718,599618129183292878,-25.00
2025-12-25 16:26:46.576718,599618129183292878,-36.00
2025-12-25 16:26:46.576718,599618129183292878,-48.00
2025-12-25 16:26:46.576718,599618129183292878,-48.00
2025-12-25 16:26:46.576718,599618129183292878,-41.00
2025-12-25 16:26:46.576718,599618129183292878,-32.00
2025-12-25 16:26:46.576718,599618129183292878,-41.00
2025-12-25 16:26:46.576718,599618129183292878,-48.00
2025-12-25 16:26:46.576718,599618129183292878,-39.00
2025-12-25 16:26:46.576718,599618129183292878,-27.00
2025-12-25 16:26:46.576718,599618129183292878,-36.00
2025-12-25 16:26:46.576718,599618129183292878,-39.00
2025-12-25 16:26:46.576718,599618129183292878,-39.00
2025-12-25 16:26:47.356398,599618129744239149,-48.00
2025-12-25 16:26:47.356398,599618129744239149,-43.00
2025-12-25 16:26:47.356398,599618129744239149,22.00
2025-12-25 16:26:47.356398,599618129744239149,186.00
2025-12-25 16:26:47.356398,599618129744239149,294.00
2025-12-25 16:26:47.356398,599618129744239149,66.00
2025-12-25 16:26:47.356398,599618129744239149,-282.00
2025-12-25 16:26:47.356398,599618129744239149,-321.00
2025-12-25 16:26:47.356398,599618129744239149,-186.00
2025-12-25 16:26:47.356398,599618129744239149,-126.00
2025-12-25 16:26:47.356398,599618129744239149,-64.00
2025-12-25 16:26:47.356398,599618129744239149,-4.00
2025-12-25 16:26:47.356398,599618129744239149,-6.00
2025-12-25 16:26:47.356398,599618129744239149,-18.00
2025-12-25 16:26:47.356398,599618129744239149,-2.00
2025-12-25 16:26:47.356398,599618129744239149,6.00
2025-12-25 16:26:47.356398,599618129744239149,4.00
2025-12-25 16:26:47.356398,599618129744239149,9.00
2025-12-25 16:26:47.356398,599618129744239149,9.00
2025-12-25 16:26:47.356398,599618129744239149,0.00
2025-12-25 16:26:47.356398,599618129744239149,6.00
2025-12-25 16:26:47.356398,599618129744239149,13.00
2025-12-25 16:26:47.356398,599618129744239149,13.00
2025-12-25 16:26:47.356398,599618129744239149,13.00
2025-12-25 16:26:47.356398,599618129744239149,18.00
2025-12-25 16:26:47.356398,599618129744239149,20.00
2025-12-25 16:26:47.356398,599618129744239149,18.00
2025-12-25 16:26:47.356398,599618129744239149,27.00
2025-12-25 16:26:47.356398,599618129744239149,36.00
2025-12-25 16:26:47.356398,599618129744239149,32.00
2025-12-25 16:26:47.356398,599618129744239149,27.00
2025-12-25 16:26:47.356398,599618129744239149,32.00
2025-12-25 16:26:47.356398,599618129744239149,27.00
2025-12-25 16:26:47.356398,599618129744239149,20.00
2025-12-25 16:26:47.356398,599618129744239149,16.00
2025-12-25 16:26:47.356398,599618129744239149,4.00
2025-12-25 16:26:47.356398,599618129744239149,2.00
2025-12-25 16:26:47.356398,599618129744239149,2.00
2025-12-25 16:26:47.356398,599618129744239149,-13.00
2025-12-25 16:26:47.356398,599618129744239149,-27.00
2025-12-25 16:26:47.356398,599618129744239149,-34.00
2025-12-25 16:26:47.356398,599618129744239149,-48.00
2025-12-25 16:26:47.356398,599618129744239149,-57.00
2025-12-25 16:26:47.356398,599618129744239149,-50.00
2025-12-25 16:26:47.356398,599618129744239149,-48.00
2025-12-25 16:26:47.356398,599618129744239149,-45.00
2025-12-25 16:26:47.356398,599618129744239149,-41.00
2025-12-25 16:26:47.356398,599618129744239149,-39.00
2025-12-25 16:26:47.356398,599618129744239149,-43.00
2025-12-25 16:26:47.356398,599618129744239149,-41.00
2025-12-25 16:26:47.356398,599618129744239149,-34.00
2025-12-25 16:26:47.356398,599618129744239149,-32.00
2025-12-25 16:26:47.356398,599618129744239149,-29.00
2025-12-25 16:26:47.356398,599618129744239149,-29.00
2025-12-25 16:26:47.356398,599618129744239149,-34.00
2025-12-25 16:26:47.356398,599618129744239149,-34.00
2025-12-25 16:26:47.356398,599618129744239149,-25.00
2025-12-25 16:26:47.356398,599618129744239149,-22.00
2025-12-25 16:26:47.356398,599618129744239149,-29.00
2025-12-25 16:26:47.356398,599618129744239149,-36.00
2025-12-25 16:26:47.356398,599618129744239149,-29.00
2025-12-25 16:26:47.356398,599618129744239149,-22.00
2025-12-25 16:26:47.356398,599618129744239149,-25.00
2025-12-25 16:26:47.356398,599618129744239149,-36.00
2025-12-25 16:26:47.356398,599618129744239149,-41.00
2025-12-25 16:26:47.356398,599618129744239149,-34.00
2025-12-25 16:26:47.356398,599618129744239149,-32.00
2025-12-25 16:26:47.356398,599618129744239149,-32.00
2025-12-25 16:26:47.356398,599618129744239149,-25.00
2025-12-25 16:26:47.356398,599618129744239149,-18.00
2025-12-25 16:26:47.356398,599618129744239149,-18.00
2025-12-25 16:26:47.356398,599618129744239149,-22.00
2025-12-25 16:26:47.356398,599618129744239149,-29.00
2025-12-25 16:26:47.753337,599618130305185420,-39.00
2025-12-25 16:26:47.753337,599618130305185420,-41.00
2025-12-25 16:26:47.753337,599618130305185420,-39.00
2025-12-25 16:26:47.753337,599618130305185420,-45.00
2025-12-25 16:26:47.753337,599618130305185420,-48.00
2025-12-25 16:26:47.753337,599618130305185420,-41.00
2025-12-25 16:26:47.753337,599618130305185420,-27.00
2025-12-25 16:26:47.753337,599618130305185420,-22.00
2025-12-25 16:26:47.753337,599618130305185420,-29.00
2025-12-25 16:26:47.753337,599618130305185420,-32.00
2025-12-25 16:26:47.753337,599618130305185420,-39.00
2025-12-25 16:26:47.753337,599618130305185420,-41.00
2025-12-25 16:26:47.753337,599618130305185420,6.00
2025-12-25 16:26:47.753337,599618130305185420,156.00
2025-12-25 16:26:47.753337,599618130305185420,314.00
2025-12-25 16:26:47.753337,599618130305185420,197.00
2025-12-25 16:26:47.753337,599618130305185420,-170.00
2025-12-25 16:26:47.753337,599618130305185420,-321.00
2025-12-25 16:26:47.753337,599618130305185420,-200.00
2025-12-25 16:26:47.753337,599618130305185420,-124.00
2025-12-25 16:26:47.753337,599618130305185420,-87.00
2025-12-25 16:26:47.753337,599618130305185420,-11.00
2025-12-25 16:26:47.753337,599618130305185420,2.00
2025-12-25 16:26:47.753337,599618130305185420,-16.00
2025-12-25 16:26:47.753337,599618130305185420,11.00
2025-12-25 16:26:47.753337,599618130305185420,29.00
2025-12-25 16:26:47.753337,599618130305185420,11.00
2025-12-25 16:26:47.753337,599618130305185420,11.00
2025-12-25 16:26:47.753337,599618130305185420,16.00
2025-12-25 16:26:47.753337,599618130305185420,6.00
2025-12-25 16:26:47.753337,599618130305185420,16.00
2025-12-25 16:26:47.753337,599618130305185420,27.00
2025-12-25 16:26:47.753337,599618130305185420,25.00
2025-12-25 16:26:47.753337,599618130305185420,27.00
2025-12-25 16:26:47.753337,599618130305185420,36.00
2025-12-25 16:26:47.753337,599618130305185420,41.00
2025-12-25 16:26:47.753337,599618130305185420,48.00
2025-12-25 16:26:47.753337,599618130305185420,55.00
2025-12-25 16:26:47.753337,599618130305185420,55.00
2025-12-25 16:26:47.753337,599618130305185420,52.00
2025-12-25 16:26:47.753337,599618130305185420,55.00
2025-12-25 16:26:47.753337,599618130305185420,64.00
2025-12-25 16:26:47.753337,599618130305185420,73.00
2025-12-25 16:26:47.753337,599618130305185420,64.00
2025-12-25 16:26:47.753337,599618130305185420,48.00
2025-12-25 16:26:47.753337,599618130305185420,43.00
2025-12-25 16:26:47.753337,599618130305185420,41.00
2025-12-25 16:26:47.753337,599618130305185420,32.00
2025-12-25 16:26:47.753337,599618130305185420,25.00
2025-12-25 16:26:47.753337,599618130305185420,20.00
2025-12-25 16:26:47.753337,599618130305185420,9.00
2025-12-25 16:26:47.753337,599618130305185420,-4.00
2025-12-25 16:26:47.753337,599618130305185420,-11.00
2025-12-25 16:26:47.753337,599618130305185420,-13.00
2025-12-25 16:26:47.753337,599618130305185420,-13.00
2025-12-25 16:26:47.753337,599618130305185420,-13.00
2025-12-25 16:26:47.753337,599618130305185420,-16.00
2025-12-25 16:26:47.753337,599618130305185420,-16.00
2025-12-25 16:26:47.753337,599618130305185420,-18.00
2025-12-25 16:26:47.753337,599618130305185420,-16.00
2025-12-25 16:26:47.753337,599618130305185420,-16.00
2025-12-25 16:26:47.753337,599618130305185420,-18.00
2025-12-25 16:26:47.753337,599618130305185420,-20.00
2025-12-25 16:26:47.753337,599618130305185420,-16.00
2025-12-25 16:26:47.753337,599618130305185420,-11.00
2025-12-25 16:26:47.753337,599618130305185420,-13.00
2025-12-25 16:26:47.753337,599618130305185420,-13.00
2025-12-25 16:26:47.753337,599618130305185420,-18.00
2025-12-25 16:26:47.753337,599618130305185420,-25.00
2025-12-25 16:26:47.753337,599618130305185420,-27.00
2025-12-25 16:26:47.753337,599618130305185420,-20.00
2025-12-25 16:26:47.753337,599618130305185420,-18.00
2025-12-25 16:26:47.753337,599618130305185420,-25.00
2025-12-25 16:26:48.372678,599618130866131691,-32.00
2025-12-25 16:26:48.372678,599618130866131691,-29.00
2025-12-25 16:26:48.372678,599618130866131691,-32.00
2025-12-25 16:26:48.372678,599618130866131691,-39.00
2025-12-25 16:26:48.372678,599618130866131691,-39.00
2025-12-25 16:26:48.372678,599618130866131691,-27.00
2025-12-25 16:26:48.372678,599618130866131691,-13.00
2025-12-25 16:26:48.372678,599618130866131691,-9.00
2025-12-25 16:26:48.372678,599618130866131691,-20.00
2025-12-25 16:26:48.372678,599618130866131691,-32.00
2025-12-25 16:26:48.372678,599618130866131691,-27.00
2025-12-25 16:26:48.372678,599618130866131691,-25.00
2025-12-25 16:26:48.372678,599618130866131691,-27.00
2025-12-25 16:26:48.372678,599618130866131691,-27.00
2025-12-25 16:26:48.372678,599618130866131691,-29.00
2025-12-25 16:26:48.372678,599618130866131691,-22.00
2025-12-25 16:26:48.372678,599618130866131691,-11.00
2025-12-25 16:26:48.372678,599618130866131691,-13.00
2025-12-25 16:26:48.372678,599618130866131691,-22.00
2025-12-25 16:26:48.372678,599618130866131691,-22.00
2025-12-25 16:26:48.372678,599618130866131691,-22.00
2025-12-25 16:26:48.372678,599618130866131691,-25.00
2025-12-25 16:26:48.372678,599618130866131691,6.00
2025-12-25 16:26:48.372678,599618130866131691,140.00
2025-12-25 16:26:48.372678,599618130866131691,305.00
2025-12-25 16:26:48.372678,599618130866131691,211.00
2025-12-25 16:26:48.372678,599618130866131691,-149.00
2025-12-25 16:26:48.372678,599618130866131691,-328.00
2025-12-25 16:26:48.372678,599618130866131691,-218.00
2025-12-25 16:26:48.372678,599618130866131691,-135.00
2025-12-25 16:26:48.372678,599618130866131691,-105.00
2025-12-25 16:26:48.372678,599618130866131691,-34.00
2025-12-25 16:26:48.372678,599618130866131691,-4.00
2025-12-25 16:26:48.372678,599618130866131691,-18.00
2025-12-25 16:26:48.372678,599618130866131691,-11.00
2025-12-25 16:26:48.372678,599618130866131691,-2.00
2025-12-25 16:26:48.372678,599618130866131691,-13.00
2025-12-25 16:26:48.372678,599618130866131691,-13.00
2025-12-25 16:26:48.372678,599618130866131691,0.00
2025-12-25 16:26:48.372678,599618130866131691,2.00
2025-12-25 16:26:48.372678,599618130866131691,-2.00
2025-12-25 16:26:48.372678,599618130866131691,4.00
2025-12-25 16:26:48.372678,599618130866131691,11.00
2025-12-25 16:26:48.372678,599618130866131691,16.00
2025-12-25 16:26:48.372678,599618130866131691,22.00
2025-12-25 16:26:48.372678,599618130866131691,22.00
2025-12-25 16:26:48.372678,599618130866131691,13.00
2025-12-25 16:26:48.372678,599618130866131691,13.00
2025-12-25 16:26:48.372678,599618130866131691,20.00
2025-12-25 16:26:48.372678,599618130866131691,22.00
2025-12-25 16:26:48.372678,599618130866131691,20.00
2025-12-25 16:26:48.372678,599618130866131691,9.00
2025-12-25 16:26:48.372678,599618130866131691,6.00
2025-12-25 16:26:48.372678,599618130866131691,13.00
2025-12-25 16:26:48.372678,599618130866131691,9.00
2025-12-25 16:26:48.372678,599618130866131691,4.00
2025-12-25 16:26:48.372678,599618130866131691,2.00
2025-12-25 16:26:48.372678,599618130866131691,-13.00
2025-12-25 16:26:48.372678,599618130866131691,-27.00
2025-12-25 16:26:48.372678,599618130866131691,-29.00
2025-12-25 16:26:48.372678,599618130866131691,-41.00
2025-12-25 16:26:48.372678,599618130866131691,-55.00
2025-12-25 16:26:48.372678,599618130866131691,-64.00
2025-12-25 16:26:48.372678,599618130866131691,-71.00
2025-12-25 16:26:48.372678,599618130866131691,-71.00
2025-12-25 16:26:48.372678,599618130866131691,-68.00
2025-12-25 16:26:48.372678,599618130866131691,-73.00
2025-12-25 16:26:48.372678,599618130866131691,-68.00
2025-12-25 16:26:48.372678,599618130866131691,-55.00
2025-12-25 16:26:48.372678,599618130866131691,-55.00
2025-12-25 16:26:48.372678,599618130866131691,-64.00
2025-12-25 16:26:48.372678,599618130866131691,-64.00
2025-12-25 16:26:48.372678,599618130866131691,-68.00
2025-12-25 16:26:48.856155,599618131427047446,-71.00
2025-12-25 16:26:48.856155,599618131427047446,-62.00
2025-12-25 16:26:48.856155,599618131427047446,-57.00
2025-12-25 16:26:48.856155,599618131427047446,-59.00
2025-12-25 16:26:48.856155,599618131427047446,-59.00
2025-12-25 16:26:48.856155,599618131427047446,-62.00
2025-12-25 16:26:48.856155,599618131427047446,-52.00
2025-12-25 16:26:48.856155,599618131427047446,-36.00
2025-12-25 16:26:48.856155,599618131427047446,-41.00
2025-12-25 16:26:48.856155,599618131427047446,-55.00
2025-12-25 16:26:48.856155,599618131427047446,-48.00
2025-12-25 16:26:48.856155,599618131427047446,-41.00
2025-12-25 16:26:48.856155,599618131427047446,-45.00
2025-12-25 16:26:48.856155,599618131427047446,-43.00
2025-12-25 16:26:48.856155,599618131427047446,-34.00
2025-12-25 16:26:48.856155,599618131427047446,-27.00
2025-12-25 16:26:48.856155,599618131427047446,-25.00
2025-12-25 16:26:48.856155,599618131427047446,-29.00
2025-12-25 16:26:48.856155,599618131427047446,-29.00
2025-12-25 16:26:48.856155,599618131427047446,-27.00
2025-12-25 16:26:48.856155,599618131427047446,-34.00
2025-12-25 16:26:48.856155,599618131427047446,-41.00
2025-12-25 16:26:48.856155,599618131427047446,-36.00
2025-12-25 16:26:48.856155,599618131427047446,-29.00
2025-12-25 16:26:48.856155,599618131427047446,-22.00
2025-12-25 16:26:48.856155,599618131427047446,-16.00
2025-12-25 16:26:48.856155,599618131427047446,-18.00
2025-12-25 16:26:48.856155,599618131427047446,-25.00
2025-12-25 16:26:48.856155,599618131427047446,-22.00
2025-12-25 16:26:48.856155,599618131427047446,-18.00
2025-12-25 16:26:48.856155,599618131427047446,-22.00
2025-12-25 16:26:48.856155,599618131427047446,-20.00
2025-12-25 16:26:48.856155,599618131427047446,62.00
2025-12-25 16:26:48.856155,599618131427047446,234.00
2025-12-25 16:26:48.856155,599618131427047446,278.00
2025-12-25 16:26:48.856155,599618131427047446,-4.00
2025-12-25 16:26:48.856155,599618131427047446,-298.00
2025-12-25 16:26:48.856155,599618131427047446,-271.00
2025-12-25 16:26:48.856155,599618131427047446,-158.00
2025-12-25 16:26:48.856155,599618131427047446,-124.00
2025-12-25 16:26:48.856155,599618131427047446,-59.00
2025-12-25 16:26:48.856155,599618131427047446,-9.00
2025-12-25 16:26:48.856155,599618131427047446,-20.00
2025-12-25 16:26:48.856155,599618131427047446,-22.00
2025-12-25 16:26:48.856155,599618131427047446,-4.00
2025-12-25 16:26:48.856155,599618131427047446,0.00
2025-12-25 16:26:48.856155,599618131427047446,-4.00
2025-12-25 16:26:48.856155,599618131427047446,-4.00
2025-12-25 16:26:48.856155,599618131427047446,0.00
2025-12-25 16:26:48.856155,599618131427047446,6.00
2025-12-25 16:26:48.856155,599618131427047446,4.00
2025-12-25 16:26:48.856155,599618131427047446,0.00
2025-12-25 16:26:48.856155,599618131427047446,4.00
2025-12-25 16:26:48.856155,599618131427047446,11.00
2025-12-25 16:26:48.856155,599618131427047446,18.00
2025-12-25 16:26:48.856155,599618131427047446,20.00
2025-12-25 16:26:48.856155,599618131427047446,18.00
2025-12-25 16:26:48.856155,599618131427047446,13.00
2025-12-25 16:26:48.856155,599618131427047446,11.00
2025-12-25 16:26:48.856155,599618131427047446,18.00
2025-12-25 16:26:48.856155,599618131427047446,20.00
2025-12-25 16:26:48.856155,599618131427047446,9.00
2025-12-25 16:26:48.856155,599618131427047446,0.00
2025-12-25 16:26:48.856155,599618131427047446,2.00
2025-12-25 16:26:48.856155,599618131427047446,-4.00
2025-12-25 16:26:48.856155,599618131427047446,-16.00
2025-12-25 16:26:48.856155,599618131427047446,-20.00
2025-12-25 16:26:48.856155,599618131427047446,-25.00
2025-12-25 16:26:48.856155,599618131427047446,-39.00
2025-12-25 16:26:48.856155,599618131427047446,-48.00
2025-12-25 16:26:48.856155,599618131427047446,-59.00
2025-12-25 16:26:48.856155,599618131427047446,-68.00
2025-12-25 16:26:48.856155,599618131427047446,-75.00
2025-12-25 16:26:49.547054,599618131987993719,-78.00
2025-12-25 16:26:49.547054,599618131987993719,-73.00
2025-12-25 16:26:49.547054,599618131987993719,-68.00
2025-12-25 16:26:49.547054,599618131987993719,-68.00
2025-12-25 16:26:49.547054,599618131987993719,-66.00
2025-12-25 16:26:49.547054,599618131987993719,-57.00
2025-12-25 16:26:49.547054,599618131987993719,-57.00
2025-12-25 16:26:49.547054,599618131987993719,-71.00
2025-12-25 16:26:49.547054,599618131987993719,-66.00
2025-12-25 16:26:49.547054,599618131987993719,-48.00
2025-12-25 16:26:49.547054,599618131987993719,-48.00
2025-12-25 16:26:49.547054,599618131987993719,-57.00
2025-12-25 16:26:49.547054,599618131987993719,-48.00
2025-12-25 16:26:49.547054,599618131987993719,-43.00
2025-12-25 16:26:49.547054,599618131987993719,-52.00
2025-12-25 16:26:49.547054,599618131987993719,-57.00
2025-12-25 16:26:49.547054,599618131987993719,-59.00
2025-12-25 16:26:49.547054,599618131987993719,-57.00
2025-12-25 16:26:49.547054,599618131987993719,-50.00
2025-12-25 16:26:49.547054,599618131987993719,-57.00
2025-12-25 16:26:49.547054,599618131987993719,-68.00
2025-12-25 16:26:49.547054,599618131987993719,-66.00
2025-12-25 16:26:49.547054,599618131987993719,-55.00
2025-12-25 16:26:49.547054,599618131987993719,-52.00
2025-12-25 16:26:49.547054,599618131987993719,-48.00
2025-12-25 16:26:49.547054,599618131987993719,-39.00
2025-12-25 16:26:49.547054,599618131987993719,-43.00
2025-12-25 16:26:49.547054,599618131987993719,-48.00
2025-12-25 16:26:49.547054,599618131987993719,-48.00
2025-12-25 16:26:49.547054,599618131987993719,-57.00
2025-12-25 16:26:49.547054,599618131987993719,-62.00
2025-12-25 16:26:49.547054,599618131987993719,-62.00
2025-12-25 16:26:49.547054,599618131987993719,-68.00
2025-12-25 16:26:49.547054,599618131987993719,-62.00
2025-12-25 16:26:49.547054,599618131987993719,-50.00
2025-12-25 16:26:49.547054,599618131987993719,-48.00
2025-12-25 16:26:49.547054,599618131987993719,-48.00
2025-12-25 16:26:49.547054,599618131987993719,-55.00
2025-12-25 16:26:49.547054,599618131987993719,-62.00
2025-12-25 16:26:49.547054,599618131987993719,-57.00
2025-12-25 16:26:49.547054,599618131987993719,-29.00
2025-12-25 16:26:49.547054,599618131987993719,94.00
2025-12-25 16:26:49.547054,599618131987993719,273.00
2025-12-25 16:26:49.547054,599618131987993719,202.00
2025-12-25 16:26:49.547054,599618131987993719,-170.00
2025-12-25 16:26:49.547054,599618131987993719,-363.00
2025-12-25 16:26:49.547054,599618131987993719,-255.00
2025-12-25 16:26:49.547054,599618131987993719,-190.00
2025-12-25 16:26:49.547054,599618131987993719,-172.00
2025-12-25 16:26:49.547054,599618131987993719,-89.00
2025-12-25 16:26:49.547054,599618131987993719,-48.00
2025-12-25 16:26:49.547054,599618131987993719,-62.00
2025-12-25 16:26:49.547054,599618131987993719,-52.00
2025-12-25 16:26:49.547054,599618131987993719,-36.00
2025-12-25 16:26:49.547054,599618131987993719,-36.00
2025-12-25 16:26:49.547054,599618131987993719,-36.00
2025-12-25 16:26:49.547054,599618131987993719,-36.00
2025-12-25 16:26:49.547054,599618131987993719,-32.00
2025-12-25 16:26:49.547054,599618131987993719,-25.00
2025-12-25 16:26:49.547054,599618131987993719,-22.00
2025-12-25 16:26:49.547054,599618131987993719,-25.00
2025-12-25 16:26:49.547054,599618131987993719,-22.00
2025-12-25 16:26:49.547054,599618131987993719,-16.00
2025-12-25 16:26:49.547054,599618131987993719,-6.00
2025-12-25 16:26:49.547054,599618131987993719,-2.00
2025-12-25 16:26:49.547054,599618131987993719,-4.00
2025-12-25 16:26:49.547054,599618131987993719,-6.00
2025-12-25 16:26:49.547054,599618131987993719,-4.00
2025-12-25 16:26:49.547054,599618131987993719,2.00
2025-12-25 16:26:49.547054,599618131987993719,2.00
2025-12-25 16:26:49.547054,599618131987993719,0.00
2025-12-25 16:26:49.547054,599618131987993719,-4.00
2025-12-25 16:26:49.547054,599618131987993719,-9.00
2025-12-25 16:26:50.009128,599618132548939990,-16.00
2025-12-25 16:26:50.009128,599618132548939990,-18.00
2025-12-25 16:26:50.009128,599618132548939990,-18.00
2025-12-25 16:26:50.009128,599618132548939990,-29.00
2025-12-25 16:26:50.009128,599618132548939990,-48.00
2025-12-25 16:26:50.009128,599618132548939990,-62.00
2025-12-25 16:26:50.009128,599618132548939990,-64.00
2025-12-25 16:26:50.009128,599618132548939990,-68.00
2025-12-25 16:26:50.009128,599618132548939990,-75.00
2025-12-25 16:26:50.009128,599618132548939990,-71.00
2025-12-25 16:26:50.009128,599618132548939990,-64.00
2025-12-25 16:26:50.009128,599618132548939990,-73.00
2025-12-25 16:26:50.009128,599618132548939990,-68.00
2025-12-25 16:26:50.009128,599618132548939990,-48.00
2025-12-25 16:26:50.009128,599618132548939990,-39.00
2025-12-25 16:26:50.009128,599618132548939990,-45.00
2025-12-25 16:26:50.009128,599618132548939990,-52.00
2025-12-25 16:26:50.009128,599618132548939990,-48.00
2025-12-25 16:26:50.009128,599618132548939990,-45.00
2025-12-25 16:26:50.009128,599618132548939990,-41.00
2025-12-25 16:26:50.009128,599618132548939990,-32.00
2025-12-25 16:26:50.009128,599618132548939990,-32.00
2025-12-25 16:26:50.009128,599618132548939990,-41.00
2025-12-25 16:26:50.009128,599618132548939990,-48.00
2025-12-25 16:26:50.009128,599618132548939990,-43.00
2025-12-25 16:26:50.009128,599618132548939990,-32.00
2025-12-25 16:26:50.009128,599618132548939990,-32.00
2025-12-25 16:26:50.009128,599618132548939990,-39.00
2025-12-25 16:26:50.009128,599618132548939990,-39.00
2025-12-25 16:26:50.009128,599618132548939990,-41.00
2025-12-25 16:26:50.009128,599618132548939990,-39.00
2025-12-25 16:26:50.009128,599618132548939990,-13.00
2025-12-25 16:26:50.009128,599618132548939990,4.00
2025-12-25 16:26:50.009128,599618132548939990,-6.00
2025-12-25 16:26:50.009128,599618132548939990,-25.00
2025-12-25 16:26:50.009128,599618132548939990,-34.00
2025-12-25 16:26:50.009128,599618132548939990,-36.00
2025-12-25 16:26:50.009128,599618132548939990,-34.00
2025-12-25 16:26:50.009128,599618132548939990,-36.00
2025-12-25 16:26:50.009128,599618132548939990,-48.00
2025-12-25 16:26:50.009128,599618132548939990,-52.00
2025-12-25 16:26:50.009128,599618132548939990,-45.00
2025-12-25 16:26:50.009128,599618132548939990,-45.00
2025-12-25 16:26:50.009128,599618132548939990,-52.00
2025-12-25 16:26:50.009128,599618132548939990,-48.00
2025-12-25 16:26:50.009128,599618132548939990,-41.00
2025-12-25 16:26:50.009128,599618132548939990,-50.00
2025-12-25 16:26:50.009128,599618132548939990,-55.00
2025-12-25 16:26:50.009128,599618132548939990,2.00
2025-12-25 16:26:50.009128,599618132548939990,160.00
2025-12-25 16:26:50.009128,599618132548939990,301.00
2025-12-25 16:26:50.009128,599618132548939990,110.00
2025-12-25 16:26:50.009128,599618132548939990,-280.00
2025-12-25 16:26:50.009128,599618132548939990,-374.00
2025-12-25 16:26:50.009128,599618132548939990,-227.00
2025-12-25 16:26:50.009128,599618132548939990,-160.00
2025-12-25 16:26:50.009128,599618132548939990,-114.00
2025-12-25 16:26:50.009128,599618132548939990,-50.00
2025-12-25 16:26:50.009128,599618132548939990,-45.00
2025-12-25 16:26:50.009128,599618132548939990,-55.00
2025-12-25 16:26:50.009128,599618132548939990,-36.00
2025-12-25 16:26:50.009128,599618132548939990,-32.00
2025-12-25 16:26:50.009128,599618132548939990,-36.00
2025-12-25 16:26:50.009128,599618132548939990,-27.00
2025-12-25 16:26:50.009128,599618132548939990,-25.00
2025-12-25 16:26:50.009128,599618132548939990,-29.00
2025-12-25 16:26:50.009128,599618132548939990,-27.00
2025-12-25 16:26:50.009128,599618132548939990,-18.00
2025-12-25 16:26:50.009128,599618132548939990,-20.00
2025-12-25 16:26:50.009128,599618132548939990,-22.00
2025-12-25 16:26:50.009128,599618132548939990,-20.00
2025-12-25 16:26:50.009128,599618132548939990,-11.00
2025-12-25 16:26:50.009128,599618132548939990,-6.00
2025-12-25 16:26:50.547122,599618133109886261,-6.00
2025-12-25 16:26:50.547122,599618133109886261,-6.00
2025-12-25 16:26:50.547122,599618133109886261,-4.00
2025-12-25 16:26:50.547122,599618133109886261,-6.00
2025-12-25 16:26:50.547122,599618133109886261,-11.00
2025-12-25 16:26:50.547122,599618133109886261,-18.00
2025-12-25 16:26:50.547122,599618133109886261,-22.00
2025-12-25 16:26:50.547122,599618133109886261,-25.00
2025-12-25 16:26:50.547122,599618133109886261,-22.00
2025-12-25 16:26:50.547122,599618133109886261,-25.00
2025-12-25 16:26:50.547122,599618133109886261,-27.00
2025-12-25 16:26:50.547122,599618133109886261,-36.00
2025-12-25 16:26:50.547122,599618133109886261,-50.00
2025-12-25 16:26:50.547122,599618133109886261,-55.00
2025-12-25 16:26:50.547122,599618133109886261,-50.00
2025-12-25 16:26:50.547122,599618133109886261,-48.00
2025-12-25 16:26:50.547122,599618133109886261,-48.00
2025-12-25 16:26:50.547122,599618133109886261,-36.00
2025-12-25 16:26:50.547122,599618133109886261,-27.00
2025-12-25 16:26:50.547122,599618133109886261,-27.00
2025-12-25 16:26:50.547122,599618133109886261,-32.00
2025-12-25 16:26:50.547122,599618133109886261,-32.00
2025-12-25 16:26:50.547122,599618133109886261,-27.00
2025-12-25 16:26:50.547122,599618133109886261,-29.00
2025-12-25 16:26:50.547122,599618133109886261,-34.00
2025-12-25 16:26:50.547122,599618133109886261,-32.00
2025-12-25 16:26:50.547122,599618133109886261,-41.00
2025-12-25 16:26:50.547122,599618133109886261,-48.00
2025-12-25 16:26:50.547122,599618133109886261,-41.00
2025-12-25 16:26:50.547122,599618133109886261,-41.00
2025-12-25 16:26:50.547122,599618133109886261,-50.00
2025-12-25 16:26:50.547122,599618133109886261,-50.00
2025-12-25 16:26:50.547122,599618133109886261,-45.00
2025-12-25 16:26:50.547122,599618133109886261,-55.00
2025-12-25 16:26:50.547122,599618133109886261,-62.00
2025-12-25 16:26:50.547122,599618133109886261,-64.00
2025-12-25 16:26:50.547122,599618133109886261,-71.00
2025-12-25 16:26:50.547122,599618133109886261,-71.00
2025-12-25 16:26:50.547122,599618133109886261,-64.00
2025-12-25 16:26:50.547122,599618133109886261,-55.00
2025-12-25 16:26:50.547122,599618133109886261,-48.00
2025-12-25 16:26:50.547122,599618133109886261,-50.00
2025-12-25 16:26:50.547122,599618133109886261,-57.00
2025-12-25 16:26:50.547122,599618133109886261,-62.00
2025-12-25 16:26:50.547122,599618133109886261,-68.00
2025-12-25 16:26:50.547122,599618133109886261,-80.00
2025-12-25 16:26:50.547122,599618133109886261,-80.00
2025-12-25 16:26:50.547122,599618133109886261,-71.00
2025-12-25 16:26:50.547122,599618133109886261,-71.00
2025-12-25 16:26:50.547122,599618133109886261,-73.00
2025-12-25 16:26:50.547122,599618133109886261,-71.00
2025-12-25 16:26:50.547122,599618133109886261,-57.00
2025-12-25 16:26:50.547122,599618133109886261,-57.00
2025-12-25 16:26:50.547122,599618133109886261,-75.00
2025-12-25 16:26:50.547122,599618133109886261,-78.00
2025-12-25 16:26:50.547122,599618133109886261,-45.00
2025-12-25 16:26:50.547122,599618133109886261,55.00
2025-12-25 16:26:50.547122,599618133109886261,239.00
2025-12-25 16:26:50.547122,599618133109886261,262.00
2025-12-25 16:26:50.547122,599618133109886261,-71.00
2025-12-25 16:26:50.547122,599618133109886261,-377.00
2025-12-25 16:26:50.547122,599618133109886261,-324.00
2025-12-25 16:26:50.547122,599618133109886261,-195.00
2025-12-25 16:26:50.547122,599618133109886261,-156.00
2025-12-25 16:26:50.547122,599618133109886261,-89.00
2025-12-25 16:26:50.547122,599618133109886261,-43.00
2025-12-25 16:26:50.547122,599618133109886261,-55.00
2025-12-25 16:26:50.547122,599618133109886261,-55.00
2025-12-25 16:26:50.547122,599618133109886261,-39.00
2025-12-25 16:26:50.547122,599618133109886261,-34.00
2025-12-25 16:26:50.547122,599618133109886261,-36.00
2025-12-25 16:26:50.547122,599618133109886261,-34.00
2025-12-25 16:26:50.547122,599618133109886261,-32.00
2025-12-25 16:26:51.086639,599618133670812188,-32.00
2025-12-25 16:26:51.086639,599618133670812188,-29.00
2025-12-25 16:26:51.086639,599618133670812188,-22.00
2025-12-25 16:26:51.086639,599618133670812188,-20.00
2025-12-25 16:26:51.086639,599618133670812188,-27.00
2025-12-25 16:26:51.086639,599618133670812188,-20.00
2025-12-25 16:26:51.086639,599618133670812188,-4.00
2025-12-25 16:26:51.086639,599618133670812188,13.00
2025-12-25 16:26:51.086639,599618133670812188,20.00
2025-12-25 16:26:51.086639,599618133670812188,20.00
2025-12-25 16:26:51.086639,599618133670812188,22.00
2025-12-25 16:26:51.086639,599618133670812188,32.00
2025-12-25 16:26:51.086639,599618133670812188,29.00
2025-12-25 16:26:51.086639,599618133670812188,25.00
2025-12-25 16:26:51.086639,599618133670812188,36.00
2025-12-25 16:26:51.086639,599618133670812188,29.00
2025-12-25 16:26:51.086639,599618133670812188,6.00
2025-12-25 16:26:51.086639,599618133670812188,0.00
2025-12-25 16:26:51.086639,599618133670812188,2.00
2025-12-25 16:26:51.086639,599618133670812188,-16.00
2025-12-25 16:26:51.086639,599618133670812188,-34.00
2025-12-25 16:26:51.086639,599618133670812188,-41.00
2025-12-25 16:26:51.086639,599618133670812188,-45.00
2025-12-25 16:26:51.086639,599618133670812188,-52.00
2025-12-25 16:26:51.086639,599618133670812188,-57.00
2025-12-25 16:26:51.086639,599618133670812188,-55.00
2025-12-25 16:26:51.086639,599618133670812188,-45.00
2025-12-25 16:26:51.086639,599618133670812188,-43.00
2025-12-25 16:26:51.086639,599618133670812188,-50.00
2025-12-25 16:26:51.086639,599618133670812188,-52.00
2025-12-25 16:26:51.086639,599618133670812188,-45.00
2025-12-25 16:26:51.086639,599618133670812188,-48.00
2025-12-25 16:26:51.086639,599618133670812188,-55.00
2025-12-25 16:26:51.086639,599618133670812188,-52.00
2025-12-25 16:26:51.086639,599618133670812188,-45.00
2025-12-25 16:26:51.086639,599618133670812188,-50.00
2025-12-25 16:26:51.086639,599618133670812188,-52.00
2025-12-25 16:26:51.086639,599618133670812188,-48.00
2025-12-25 16:26:51.086639,599618133670812188,-52.00
2025-12-25 16:26:51.086639,599618133670812188,-55.00
2025-12-25 16:26:51.086639,599618133670812188,-55.00
2025-12-25 16:26:51.086639,599618133670812188,-62.00
2025-12-25 16:26:51.086639,599618133670812188,-64.00
2025-12-25 16:26:51.086639,599618133670812188,-55.00
2025-12-25 16:26:51.086639,599618133670812188,-52.00
2025-12-25 16:26:51.086639,599618133670812188,-52.00
2025-12-25 16:26:51.086639,599618133670812188,-55.00
2025-12-25 16:26:51.086639,599618133670812188,-45.00
2025-12-25 16:26:51.086639,599618133670812188,-29.00
2025-12-25 16:26:51.086639,599618133670812188,-39.00
2025-12-25 16:26:51.086639,599618133670812188,-64.00
2025-12-25 16:26:51.086639,599618133670812188,-66.00
2025-12-25 16:26:51.086639,599618133670812188,-64.00
2025-12-25 16:26:51.086639,599618133670812188,-68.00
2025-12-25 16:26:51.086639,599618133670812188,-71.00
2025-12-25 16:26:51.086639,599618133670812188,-71.00
2025-12-25 16:26:51.086639,599618133670812188,-66.00
2025-12-25 16:26:51.086639,599618133670812188,-64.00
2025-12-25 16:26:51.086639,599618133670812188,-66.00
2025-12-25 16:26:51.086639,599618133670812188,-68.00
2025-12-25 16:26:51.086639,599618133670812188,-57.00
2025-12-25 16:26:51.086639,599618133670812188,-52.00
2025-12-25 16:26:51.086639,599618133670812188,-71.00
2025-12-25 16:26:51.086639,599618133670812188,-36.00
2025-12-25 16:26:51.086639,599618133670812188,128.00
2025-12-25 16:26:51.086639,599618133670812188,294.00
2025-12-25 16:26:51.086639,599618133670812188,140.00
2025-12-25 16:26:51.086639,599618133670812188,-243.00
2025-12-25 16:26:51.086639,599618133670812188,-374.00
2025-12-25 16:26:51.086639,599618133670812188,-255.00
2025-12-25 16:26:51.086639,599618133670812188,-186.00
2025-12-25 16:26:51.086639,599618133670812188,-131.00
2025-12-25 16:26:51.086639,599618133670812188,-48.00
2025-12-25 16:26:51.638609,599618134231748285,-29.00
2025-12-25 16:26:51.638609,599618134231748285,-45.00
2025-12-25 16:26:51.638609,599618134231748285,-32.00
2025-12-25 16:26:51.638609,599618134231748285,-20.00
2025-12-25 16:26:51.638609,599618134231748285,-25.00
2025-12-25 16:26:51.638609,599618134231748285,-20.00
2025-12-25 16:26:51.638609,599618134231748285,-11.00
2025-12-25 16:26:51.638609,599618134231748285,-13.00
2025-12-25 16:26:51.638609,599618134231748285,-16.00
2025-12-25 16:26:51.638609,599618134231748285,-9.00
2025-12-25 16:26:51.638609,599618134231748285,0.00
2025-12-25 16:26:51.638609,599618134231748285,9.00
2025-12-25 16:26:51.638609,599618134231748285,16.00
2025-12-25 16:26:51.638609,599618134231748285,16.00
2025-12-25 16:26:51.638609,599618134231748285,6.00
2025-12-25 16:26:51.638609,599618134231748285,-2.00
2025-12-25 16:26:51.638609,599618134231748285,4.00
2025-12-25 16:26:51.638609,599618134231748285,18.00
2025-12-25 16:26:51.638609,599618134231748285,20.00
2025-12-25 16:26:51.638609,599618134231748285,11.00
2025-12-25 16:26:51.638609,599618134231748285,4.00
2025-12-25 16:26:51.638609,599618134231748285,6.00
2025-12-25 16:26:51.638609,599618134231748285,9.00
2025-12-25 16:26:51.638609,599618134231748285,6.00
2025-12-25 16:26:51.638609,599618134231748285,-6.00
2025-12-25 16:26:51.638609,599618134231748285,-20.00
2025-12-25 16:26:51.638609,599618134231748285,-22.00
2025-12-25 16:26:51.638609,599618134231748285,-32.00
2025-12-25 16:26:51.638609,599618134231748285,-48.00
2025-12-25 16:26:51.638609,599618134231748285,-55.00
2025-12-25 16:26:51.638609,599618134231748285,-57.00
2025-12-25 16:26:51.638609,599618134231748285,-66.00
2025-12-25 16:26:51.638609,599618134231748285,-73.00
2025-12-25 16:26:51.638609,599618134231748285,-62.00
2025-12-25 16:26:51.638609,599618134231748285,-52.00
2025-12-25 16:26:51.638609,599618134231748285,-55.00
2025-12-25 16:26:51.638609,599618134231748285,-48.00
2025-12-25 16:26:51.638609,599618134231748285,-43.00
2025-12-25 16:26:51.638609,599618134231748285,-50.00
2025-12-25 16:26:51.638609,599618134231748285,-45.00
2025-12-25 16:26:51.638609,599618134231748285,-36.00
2025-12-25 16:26:51.638609,599618134231748285,-41.00
2025-12-25 16:26:51.638609,599618134231748285,-48.00
2025-12-25 16:26:51.638609,599618134231748285,-50.00
2025-12-25 16:26:51.638609,599618134231748285,-52.00
2025-12-25 16:26:51.638609,599618134231748285,-52.00
2025-12-25 16:26:51.638609,599618134231748285,-55.00
2025-12-25 16:26:51.638609,599618134231748285,-52.00
2025-12-25 16:26:51.638609,599618134231748285,-50.00
2025-12-25 16:26:51.638609,599618134231748285,-50.00
2025-12-25 16:26:51.638609,599618134231748285,-55.00
2025-12-25 16:26:51.638609,599618134231748285,-57.00
2025-12-25 16:26:51.638609,599618134231748285,-50.00
2025-12-25 16:26:51.638609,599618134231748285,-41.00
2025-12-25 16:26:51.638609,599618134231748285,-36.00
2025-12-25 16:26:51.638609,599618134231748285,-36.00
2025-12-25 16:26:51.638609,599618134231748285,-43.00
2025-12-25 16:26:51.638609,599618134231748285,-55.00
2025-12-25 16:26:51.638609,599618134231748285,-59.00
2025-12-25 16:26:51.638609,599618134231748285,-59.00
2025-12-25 16:26:51.638609,599618134231748285,-59.00
2025-12-25 16:26:51.638609,599618134231748285,-62.00
2025-12-25 16:26:51.638609,599618134231748285,-62.00
2025-12-25 16:26:51.638609,599618134231748285,-57.00
2025-12-25 16:26:51.638609,599618134231748285,-55.00
2025-12-25 16:26:51.638609,599618134231748285,-48.00
2025-12-25 16:26:51.638609,599618134231748285,-36.00
2025-12-25 16:26:51.638609,599618134231748285,-39.00
2025-12-25 16:26:51.638609,599618134231748285,-52.00
2025-12-25 16:26:51.638609,599618134231748285,-48.00
2025-12-25 16:26:51.638609,599618134231748285,6.00
2025-12-25 16:26:51.638609,599618134231748285,156.00
2025-12-25 16:26:51.638609,599618134231748285,298.00
2025-12-25 16:26:52.177040,599618134792694556,135.00
2025-12-25 16:26:52.177040,599618134792694556,-250.00
2025-12-25 16:26:52.177040,599618134792694556,-372.00
2025-12-25 16:26:52.177040,599618134792694556,-227.00
2025-12-25 16:26:52.177040,599618134792694556,-142.00
2025-12-25 16:26:52.177040,599618134792694556,-105.00
2025-12-25 16:26:52.177040,599618134792694556,-48.00
2025-12-25 16:26:52.177040,599618134792694556,-22.00
2025-12-25 16:26:52.177040,599618134792694556,-13.00
2025-12-25 16:26:52.177040,599618134792694556,-4.00
2025-12-25 16:26:52.177040,599618134792694556,-2.00
2025-12-25 16:26:52.177040,599618134792694556,-2.00
2025-12-25 16:26:52.177040,599618134792694556,-4.00
2025-12-25 16:26:52.177040,599618134792694556,-2.00
2025-12-25 16:26:52.177040,599618134792694556,2.00
2025-12-25 16:26:52.177040,599618134792694556,2.00
2025-12-25 16:26:52.177040,599618134792694556,0.00
2025-12-25 16:26:52.177040,599618134792694556,0.00
2025-12-25 16:26:52.177040,599618134792694556,4.00
2025-12-25 16:26:52.177040,599618134792694556,6.00
2025-12-25 16:26:52.177040,599618134792694556,4.00
2025-12-25 16:26:52.177040,599618134792694556,9.00
2025-12-25 16:26:52.177040,599618134792694556,11.00
2025-12-25 16:26:52.177040,599618134792694556,9.00
2025-12-25 16:26:52.177040,599618134792694556,13.00
2025-12-25 16:26:52.177040,599618134792694556,13.00
2025-12-25 16:26:52.177040,599618134792694556,2.00
2025-12-25 16:26:52.177040,599618134792694556,0.00
2025-12-25 16:26:52.177040,599618134792694556,11.00
2025-12-25 16:26:52.177040,599618134792694556,9.00
2025-12-25 16:26:52.177040,599618134792694556,-2.00
2025-12-25 16:26:52.177040,599618134792694556,-2.00
2025-12-25 16:26:52.177040,599618134792694556,-6.00
2025-12-25 16:26:52.177040,599618134792694556,-22.00
2025-12-25 16:26:52.177040,599618134792694556,-36.00
2025-12-25 16:26:52.177040,599618134792694556,-48.00
2025-12-25 16:26:52.177040,599618134792694556,-64.00
2025-12-25 16:26:52.177040,599618134792694556,-66.00
2025-12-25 16:26:52.177040,599618134792694556,-55.00
2025-12-25 16:26:52.177040,599618134792694556,-59.00
2025-12-25 16:26:52.177040,599618134792694556,-68.00
2025-12-25 16:26:52.177040,599618134792694556,-62.00
2025-12-25 16:26:52.177040,599618134792694556,-66.00
2025-12-25 16:26:52.177040,599618134792694556,-64.00
2025-12-25 16:26:52.177040,599618134792694556,-48.00
2025-12-25 16:26:52.177040,599618134792694556,-52.00
2025-12-25 16:26:52.177040,599618134792694556,-62.00
2025-12-25 16:26:52.177040,599618134792694556,-50.00
2025-12-25 16:26:52.177040,599618134792694556,-45.00
2025-12-25 16:26:52.177040,599618134792694556,-52.00
2025-12-25 16:26:52.177040,599618134792694556,-57.00
2025-12-25 16:26:52.177040,599618134792694556,-55.00
2025-12-25 16:26:52.177040,599618134792694556,-48.00
2025-12-25 16:26:52.177040,599618134792694556,-48.00
2025-12-25 16:26:52.177040,599618134792694556,-59.00
2025-12-25 16:26:52.177040,599618134792694556,-62.00
2025-12-25 16:26:52.177040,599618134792694556,-50.00
2025-12-25 16:26:52.177040,599618134792694556,-48.00
2025-12-25 16:26:52.177040,599618134792694556,-43.00
2025-12-25 16:26:52.177040,599618134792694556,-29.00
2025-12-25 16:26:52.177040,599618134792694556,-22.00
2025-12-25 16:26:52.177040,599618134792694556,-20.00
2025-12-25 16:26:52.177040,599618134792694556,-22.00
2025-12-25 16:26:52.177040,599618134792694556,-39.00
2025-12-25 16:26:52.177040,599618134792694556,-50.00
2025-12-25 16:26:52.177040,599618134792694556,-43.00
2025-12-25 16:26:52.177040,599618134792694556,-43.00
2025-12-25 16:26:52.177040,599618134792694556,-48.00
2025-12-25 16:26:52.177040,599618134792694556,-48.00
2025-12-25 16:26:52.177040,599618134792694556,-48.00
2025-12-25 16:26:52.177040,599618134792694556,-48.00
2025-12-25 16:26:52.177040,599618134792694556,-57.00
2025-12-25 16:26:52.177040,599618134792694556,-52.00
2025-12-25 16:26:52.793163,599618135353635745,-45.00
2025-12-25 16:26:52.793163,599618135353635745,-59.00
2025-12-25 16:26:52.793163,599618135353635745,-64.00
2025-12-25 16:26:52.793163,599618135353635745,-34.00
2025-12-25 16:26:52.793163,599618135353635745,66.00
2025-12-25 16:26:52.793163,599618135353635745,245.00
2025-12-25 16:26:52.793163,599618135353635745,262.00
2025-12-25 16:26:52.793163,599618135353635745,-59.00
2025-12-25 16:26:52.793163,599618135353635745,-335.00
2025-12-25 16:26:52.793163,599618135353635745,-280.00
2025-12-25 16:26:52.793163,599618135353635745,-172.00
2025-12-25 16:26:52.793163,599618135353635745,-133.00
2025-12-25 16:26:52.793163,599618135353635745,-57.00
2025-12-25 16:26:52.793163,599618135353635745,-11.00
2025-12-25 16:26:52.793163,599618135353635745,-22.00
2025-12-25 16:26:52.793163,599618135353635745,-20.00
2025-12-25 16:26:52.793163,599618135353635745,-9.00
2025-12-25 16:26:52.793163,599618135353635745,-4.00
2025-12-25 16:26:52.793163,599618135353635745,0.00
2025-12-25 16:26:52.793163,599618135353635745,2.00
2025-12-25 16:26:52.793163,599618135353635745,-6.00
2025-12-25 16:26:52.793163,599618135353635745,-9.00
2025-12-25 16:26:52.793163,599618135353635745,2.00
2025-12-25 16:26:52.793163,599618135353635745,6.00
2025-12-25 16:26:52.793163,599618135353635745,-6.00
2025-12-25 16:26:52.793163,599618135353635745,-6.00
2025-12-25 16:26:52.793163,599618135353635745,9.00
2025-12-25 16:26:52.793163,599618135353635745,13.00
2025-12-25 16:26:52.793163,599618135353635745,2.00
2025-12-25 16:26:52.793163,599618135353635745,-2.00
2025-12-25 16:26:52.793163,599618135353635745,9.00
2025-12-25 16:26:52.793163,599618135353635745,11.00
2025-12-25 16:26:52.793163,599618135353635745,-4.00
2025-12-25 16:26:52.793163,599618135353635745,-11.00
2025-12-25 16:26:52.793163,599618135353635745,-4.00
2025-12-25 16:26:52.793163,599618135353635745,2.00
2025-12-25 16:26:52.793163,599618135353635745,-4.00
2025-12-25 16:26:52.793163,599618135353635745,-11.00
2025-12-25 16:26:52.793163,599618135353635745,-9.00
2025-12-25 16:26:52.793163,599618135353635745,-16.00
2025-12-25 16:26:52.793163,599618135353635745,-34.00
2025-12-25 16:26:52.793163,599618135353635745,-45.00
2025-12-25 16:26:52.793163,599618135353635745,-55.00
2025-12-25 16:26:52.793163,599618135353635745,-68.00
2025-12-25 16:26:52.793163,599618135353635745,-71.00
2025-12-25 16:26:52.793163,599618135353635745,-71.00
2025-12-25 16:26:52.793163,599618135353635745,-75.00
2025-12-25 16:26:52.793163,599618135353635745,-64.00
2025-12-25 16:26:52.793163,599618135353635745,-55.00
2025-12-25 16:26:52.793163,599618135353635745,-64.00
2025-12-25 16:26:52.793163,599618135353635745,-64.00
2025-12-25 16:26:52.793163,599618135353635745,-43.00
2025-12-25 16:26:52.793163,599618135353635745,-48.00
2025-12-25 16:26:52.793163,599618135353635745,-62.00
2025-12-25 16:26:52.793163,599618135353635745,-43.00
2025-12-25 16:26:52.793163,599618135353635745,-29.00
2025-12-25 16:26:52.793163,599618135353635745,-45.00
2025-12-25 16:26:52.793163,599618135353635745,-52.00
2025-12-25 16:26:52.793163,599618135353635745,-41.00
2025-12-25 16:26:52.793163,599618135353635745,-43.00
2025-12-25 16:26:52.793163,599618135353635745,-52.00
2025-12-25 16:26:52.793163,599618135353635745,-43.00
2025-12-25 16:26:52.793163,599618135353635745,-39.00
2025-12-25 16:26:52.793163,599618135353635745,-55.00
2025-12-25 16:26:52.793163,599618135353635745,-59.00
2025-12-25 16:26:52.793163,599618135353635745,-50.00
2025-12-25 16:26:52.793163,599618135353635745,-41.00
2025-12-25 16:26:52.793163,599618135353635745,-32.00
2025-12-25 16:26:52.793163,599618135353635745,-27.00
2025-12-25 16:26:52.793163,599618135353635745,-41.00
2025-12-25 16:26:52.793163,599618135353635745,-48.00
2025-12-25 16:26:52.793163,599618135353635745,-41.00
2025-12-25 16:26:52.793163,599618135353635745,-48.00
2025-12-25 16:26:53.404242,599618135914556584,-64.00
2025-12-25 16:26:53.404242,599618135914556584,-62.00
2025-12-25 16:26:53.404242,599618135914556584,-52.00
2025-12-25 16:26:53.404242,599618135914556584,-52.00
2025-12-25 16:26:53.404242,599618135914556584,-52.00
2025-12-25 16:26:53.404242,599618135914556584,-52.00
2025-12-25 16:26:53.404242,599618135914556584,-50.00
2025-12-25 16:26:53.404242,599618135914556584,-41.00
2025-12-25 16:26:53.404242,599618135914556584,-34.00
2025-12-25 16:26:53.404242,599618135914556584,-32.00
2025-12-25 16:26:53.404242,599618135914556584,9.00
2025-12-25 16:26:53.404242,599618135914556584,163.00
2025-12-25 16:26:53.404242,599618135914556584,301.00
2025-12-25 16:26:53.404242,599618135914556584,128.00
2025-12-25 16:26:53.404242,599618135914556584,-220.00
2025-12-25 16:26:53.404242,599618135914556584,-308.00
2025-12-25 16:26:53.404242,599618135914556584,-202.00
2025-12-25 16:26:53.404242,599618135914556584,-147.00
2025-12-25 16:26:53.404242,599618135914556584,-75.00
2025-12-25 16:26:53.404242,599618135914556584,0.00
2025-12-25 16:26:53.404242,599618135914556584,-9.00
2025-12-25 16:26:53.404242,599618135914556584,-27.00
2025-12-25 16:26:53.404242,599618135914556584,-6.00
2025-12-25 16:26:53.404242,599618135914556584,9.00
2025-12-25 16:26:53.404242,599618135914556584,0.00
2025-12-25 16:26:53.404242,599618135914556584,-4.00
2025-12-25 16:26:53.404242,599618135914556584,2.00
2025-12-25 16:26:53.404242,599618135914556584,0.00
2025-12-25 16:26:53.404242,599618135914556584,-4.00
2025-12-25 16:26:53.404242,599618135914556584,-2.00
2025-12-25 16:26:53.404242,599618135914556584,2.00
2025-12-25 16:26:53.404242,599618135914556584,4.00
2025-12-25 16:26:53.404242,599618135914556584,6.00
2025-12-25 16:26:53.404242,599618135914556584,9.00
2025-12-25 16:26:53.404242,599618135914556584,18.00
2025-12-25 16:26:53.404242,599618135914556584,25.00
2025-12-25 16:26:53.404242,599618135914556584,18.00
2025-12-25 16:26:53.404242,599618135914556584,4.00
2025-12-25 16:26:53.404242,599618135914556584,6.00
2025-12-25 16:26:53.404242,599618135914556584,-6.00
2025-12-25 16:26:53.404242,599618135914556584,-27.00
2025-12-25 16:26:53.404242,599618135914556584,-9.00
2025-12-25 16:26:53.404242,599618135914556584,6.00
2025-12-25 16:26:53.404242,599618135914556584,-2.00
2025-12-25 16:26:53.404242,599618135914556584,4.00
2025-12-25 16:26:53.404242,599618135914556584,0.00
2025-12-25 16:26:53.404242,599618135914556584,-36.00
2025-12-25 16:26:53.404242,599618135914556584,-55.00
2025-12-25 16:26:53.404242,599618135914556584,-39.00
2025-12-25 16:26:53.404242,599618135914556584,-34.00
2025-12-25 16:26:53.404242,599618135914556584,-57.00
2025-12-25 16:26:53.404242,599618135914556584,-64.00
2025-12-25 16:26:53.404242,599618135914556584,-48.00
2025-12-25 16:26:53.404242,599618135914556584,-59.00
2025-12-25 16:26:53.404242,599618135914556584,-78.00
2025-12-25 16:26:53.404242,599618135914556584,-66.00
2025-12-25 16:26:53.404242,599618135914556584,-57.00
2025-12-25 16:26:53.404242,599618135914556584,-59.00
2025-12-25 16:26:53.404242,599618135914556584,-59.00
2025-12-25 16:26:53.404242,599618135914556584,-59.00
2025-12-25 16:26:53.404242,599618135914556584,-66.00
2025-12-25 16:26:53.404242,599618135914556584,-73.00
2025-12-25 16:26:53.404242,599618135914556584,-57.00
2025-12-25 16:26:53.404242,599618135914556584,-55.00
2025-12-25 16:26:53.404242,599618135914556584,-66.00
2025-12-25 16:26:53.404242,599618135914556584,-64.00
2025-12-25 16:26:53.404242,599618135914556584,-71.00
2025-12-25 16:26:53.404242,599618135914556584,-64.00
2025-12-25 16:26:53.404242,599618135914556584,-32.00
2025-12-25 16:26:53.404242,599618135914556584,-27.00
2025-12-25 16:26:53.404242,599618135914556584,-57.00
2025-12-25 16:26:53.404242,599618135914556584,-59.00
2025-12-25 16:26:53.404242,599618135914556584,11.00
2025-12-25 16:26:53.977770,599618136475502855,32.00
2025-12-25 16:26:53.977770,599618136475502855,-68.00
2025-12-25 16:26:53.977770,599618136475502855,-85.00
2025-12-25 16:26:53.977770,599618136475502855,-6.00
2025-12-25 16:26:53.977770,599618136475502855,-32.00
2025-12-25 16:26:53.977770,599618136475502855,-82.00
2025-12-25 16:26:53.977770,599618136475502855,-52.00
2025-12-25 16:26:53.977770,599618136475502855,-29.00
2025-12-25 16:26:53.977770,599618136475502855,-52.00
2025-12-25 16:26:53.977770,599618136475502855,-64.00
2025-12-25 16:26:53.977770,599618136475502855,-50.00
2025-12-25 16:26:53.977770,599618136475502855,-25.00
2025-12-25 16:26:53.977770,599618136475502855,-11.00
2025-12-25 16:26:53.977770,599618136475502855,-34.00
2025-12-25 16:26:53.977770,599618136475502855,-59.00
2025-12-25 16:26:53.977770,599618136475502855,-22.00
2025-12-25 16:26:53.977770,599618136475502855,117.00
2025-12-25 16:26:53.977770,599618136475502855,291.00
2025-12-25 16:26:53.977770,599618136475502855,227.00
2025-12-25 16:26:53.977770,599618136475502855,-114.00
2025-12-25 16:26:53.977770,599618136475502855,-308.00
2025-12-25 16:26:53.977770,599618136475502855,-225.00
2025-12-25 16:26:53.977770,599618136475502855,-140.00
2025-12-25 16:26:53.977770,599618136475502855,-80.00
2025-12-25 16:26:53.977770,599618136475502855,13.00
2025-12-25 16:26:53.977770,599618136475502855,50.00
2025-12-25 16:26:53.977770,599618136475502855,27.00
2025-12-25 16:26:53.977770,599618136475502855,22.00
2025-12-25 16:26:53.977770,599618136475502855,32.00
2025-12-25 16:26:53.977770,599618136475502855,29.00
2025-12-25 16:26:53.977770,599618136475502855,25.00
2025-12-25 16:26:53.977770,599618136475502855,36.00
2025-12-25 16:26:53.977770,599618136475502855,55.00
2025-12-25 16:26:53.977770,599618136475502855,39.00
2025-12-25 16:26:53.977770,599618136475502855,9.00
2025-12-25 16:26:53.977770,599618136475502855,18.00
2025-12-25 16:26:53.977770,599618136475502855,57.00
2025-12-25 16:26:53.977770,599618136475502855,50.00
2025-12-25 16:26:53.977770,599618136475502855,22.00
2025-12-25 16:26:53.977770,599618136475502855,32.00
2025-12-25 16:26:53.977770,599618136475502855,39.00
2025-12-25 16:26:53.977770,599618136475502855,22.00
2025-12-25 16:26:53.977770,599618136475502855,25.00
2025-12-25 16:26:53.977770,599618136475502855,39.00
2025-12-25 16:26:53.977770,599618136475502855,29.00
2025-12-25 16:26:53.977770,599618136475502855,13.00
2025-12-25 16:26:53.977770,599618136475502855,13.00
2025-12-25 16:26:53.977770,599618136475502855,9.00
2025-12-25 16:26:53.977770,599618136475502855,2.00
2025-12-25 16:26:53.977770,599618136475502855,2.00
2025-12-25 16:26:53.977770,599618136475502855,2.00
2025-12-25 16:26:53.977770,599618136475502855,-9.00
2025-12-25 16:26:53.977770,599618136475502855,-22.00
2025-12-25 16:26:53.977770,599618136475502855,-25.00
2025-12-25 16:26:53.977770,599618136475502855,-18.00
2025-12-25 16:26:53.977770,599618136475502855,-32.00
2025-12-25 16:26:53.977770,599618136475502855,-59.00
2025-12-25 16:26:53.977770,599618136475502855,-64.00
2025-12-25 16:26:53.977770,599618136475502855,-55.00
2025-12-25 16:26:53.977770,599618136475502855,-43.00
2025-12-25 16:26:53.977770,599618136475502855,-32.00
2025-12-25 16:26:53.977770,599618136475502855,-43.00
2025-12-25 16:26:53.977770,599618136475502855,-66.00
2025-12-25 16:26:53.977770,599618136475502855,-59.00
2025-12-25 16:26:53.977770,599618136475502855,-25.00
2025-12-25 16:26:53.977770,599618136475502855,-34.00
2025-12-25 16:26:53.977770,599618136475502855,-80.00
2025-12-25 16:26:53.977770,599618136475502855,-68.00
2025-12-25 16:26:53.977770,599618136475502855,-27.00
2025-12-25 16:26:53.977770,599618136475502855,-45.00
2025-12-25 16:26:53.977770,599618136475502855,-75.00
2025-12-25 16:26:53.977770,599618136475502855,-45.00
2025-12-25 16:26:53.977770,599618136475502855,-32.00
2025-12-25 16:26:54.397976,599618137036449126,-73.00
2025-12-25 16:26:54.397976,599618137036449126,-75.00
2025-12-25 16:26:54.397976,599618137036449126,-27.00
2025-12-25 16:26:54.397976,599618137036449126,-9.00
2025-12-25 16:26:54.397976,599618137036449126,-39.00
2025-12-25 16:26:54.397976,599618137036449126,-55.00
2025-12-25 16:26:54.397976,599618137036449126,-45.00
2025-12-25 16:26:54.397976,599618137036449126,-39.00
2025-12-25 16:26:54.397976,599618137036449126,-50.00
2025-12-25 16:26:54.397976,599618137036449126,-55.00
2025-12-25 16:26:54.397976,599618137036449126,-36.00
2025-12-25 16:26:54.397976,599618137036449126,-22.00
2025-12-25 16:26:54.397976,599618137036449126,-32.00
2025-12-25 16:26:54.397976,599618137036449126,-41.00
2025-12-25 16:26:54.397976,599618137036449126,-52.00
2025-12-25 16:26:54.397976,599618137036449126,-59.00
2025-12-25 16:26:54.397976,599618137036449126,-59.00
2025-12-25 16:26:54.397976,599618137036449126,-50.00
2025-12-25 16:26:54.397976,599618137036449126,-34.00
2025-12-25 16:26:54.397976,599618137036449126,6.00
2025-12-25 16:26:54.397976,599618137036449126,167.00
2025-12-25 16:26:54.397976,599618137036449126,314.00
2025-12-25 16:26:54.397976,599618137036449126,112.00
2025-12-25 16:26:54.397976,599618137036449126,-264.00
2025-12-25 16:26:54.397976,599618137036449126,-333.00
2025-12-25 16:26:54.397976,599618137036449126,-211.00
2025-12-25 16:26:54.397976,599618137036449126,-181.00
2025-12-25 16:26:54.397976,599618137036449126,-137.00
2025-12-25 16:26:54.397976,599618137036449126,-34.00
2025-12-25 16:26:54.397976,599618137036449126,-13.00
2025-12-25 16:26:54.397976,599618137036449126,-34.00
2025-12-25 16:26:54.397976,599618137036449126,-20.00
2025-12-25 16:26:54.397976,599618137036449126,-9.00
2025-12-25 16:26:54.397976,599618137036449126,-20.00
2025-12-25 16:26:54.397976,599618137036449126,-22.00
2025-12-25 16:26:54.397976,599618137036449126,-9.00
2025-12-25 16:26:54.397976,599618137036449126,-4.00
2025-12-25 16:26:54.397976,599618137036449126,-18.00
2025-12-25 16:26:54.397976,599618137036449126,-25.00
2025-12-25 16:26:54.397976,599618137036449126,-18.00
2025-12-25 16:26:54.397976,599618137036449126,-18.00
2025-12-25 16:26:54.397976,599618137036449126,-13.00
2025-12-25 16:26:54.397976,599618137036449126,-2.00
2025-12-25 16:26:54.397976,599618137036449126,0.00
2025-12-25 16:26:54.397976,599618137036449126,-6.00
2025-12-25 16:26:54.397976,599618137036449126,-6.00
2025-12-25 16:26:54.397976,599618137036449126,-2.00
2025-12-25 16:26:54.397976,599618137036449126,-4.00
2025-12-25 16:26:54.397976,599618137036449126,-20.00
2025-12-25 16:26:54.397976,599618137036449126,-27.00
2025-12-25 16:26:54.397976,599618137036449126,-22.00
2025-12-25 16:26:54.397976,599618137036449126,-20.00
2025-12-25 16:26:54.397976,599618137036449126,-32.00
2025-12-25 16:26:54.397976,599618137036449126,-43.00
2025-12-25 16:26:54.397976,599618137036449126,-45.00
2025-12-25 16:26:54.397976,599618137036449126,-48.00
2025-12-25 16:26:54.397976,599618137036449126,-64.00
2025-12-25 16:26:54.397976,599618137036449126,-75.00
2025-12-25 16:26:54.397976,599618137036449126,-80.00
2025-12-25 16:26:54.397976,599618137036449126,-85.00
2025-12-25 16:26:54.397976,599618137036449126,-85.00
2025-12-25 16:26:54.397976,599618137036449126,-82.00
2025-12-25 16:26:54.397976,599618137036449126,-85.00
2025-12-25 16:26:54.397976,599618137036449126,-91.00
2025-12-25 16:26:54.397976,599618137036449126,-94.00
2025-12-25 16:26:54.397976,599618137036449126,-91.00
2025-12-25 16:26:54.397976,599618137036449126,-89.00
2025-12-25 16:26:54.397976,599618137036449126,-82.00
2025-12-25 16:26:54.397976,599618137036449126,-78.00
2025-12-25 16:26:54.397976,599618137036449126,-80.00
2025-12-25 16:26:54.397976,599618137036449126,-82.00
2025-12-25 16:26:54.397976,599618137036449126,-82.00
2025-12-25 16:26:54.397976,599618137036449126,-82.00
2025-12-25 16:26:55.055719,599618137597369967,-85.00
2025-12-25 16:26:55.055719,599618137597369967,-85.00
2025-12-25 16:26:55.055719,599618137597369967,-85.00
2025-12-25 16:26:55.055719,599618137597369967,-87.00
2025-12-25 16:26:55.055719,599618137597369967,-87.00
2025-12-25 16:26:55.055719,599618137597369967,-75.00
2025-12-25 16:26:55.055719,599618137597369967,-50.00
2025-12-25 16:26:55.055719,599618137597369967,-32.00
2025-12-25 16:26:55.055719,599618137597369967,-34.00
2025-12-25 16:26:55.055719,599618137597369967,-36.00
2025-12-25 16:26:55.055719,599618137597369967,-43.00
2025-12-25 16:26:55.055719,599618137597369967,-45.00
2025-12-25 16:26:55.055719,599618137597369967,-45.00
2025-12-25 16:26:55.055719,599618137597369967,-55.00
2025-12-25 16:26:55.055719,599618137597369967,-57.00
2025-12-25 16:26:55.055719,599618137597369967,-48.00
2025-12-25 16:26:55.055719,599618137597369967,-45.00
2025-12-25 16:26:55.055719,599618137597369967,-50.00
2025-12-25 16:26:55.055719,599618137597369967,-48.00
2025-12-25 16:26:55.055719,599618137597369967,-43.00
2025-12-25 16:26:55.055719,599618137597369967,-43.00
2025-12-25 16:26:55.055719,599618137597369967,-45.00
2025-12-25 16:26:55.055719,599618137597369967,-36.00
2025-12-25 16:26:55.055719,599618137597369967,50.00
2025-12-25 16:26:55.055719,599618137597369967,243.00
2025-12-25 16:26:55.055719,599618137597369967,291.00
2025-12-25 16:26:55.055719,599618137597369967,-22.00
2025-12-25 16:26:55.055719,599618137597369967,-335.00
2025-12-25 16:26:55.055719,599618137597369967,-298.00
2025-12-25 16:26:55.055719,599618137597369967,-193.00
2025-12-25 16:26:55.055719,599618137597369967,-177.00
2025-12-25 16:26:55.055719,599618137597369967,-101.00
2025-12-25 16:26:55.055719,599618137597369967,-25.00
2025-12-25 16:26:55.055719,599618137597369967,-29.00
2025-12-25 16:26:55.055719,599618137597369967,-39.00
2025-12-25 16:26:55.055719,599618137597369967,-22.00
2025-12-25 16:26:55.055719,599618137597369967,-18.00
2025-12-25 16:26:55.055719,599618137597369967,-20.00
2025-12-25 16:26:55.055719,599618137597369967,-16.00
2025-12-25 16:26:55.055719,599618137597369967,-16.00
2025-12-25 16:26:55.055719,599618137597369967,-20.00
2025-12-25 16:26:55.055719,599618137597369967,-16.00
2025-12-25 16:26:55.055719,599618137597369967,-4.00
2025-12-25 16:26:55.055719,599618137597369967,0.00
2025-12-25 16:26:55.055719,599618137597369967,-2.00
2025-12-25 16:26:55.055719,599618137597369967,0.00
2025-12-25 16:26:55.055719,599618137597369967,6.00
2025-12-25 16:26:55.055719,599618137597369967,13.00
2025-12-25 16:26:55.055719,599618137597369967,9.00
2025-12-25 16:26:55.055719,599618137597369967,0.00
2025-12-25 16:26:55.055719,599618137597369967,-4.00
2025-12-25 16:26:55.055719,599618137597369967,-6.00
2025-12-25 16:26:55.055719,599618137597369967,-9.00
2025-12-25 16:26:55.055719,599618137597369967,-9.00
2025-12-25 16:26:55.055719,599618137597369967,-11.00
2025-12-25 16:26:55.055719,599618137597369967,-11.00
2025-12-25 16:26:55.055719,599618137597369967,-13.00
2025-12-25 16:26:55.055719,599618137597369967,-32.00
2025-12-25 16:26:55.055719,599618137597369967,-45.00
2025-12-25 16:26:55.055719,599618137597369967,-52.00
2025-12-25 16:26:55.055719,599618137597369967,-64.00
2025-12-25 16:26:55.055719,599618137597369967,-75.00
2025-12-25 16:26:55.055719,599618137597369967,-85.00
2025-12-25 16:26:55.055719,599618137597369967,-87.00
2025-12-25 16:26:55.055719,599618137597369967,-82.00
2025-12-25 16:26:55.055719,599618137597369967,-80.00
2025-12-25 16:26:55.055719,599618137597369967,-85.00
2025-12-25 16:26:55.055719,599618137597369967,-85.00
2025-12-25 16:26:55.055719,599618137597369967,-82.00
2025-12-25 16:26:55.055719,599618137597369967,-80.00
2025-12-25 16:26:55.055719,599618137597369967,-78.00
2025-12-25 16:26:55.055719,599618137597369967,-71.00
2025-12-25 16:26:55.055719,599618137597369967,-71.00
2025-12-25 16:26:55.570611,599618138158311150,-75.00
2025-12-25 16:26:55.570611,599618138158311150,-82.00
2025-12-25 16:26:55.570611,599618138158311150,-78.00
2025-12-25 16:26:55.570611,599618138158311150,-64.00
2025-12-25 16:26:55.570611,599618138158311150,-59.00
2025-12-25 16:26:55.570611,599618138158311150,-66.00
2025-12-25 16:26:55.570611,599618138158311150,-73.00
2025-12-25 16:26:55.570611,599618138158311150,-82.00
2025-12-25 16:26:55.570611,599618138158311150,-78.00
2025-12-25 16:26:55.570611,599618138158311150,-62.00
2025-12-25 16:26:55.570611,599618138158311150,-45.00
2025-12-25 16:26:55.570611,599618138158311150,-39.00
2025-12-25 16:26:55.570611,599618138158311150,-32.00
2025-12-25 16:26:55.570611,599618138158311150,-25.00
2025-12-25 16:26:55.570611,599618138158311150,-25.00
2025-12-25 16:26:55.570611,599618138158311150,-20.00
2025-12-25 16:26:55.570611,599618138158311150,-16.00
2025-12-25 16:26:55.570611,599618138158311150,-22.00
2025-12-25 16:26:55.570611,599618138158311150,-27.00
2025-12-25 16:26:55.570611,599618138158311150,-22.00
2025-12-25 16:26:55.570611,599618138158311150,-22.00
2025-12-25 16:26:55.570611,599618138158311150,-25.00
2025-12-25 16:26:55.570611,599618138158311150,-22.00
2025-12-25 16:26:55.570611,599618138158311150,-22.00
2025-12-25 16:26:55.570611,599618138158311150,-32.00
2025-12-25 16:26:55.570611,599618138158311150,-39.00
2025-12-25 16:26:55.570611,599618138158311150,-34.00
2025-12-25 16:26:55.570611,599618138158311150,18.00
2025-12-25 16:26:55.570611,599618138158311150,172.00
2025-12-25 16:26:55.570611,599618138158311150,312.00
2025-12-25 16:26:55.570611,599618138158311150,133.00
2025-12-25 16:26:55.570611,599618138158311150,-250.00
2025-12-25 16:26:55.570611,599618138158311150,-351.00
2025-12-25 16:26:55.570611,599618138158311150,-218.00
2025-12-25 16:26:55.570611,599618138158311150,-165.00
2025-12-25 16:26:55.570611,599618138158311150,-124.00
2025-12-25 16:26:55.570611,599618138158311150,-39.00
2025-12-25 16:26:55.570611,599618138158311150,-20.00
2025-12-25 16:26:55.570611,599618138158311150,-34.00
2025-12-25 16:26:55.570611,599618138158311150,-13.00
2025-12-25 16:26:55.570611,599618138158311150,-2.00
2025-12-25 16:26:55.570611,599618138158311150,-20.00
2025-12-25 16:26:55.570611,599618138158311150,-27.00
2025-12-25 16:26:55.570611,599618138158311150,-16.00
2025-12-25 16:26:55.570611,599618138158311150,-9.00
2025-12-25 16:26:55.570611,599618138158311150,-13.00
2025-12-25 16:26:55.570611,599618138158311150,-9.00
2025-12-25 16:26:55.570611,599618138158311150,-4.00
2025-12-25 16:26:55.570611,599618138158311150,-11.00
2025-12-25 16:26:55.570611,599618138158311150,-13.00
2025-12-25 16:26:55.570611,599618138158311150,2.00
2025-12-25 16:26:55.570611,599618138158311150,9.00
2025-12-25 16:26:55.570611,599618138158311150,0.00
2025-12-25 16:26:55.570611,599618138158311150,-4.00
2025-12-25 16:26:55.570611,599618138158311150,-2.00
2025-12-25 16:26:55.570611,599618138158311150,0.00
2025-12-25 16:26:55.570611,599618138158311150,2.00
2025-12-25 16:26:55.570611,599618138158311150,-2.00
2025-12-25 16:26:55.570611,599618138158311150,-11.00
2025-12-25 16:26:55.570611,599618138158311150,-18.00
2025-12-25 16:26:55.570611,599618138158311150,-27.00
2025-12-25 16:26:55.570611,599618138158311150,-32.00
2025-12-25 16:26:55.570611,599618138158311150,-34.00
2025-12-25 16:26:55.570611,599618138158311150,-45.00
2025-12-25 16:26:55.570611,599618138158311150,-66.00
2025-12-25 16:26:55.570611,599618138158311150,-75.00
2025-12-25 16:26:55.570611,599618138158311150,-82.00
2025-12-25 16:26:55.570611,599618138158311150,-89.00
2025-12-25 16:26:55.570611,599618138158311150,-87.00
2025-12-25 16:26:55.570611,599618138158311150,-82.00
2025-12-25 16:26:55.570611,599618138158311150,-85.00
2025-12-25 16:26:55.570611,599618138158311150,-87.00
2025-12-25 16:26:55.570611,599618138158311150,-85.00
2025-12-25 16:26:56.182290,599618138719257425,-78.00
2025-12-25 16:26:56.182290,599618138719257425,-71.00
2025-12-25 16:26:56.182290,599618138719257425,-64.00
2025-12-25 16:26:56.182290,599618138719257425,-59.00
2025-12-25 16:26:56.182290,599618138719257425,-64.00
2025-12-25 16:26:56.182290,599618138719257425,-68.00
2025-12-25 16:26:56.182290,599618138719257425,-57.00
2025-12-25 16:26:56.182290,599618138719257425,-41.00
2025-12-25 16:26:56.182290,599618138719257425,-41.00
2025-12-25 16:26:56.182290,599618138719257425,-48.00
2025-12-25 16:26:56.182290,599618138719257425,-48.00
2025-12-25 16:26:56.182290,599618138719257425,-52.00
2025-12-25 16:26:56.182290,599618138719257425,-50.00
2025-12-25 16:26:56.182290,599618138719257425,-39.00
2025-12-25 16:26:56.182290,599618138719257425,-34.00
2025-12-25 16:26:56.182290,599618138719257425,-32.00
2025-12-25 16:26:56.182290,599618138719257425,-22.00
2025-12-25 16:26:56.182290,599618138719257425,-16.00
2025-12-25 16:26:56.182290,599618138719257425,-18.00
2025-12-25 16:26:56.182290,599618138719257425,-29.00
2025-12-25 16:26:56.182290,599618138719257425,-43.00
2025-12-25 16:26:56.182290,599618138719257425,-41.00
2025-12-25 16:26:56.182290,599618138719257425,-29.00
2025-12-25 16:26:56.182290,599618138719257425,-32.00
2025-12-25 16:26:56.182290,599618138719257425,-34.00
2025-12-25 16:26:56.182290,599618138719257425,-32.00
2025-12-25 16:26:56.182290,599618138719257425,-32.00
2025-12-25 16:26:56.182290,599618138719257425,-34.00
2025-12-25 16:26:56.182290,599618138719257425,-27.00
2025-12-25 16:26:56.182290,599618138719257425,-20.00
2025-12-25 16:26:56.182290,599618138719257425,-25.00
2025-12-25 16:26:56.182290,599618138719257425,-29.00
2025-12-25 16:26:56.182290,599618138719257425,-9.00
2025-12-25 16:26:56.182290,599618138719257425,112.00
2025-12-25 16:26:56.182290,599618138719257425,296.00
2025-12-25 16:26:56.182290,599618138719257425,225.00
2025-12-25 16:26:56.182290,599618138719257425,-163.00
2025-12-25 16:26:56.182290,599618138719257425,-372.00
2025-12-25 16:26:56.182290,599618138719257425,-259.00
2025-12-25 16:26:56.182290,599618138719257425,-181.00
2025-12-25 16:26:56.182290,599618138719257425,-151.00
2025-12-25 16:26:56.182290,599618138719257425,-55.00
2025-12-25 16:26:56.182290,599618138719257425,-11.00
2025-12-25 16:26:56.182290,599618138719257425,-36.00
2025-12-25 16:26:56.182290,599618138719257425,-27.00
2025-12-25 16:26:56.182290,599618138719257425,-6.00
2025-12-25 16:26:56.182290,599618138719257425,-13.00
2025-12-25 16:26:56.182290,599618138719257425,-16.00
2025-12-25 16:26:56.182290,599618138719257425,-9.00
2025-12-25 16:26:56.182290,599618138719257425,-9.00
2025-12-25 16:26:56.182290,599618138719257425,-9.00
2025-12-25 16:26:56.182290,599618138719257425,-6.00
2025-12-25 16:26:56.182290,599618138719257425,-9.00
2025-12-25 16:26:56.182290,599618138719257425,-2.00
2025-12-25 16:26:56.182290,599618138719257425,6.00
2025-12-25 16:26:56.182290,599618138719257425,2.00
2025-12-25 16:26:56.182290,599618138719257425,2.00
2025-12-25 16:26:56.182290,599618138719257425,16.00
2025-12-25 16:26:56.182290,599618138719257425,20.00
2025-12-25 16:26:56.182290,599618138719257425,22.00
2025-12-25 16:26:56.182290,599618138719257425,22.00
2025-12-25 16:26:56.182290,599618138719257425,16.00
2025-12-25 16:26:56.182290,599618138719257425,11.00
2025-12-25 16:26:56.182290,599618138719257425,9.00
2025-12-25 16:26:56.182290,599618138719257425,4.00
2025-12-25 16:26:56.182290,599618138719257425,4.00
2025-12-25 16:26:56.182290,599618138719257425,-2.00
2025-12-25 16:26:56.182290,599618138719257425,-22.00
2025-12-25 16:26:56.182290,599618138719257425,-39.00
2025-12-25 16:26:56.182290,599618138719257425,-50.00
2025-12-25 16:26:56.182290,599618138719257425,-64.00
2025-12-25 16:26:56.182290,599618138719257425,-66.00
2025-12-25 16:26:56.182290,599618138719257425,-66.00
2025-12-25 16:26:56.791346,599618139280193524,-75.00
2025-12-25 16:26:56.791346,599618139280193524,-85.00
2025-12-25 16:26:56.791346,599618139280193524,-82.00
2025-12-25 16:26:56.791346,599618139280193524,-80.00
2025-12-25 16:26:56.791346,599618139280193524,-75.00
2025-12-25 16:26:56.791346,599618139280193524,-73.00
2025-12-25 16:26:56.791346,599618139280193524,-71.00
2025-12-25 16:26:56.791346,599618139280193524,-66.00
2025-12-25 16:26:56.791346,599618139280193524,-59.00
2025-12-25 16:26:56.791346,599618139280193524,-52.00
2025-12-25 16:26:56.791346,599618139280193524,-48.00
2025-12-25 16:26:56.791346,599618139280193524,-48.00
2025-12-25 16:26:56.791346,599618139280193524,-48.00
2025-12-25 16:26:56.791346,599618139280193524,-45.00
2025-12-25 16:26:56.791346,599618139280193524,-45.00
2025-12-25 16:26:56.791346,599618139280193524,-48.00
2025-12-25 16:26:56.791346,599618139280193524,-52.00
2025-12-25 16:26:56.791346,599618139280193524,-52.00
2025-12-25 16:26:56.791346,599618139280193524,-50.00
2025-12-25 16:26:56.791346,599618139280193524,-52.00
2025-12-25 16:26:56.791346,599618139280193524,-48.00
2025-12-25 16:26:56.791346,599618139280193524,-39.00
2025-12-25 16:26:56.791346,599618139280193524,-29.00
2025-12-25 16:26:56.791346,599618139280193524,-25.00
2025-12-25 16:26:56.791346,599618139280193524,-13.00
2025-12-25 16:26:56.791346,599618139280193524,-4.00
2025-12-25 16:26:56.791346,599618139280193524,-11.00
2025-12-25 16:26:56.791346,599618139280193524,-20.00
2025-12-25 16:26:56.791346,599618139280193524,-29.00
2025-12-25 16:26:56.791346,599618139280193524,-32.00
2025-12-25 16:26:56.791346,599618139280193524,-32.00
2025-12-25 16:26:56.791346,599618139280193524,-29.00
2025-12-25 16:26:56.791346,599618139280193524,-27.00
2025-12-25 16:26:56.791346,599618139280193524,-25.00
2025-12-25 16:26:56.791346,599618139280193524,-22.00
2025-12-25 16:26:56.791346,599618139280193524,-27.00
2025-12-25 16:26:56.791346,599618139280193524,-34.00
2025-12-25 16:26:56.791346,599618139280193524,-32.00
2025-12-25 16:26:56.791346,599618139280193524,-25.00
2025-12-25 16:26:56.791346,599618139280193524,-18.00
2025-12-25 16:26:56.791346,599618139280193524,29.00
2025-12-25 16:26:56.791346,599618139280193524,193.00
2025-12-25 16:26:56.791346,599618139280193524,333.00
2025-12-25 16:26:56.791346,599618139280193524,121.00
2025-12-25 16:26:56.791346,599618139280193524,-271.00
2025-12-25 16:26:56.791346,599618139280193524,-342.00
2025-12-25 16:26:56.791346,599618139280193524,-200.00
2025-12-25 16:26:56.791346,599618139280193524,-156.00
2025-12-25 16:26:56.791346,599618139280193524,-105.00
2025-12-25 16:26:56.791346,599618139280193524,-13.00
2025-12-25 16:26:56.791346,599618139280193524,2.00
2025-12-25 16:26:56.791346,599618139280193524,-11.00
2025-12-25 16:26:56.791346,599618139280193524,2.00
2025-12-25 16:26:56.791346,599618139280193524,11.00
2025-12-25 16:26:56.791346,599618139280193524,4.00
2025-12-25 16:26:56.791346,599618139280193524,6.00
2025-12-25 16:26:56.791346,599618139280193524,16.00
2025-12-25 16:26:56.791346,599618139280193524,16.00
2025-12-25 16:26:56.791346,599618139280193524,6.00
2025-12-25 16:26:56.791346,599618139280193524,6.00
2025-12-25 16:26:56.791346,599618139280193524,11.00
2025-12-25 16:26:56.791346,599618139280193524,16.00
2025-12-25 16:26:56.791346,599618139280193524,25.00
2025-12-25 16:26:56.791346,599618139280193524,32.00
2025-12-25 16:26:56.791346,599618139280193524,36.00
2025-12-25 16:26:56.791346,599618139280193524,39.00
2025-12-25 16:26:56.791346,599618139280193524,41.00
2025-12-25 16:26:56.791346,599618139280193524,43.00
2025-12-25 16:26:56.791346,599618139280193524,45.00
2025-12-25 16:26:56.791346,599618139280193524,45.00
2025-12-25 16:26:56.791346,599618139280193524,36.00
2025-12-25 16:26:56.791346,599618139280193524,29.00
2025-12-25 16:26:56.791346,599618139280193524,25.00
2025-12-25 16:26:57.298850,599618139841134709,18.00
2025-12-25 16:26:57.298850,599618139841134709,9.00
2025-12-25 16:26:57.298850,599618139841134709,-4.00
2025-12-25 16:26:57.298850,599618139841134709,-22.00
2025-12-25 16:26:57.298850,599618139841134709,-34.00
2025-12-25 16:26:57.298850,599618139841134709,-43.00
2025-12-25 16:26:57.298850,599618139841134709,-55.00
2025-12-25 16:26:57.298850,599618139841134709,-64.00
2025-12-25 16:26:57.298850,599618139841134709,-62.00
2025-12-25 16:26:57.298850,599618139841134709,-57.00
2025-12-25 16:26:57.298850,599618139841134709,-64.00
2025-12-25 16:26:57.298850,599618139841134709,-62.00
2025-12-25 16:26:57.298850,599618139841134709,-43.00
2025-12-25 16:26:57.298850,599618139841134709,-27.00
2025-12-25 16:26:57.298850,599618139841134709,-27.00
2025-12-25 16:26:57.298850,599618139841134709,-34.00
2025-12-25 16:26:57.298850,599618139841134709,-32.00
2025-12-25 16:26:57.298850,599618139841134709,-29.00
2025-12-25 16:26:57.298850,599618139841134709,-25.00
2025-12-25 16:26:57.298850,599618139841134709,-13.00
2025-12-25 16:26:57.298850,599618139841134709,-6.00
2025-12-25 16:26:57.298850,599618139841134709,-13.00
2025-12-25 16:26:57.298850,599618139841134709,-16.00
2025-12-25 16:26:57.298850,599618139841134709,-16.00
2025-12-25 16:26:57.298850,599618139841134709,-22.00
2025-12-25 16:26:57.298850,599618139841134709,-27.00
2025-12-25 16:26:57.298850,599618139841134709,-27.00
2025-12-25 16:26:57.298850,599618139841134709,-25.00
2025-12-25 16:26:57.298850,599618139841134709,-25.00
2025-12-25 16:26:57.298850,599618139841134709,-29.00
2025-12-25 16:26:57.298850,599618139841134709,-29.00
2025-12-25 16:26:57.298850,599618139841134709,-20.00
2025-12-25 16:26:57.298850,599618139841134709,-20.00
2025-12-25 16:26:57.298850,599618139841134709,-18.00
2025-12-25 16:26:57.298850,599618139841134709,-6.00
2025-12-25 16:26:57.298850,599618139841134709,0.00
2025-12-25 16:26:57.298850,599618139841134709,-9.00
2025-12-25 16:26:57.298850,599618139841134709,-20.00
2025-12-25 16:26:57.298850,599618139841134709,-22.00
2025-12-25 16:26:57.298850,599618139841134709,-18.00
2025-12-25 16:26:57.298850,599618139841134709,-18.00
2025-12-25 16:26:57.298850,599618139841134709,-20.00
2025-12-25 16:26:57.298850,599618139841134709,-20.00
2025-12-25 16:26:57.298850,599618139841134709,-16.00
2025-12-25 16:26:57.298850,599618139841134709,-13.00
2025-12-25 16:26:57.298850,599618139841134709,-16.00
2025-12-25 16:26:57.298850,599618139841134709,-18.00
2025-12-25 16:26:57.298850,599618139841134709,-18.00
2025-12-25 16:26:57.298850,599618139841134709,-16.00
2025-12-25 16:26:57.298850,599618139841134709,-25.00
2025-12-25 16:26:57.298850,599618139841134709,-22.00
2025-12-25 16:26:57.298850,599618139841134709,66.00
2025-12-25 16:26:57.298850,599618139841134709,255.00
2025-12-25 16:26:57.298850,599618139841134709,331.00
2025-12-25 16:26:57.298850,599618139841134709,41.00
2025-12-25 16:26:57.298850,599618139841134709,-317.00
2025-12-25 16:26:57.298850,599618139841134709,-314.00
2025-12-25 16:26:57.298850,599618139841134709,-170.00
2025-12-25 16:26:57.298850,599618139841134709,-131.00
2025-12-25 16:26:57.298850,599618139841134709,-68.00
2025-12-25 16:26:57.298850,599618139841134709,2.00
2025-12-25 16:26:57.298850,599618139841134709,-2.00
2025-12-25 16:26:57.298850,599618139841134709,-9.00
2025-12-25 16:26:57.298850,599618139841134709,6.00
2025-12-25 16:26:57.298850,599618139841134709,9.00
2025-12-25 16:26:57.298850,599618139841134709,4.00
2025-12-25 16:26:57.298850,599618139841134709,11.00
2025-12-25 16:26:57.298850,599618139841134709,11.00
2025-12-25 16:26:57.298850,599618139841134709,9.00
2025-12-25 16:26:57.298850,599618139841134709,13.00
2025-12-25 16:26:57.298850,599618139841134709,18.00
2025-12-25 16:26:57.298850,599618139841134709,18.00
2025-12-25 16:26:57.298850,599618139841134709,22.00
2025-12-25 16:26:57.810270,599618140402065720,27.00
2025-12-25 16:26:57.810270,599618140402065720,25.00
2025-12-25 16:26:57.810270,599618140402065720,25.00
2025-12-25 16:26:57.810270,599618140402065720,32.00
2025-12-25 16:26:57.810270,599618140402065720,43.00
2025-12-25 16:26:57.810270,599618140402065720,43.00
2025-12-25 16:26:57.810270,599618140402065720,41.00
2025-12-25 16:26:57.810270,599618140402065720,36.00
2025-12-25 16:26:57.810270,599618140402065720,29.00
2025-12-25 16:26:57.810270,599618140402065720,27.00
2025-12-25 16:26:57.810270,599618140402065720,39.00
2025-12-25 16:26:57.810270,599618140402065720,41.00
2025-12-25 16:26:57.810270,599618140402065720,18.00
2025-12-25 16:26:57.810270,599618140402065720,0.00
2025-12-25 16:26:57.810270,599618140402065720,-4.00
2025-12-25 16:26:57.810270,599618140402065720,-6.00
2025-12-25 16:26:57.810270,599618140402065720,-9.00
2025-12-25 16:26:57.810270,599618140402065720,-13.00
2025-12-25 16:26:57.810270,599618140402065720,-25.00
2025-12-25 16:26:57.810270,599618140402065720,-29.00
2025-12-25 16:26:57.810270,599618140402065720,-29.00
2025-12-25 16:26:57.810270,599618140402065720,-34.00
2025-12-25 16:26:57.810270,599618140402065720,-39.00
2025-12-25 16:26:57.810270,599618140402065720,-39.00
2025-12-25 16:26:57.810270,599618140402065720,-34.00
2025-12-25 16:26:57.810270,599618140402065720,-34.00
2025-12-25 16:26:57.810270,599618140402065720,-39.00
2025-12-25 16:26:57.810270,599618140402065720,-36.00
2025-12-25 16:26:57.810270,599618140402065720,-32.00
2025-12-25 16:26:57.810270,599618140402065720,-39.00
2025-12-25 16:26:57.810270,599618140402065720,-39.00
2025-12-25 16:26:57.810270,599618140402065720,-27.00
2025-12-25 16:26:57.810270,599618140402065720,-20.00
2025-12-25 16:26:57.810270,599618140402065720,-22.00
2025-12-25 16:26:57.810270,599618140402065720,-25.00
2025-12-25 16:26:57.810270,599618140402065720,-27.00
2025-12-25 16:26:57.810270,599618140402065720,-22.00
2025-12-25 16:26:57.810270,599618140402065720,-20.00
2025-12-25 16:26:57.810270,599618140402065720,-22.00
2025-12-25 16:26:57.810270,599618140402065720,-27.00
2025-12-25 16:26:57.810270,599618140402065720,-32.00
2025-12-25 16:26:57.810270,599618140402065720,-29.00
2025-12-25 16:26:57.810270,599618140402065720,-25.00
2025-12-25 16:26:57.810270,599618140402065720,-32.00
2025-12-25 16:26:57.810270,599618140402065720,-43.00
2025-12-25 16:26:57.810270,599618140402065720,-39.00
2025-12-25 16:26:57.810270,599618140402065720,-29.00
2025-12-25 16:26:57.810270,599618140402065720,-29.00
2025-12-25 16:26:57.810270,599618140402065720,-13.00
2025-12-25 16:26:57.810270,599618140402065720,6.00
2025-12-25 16:26:57.810270,599618140402065720,-6.00
2025-12-25 16:26:57.810270,599618140402065720,-29.00
2025-12-25 16:26:57.810270,599618140402065720,-32.00
2025-12-25 16:26:57.810270,599618140402065720,-32.00
2025-12-25 16:26:57.810270,599618140402065720,-36.00
2025-12-25 16:26:57.810270,599618140402065720,-34.00
2025-12-25 16:26:57.810270,599618140402065720,-32.00
2025-12-25 16:26:57.810270,599618140402065720,-36.00
2025-12-25 16:26:57.810270,599618140402065720,-36.00
2025-12-25 16:26:57.810270,599618140402065720,-34.00
2025-12-25 16:26:57.810270,599618140402065720,-34.00
2025-12-25 16:26:57.810270,599618140402065720,-32.00
2025-12-25 16:26:57.810270,599618140402065720,-32.00
2025-12-25 16:26:57.810270,599618140402065720,-32.00
2025-12-25 16:26:57.810270,599618140402065720,-18.00
2025-12-25 16:26:57.810270,599618140402065720,75.00
2025-12-25 16:26:57.810270,599618140402065720,266.00
2025-12-25 16:26:57.810270,599618140402065720,291.00
2025-12-25 16:26:57.810270,599618140402065720,-48.00
2025-12-25 16:26:57.810270,599618140402065720,-354.00
2025-12-25 16:26:57.810270,599618140402065720,-301.00
2025-12-25 16:26:57.810270,599618140402065720,-188.00
2025-12-25 16:26:57.810270,599618140402065720,-163.00
2025-12-25 16:26:58.485841,599618140963011991,-87.00
2025-12-25 16:26:58.485841,599618140963011991,-20.00
2025-12-25 16:26:58.485841,599618140963011991,-39.00
2025-12-25 16:26:58.485841,599618140963011991,-45.00
2025-12-25 16:26:58.485841,599618140963011991,-13.00
2025-12-25 16:26:58.485841,599618140963011991,-6.00
2025-12-25 16:26:58.485841,599618140963011991,-20.00
2025-12-25 16:26:58.485841,599618140963011991,-9.00
2025-12-25 16:26:58.485841,599618140963011991,6.00
2025-12-25 16:26:58.485841,599618140963011991,6.00
2025-12-25 16:26:58.485841,599618140963011991,6.00
2025-12-25 16:26:58.485841,599618140963011991,9.00
2025-12-25 16:26:58.485841,599618140963011991,9.00
2025-12-25 16:26:58.485841,599618140963011991,20.00
2025-12-25 16:26:58.485841,599618140963011991,32.00
2025-12-25 16:26:58.485841,599618140963011991,27.00
2025-12-25 16:26:58.485841,599618140963011991,34.00
2025-12-25 16:26:58.485841,599618140963011991,43.00
2025-12-25 16:26:58.485841,599618140963011991,43.00
2025-12-25 16:26:58.485841,599618140963011991,39.00
2025-12-25 16:26:58.485841,599618140963011991,39.00
2025-12-25 16:26:58.485841,599618140963011991,43.00
2025-12-25 16:26:58.485841,599618140963011991,41.00
2025-12-25 16:26:58.485841,599618140963011991,34.00
2025-12-25 16:26:58.485841,599618140963011991,29.00
2025-12-25 16:26:58.485841,599618140963011991,27.00
2025-12-25 16:26:58.485841,599618140963011991,16.00
2025-12-25 16:26:58.485841,599618140963011991,-2.00
2025-12-25 16:26:58.485841,599618140963011991,-20.00
2025-12-25 16:26:58.485841,599618140963011991,-32.00
2025-12-25 16:26:58.485841,599618140963011991,-50.00
2025-12-25 16:26:58.485841,599618140963011991,-59.00
2025-12-25 16:26:58.485841,599618140963011991,-64.00
2025-12-25 16:26:58.485841,599618140963011991,-66.00
2025-12-25 16:26:58.485841,599618140963011991,-71.00
2025-12-25 16:26:58.485841,599618140963011991,-71.00
2025-12-25 16:26:58.485841,599618140963011991,-66.00
2025-12-25 16:26:58.485841,599618140963011991,-59.00
2025-12-25 16:26:58.485841,599618140963011991,-50.00
2025-12-25 16:26:58.485841,599618140963011991,-52.00
2025-12-25 16:26:58.485841,599618140963011991,-55.00
2025-12-25 16:26:58.485841,599618140963011991,-48.00
2025-12-25 16:26:58.485841,599618140963011991,-36.00
2025-12-25 16:26:58.485841,599618140963011991,-36.00
2025-12-25 16:26:58.485841,599618140963011991,-39.00
2025-12-25 16:26:58.485841,599618140963011991,-39.00
2025-12-25 16:26:58.485841,599618140963011991,-41.00
2025-12-25 16:26:58.485841,599618140963011991,-45.00
2025-12-25 16:26:58.485841,599618140963011991,-50.00
2025-12-25 16:26:58.485841,599618140963011991,-48.00
2025-12-25 16:26:58.485841,599618140963011991,-41.00
2025-12-25 16:26:58.485841,599618140963011991,-43.00
2025-12-25 16:26:58.485841,599618140963011991,-55.00
2025-12-25 16:26:58.485841,599618140963011991,-52.00
2025-12-25 16:26:58.485841,599618140963011991,-50.00
2025-12-25 16:26:58.485841,599618140963011991,-57.00
2025-12-25 16:26:58.485841,599618140963011991,-55.00
2025-12-25 16:26:58.485841,599618140963011991,-48.00
2025-12-25 16:26:58.485841,599618140963011991,-48.00
2025-12-25 16:26:58.485841,599618140963011991,-55.00
2025-12-25 16:26:58.485841,599618140963011991,-57.00
2025-12-25 16:26:58.485841,599618140963011991,-59.00
2025-12-25 16:26:58.485841,599618140963011991,-66.00
2025-12-25 16:26:58.485841,599618140963011991,-68.00
2025-12-25 16:26:58.485841,599618140963011991,-59.00
2025-12-25 16:26:58.485841,599618140963011991,-52.00
2025-12-25 16:26:58.485841,599618140963011991,-45.00
2025-12-25 16:26:58.485841,599618140963011991,-36.00
2025-12-25 16:26:58.485841,599618140963011991,-41.00
2025-12-25 16:26:58.485841,599618140963011991,-57.00
2025-12-25 16:26:58.485841,599618140963011991,-64.00
2025-12-25 16:26:58.485841,599618140963011991,-62.00
2025-12-25 16:26:58.485841,599618140963011991,-66.00
2025-12-25 16:26:58.939607,599618141523958262,-73.00
2025-12-25 16:26:58.939607,599618141523958262,-71.00
2025-12-25 16:26:58.939607,599618141523958262,-66.00
2025-12-25 16:26:58.939607,599618141523958262,-64.00
2025-12-25 16:26:58.939607,599618141523958262,-55.00
2025-12-25 16:26:58.939607,599618141523958262,-43.00
2025-12-25 16:26:58.939607,599618141523958262,-50.00
2025-12-25 16:26:58.939607,599618141523958262,-52.00
2025-12-25 16:26:58.939607,599618141523958262,-48.00
2025-12-25 16:26:58.939607,599618141523958262,-45.00
2025-12-25 16:26:58.939607,599618141523958262,-9.00
2025-12-25 16:26:58.939607,599618141523958262,128.00
2025-12-25 16:26:58.939607,599618141523958262,296.00
2025-12-25 16:26:58.939607,599618141523958262,204.00
2025-12-25 16:26:58.939607,599618141523958262,-179.00
2025-12-25 16:26:58.939607,599618141523958262,-374.00
2025-12-25 16:26:58.939607,599618141523958262,-250.00
2025-12-25 16:26:58.939607,599618141523958262,-154.00
2025-12-25 16:26:58.939607,599618141523958262,-119.00
2025-12-25 16:26:58.939607,599618141523958262,-43.00
2025-12-25 16:26:58.939607,599618141523958262,-16.00
2025-12-25 16:26:58.939607,599618141523958262,-32.00
2025-12-25 16:26:58.939607,599618141523958262,2.00
2025-12-25 16:26:58.939607,599618141523958262,34.00
2025-12-25 16:26:58.939607,599618141523958262,18.00
2025-12-25 16:26:58.939607,599618141523958262,4.00
2025-12-25 16:26:58.939607,599618141523958262,16.00
2025-12-25 16:26:58.939607,599618141523958262,16.00
2025-12-25 16:26:58.939607,599618141523958262,16.00
2025-12-25 16:26:58.939607,599618141523958262,16.00
2025-12-25 16:26:58.939607,599618141523958262,11.00
2025-12-25 16:26:58.939607,599618141523958262,18.00
2025-12-25 16:26:58.939607,599618141523958262,25.00
2025-12-25 16:26:58.939607,599618141523958262,20.00
2025-12-25 16:26:58.939607,599618141523958262,29.00
2025-12-25 16:26:58.939607,599618141523958262,41.00
2025-12-25 16:26:58.939607,599618141523958262,34.00
2025-12-25 16:26:58.939607,599618141523958262,34.00
2025-12-25 16:26:58.939607,599618141523958262,43.00
2025-12-25 16:26:58.939607,599618141523958262,39.00
2025-12-25 16:26:58.939607,599618141523958262,32.00
2025-12-25 16:26:58.939607,599618141523958262,32.00
2025-12-25 16:26:58.939607,599618141523958262,36.00
2025-12-25 16:26:58.939607,599618141523958262,34.00
2025-12-25 16:26:58.939607,599618141523958262,20.00
2025-12-25 16:26:58.939607,599618141523958262,13.00
2025-12-25 16:26:58.939607,599618141523958262,9.00
2025-12-25 16:26:58.939607,599618141523958262,-9.00
2025-12-25 16:26:58.939607,599618141523958262,-27.00
2025-12-25 16:26:58.939607,599618141523958262,-43.00
2025-12-25 16:26:58.939607,599618141523958262,-50.00
2025-12-25 16:26:58.939607,599618141523958262,-48.00
2025-12-25 16:26:58.939607,599618141523958262,-55.00
2025-12-25 16:26:58.939607,599618141523958262,-62.00
2025-12-25 16:26:58.939607,599618141523958262,-57.00
2025-12-25 16:26:58.939607,599618141523958262,-59.00
2025-12-25 16:26:58.939607,599618141523958262,-66.00
2025-12-25 16:26:58.939607,599618141523958262,-64.00
2025-12-25 16:26:58.939607,599618141523958262,-59.00
2025-12-25 16:26:58.939607,599618141523958262,-57.00
2025-12-25 16:26:58.939607,599618141523958262,-59.00
2025-12-25 16:26:58.939607,599618141523958262,-62.00
2025-12-25 16:26:58.939607,599618141523958262,-62.00
2025-12-25 16:26:58.939607,599618141523958262,-59.00
2025-12-25 16:26:58.939607,599618141523958262,-62.00
2025-12-25 16:26:58.939607,599618141523958262,-66.00
2025-12-25 16:26:58.939607,599618141523958262,-68.00
2025-12-25 16:26:58.939607,599618141523958262,-68.00
2025-12-25 16:26:58.939607,599618141523958262,-68.00
2025-12-25 16:26:58.939607,599618141523958262,-68.00
2025-12-25 16:26:58.939607,599618141523958262,-71.00
2025-12-25 16:26:58.939607,599618141523958262,-73.00
2025-12-25 16:26:58.939607,599618141523958262,-71.00
2025-12-25 16:26:59.545589,599618142084899451,-68.00
2025-12-25 16:26:59.545589,599618142084899451,-73.00
2025-12-25 16:26:59.545589,599618142084899451,-75.00
2025-12-25 16:26:59.545589,599618142084899451,-75.00
2025-12-25 16:26:59.545589,599618142084899451,-66.00
2025-12-25 16:26:59.545589,599618142084899451,-62.00
2025-12-25 16:26:59.545589,599618142084899451,-66.00
2025-12-25 16:26:59.545589,599618142084899451,-62.00
2025-12-25 16:26:59.545589,599618142084899451,-52.00
2025-12-25 16:26:59.545589,599618142084899451,-57.00
2025-12-25 16:26:59.545589,599618142084899451,-64.00
2025-12-25 16:26:59.545589,599618142084899451,-59.00
2025-12-25 16:26:59.545589,599618142084899451,-52.00
2025-12-25 16:26:59.545589,599618142084899451,-45.00
2025-12-25 16:26:59.545589,599618142084899451,-39.00
2025-12-25 16:26:59.545589,599618142084899451,-41.00
2025-12-25 16:26:59.545589,599618142084899451,-55.00
2025-12-25 16:26:59.545589,599618142084899451,-59.00
2025-12-25 16:26:59.545589,599618142084899451,-62.00
2025-12-25 16:26:59.545589,599618142084899451,-68.00
2025-12-25 16:26:59.545589,599618142084899451,-71.00
2025-12-25 16:26:59.545589,599618142084899451,-66.00
2025-12-25 16:26:59.545589,599618142084899451,-68.00
2025-12-25 16:26:59.545589,599618142084899451,-73.00
2025-12-25 16:26:59.545589,599618142084899451,-71.00
2025-12-25 16:26:59.545589,599618142084899451,-66.00
2025-12-25 16:26:59.545589,599618142084899451,-59.00
2025-12-25 16:26:59.545589,599618142084899451,-50.00
2025-12-25 16:26:59.545589,599618142084899451,-45.00
2025-12-25 16:26:59.545589,599618142084899451,-50.00
2025-12-25 16:26:59.545589,599618142084899451,-13.00
2025-12-25 16:26:59.545589,599618142084899451,133.00
2025-12-25 16:26:59.545589,599618142084899451,301.00
2025-12-25 16:26:59.545589,599618142084899451,195.00
2025-12-25 16:26:59.545589,599618142084899451,-190.00
2025-12-25 16:26:59.545589,599618142084899451,-377.00
2025-12-25 16:26:59.545589,599618142084899451,-259.00
2025-12-25 16:26:59.545589,599618142084899451,-174.00
2025-12-25 16:26:59.545589,599618142084899451,-135.00
2025-12-25 16:26:59.545589,599618142084899451,-52.00
2025-12-25 16:26:59.545589,599618142084899451,-25.00
2025-12-25 16:26:59.545589,599618142084899451,-43.00
2025-12-25 16:26:59.545589,599618142084899451,-34.00
2025-12-25 16:26:59.545589,599618142084899451,-20.00
2025-12-25 16:26:59.545589,599618142084899451,-22.00
2025-12-25 16:26:59.545589,599618142084899451,-18.00
2025-12-25 16:26:59.545589,599618142084899451,-11.00
2025-12-25 16:26:59.545589,599618142084899451,-13.00
2025-12-25 16:26:59.545589,599618142084899451,-6.00
2025-12-25 16:26:59.545589,599618142084899451,4.00
2025-12-25 16:26:59.545589,599618142084899451,4.00
2025-12-25 16:26:59.545589,599618142084899451,-2.00
2025-12-25 16:26:59.545589,599618142084899451,0.00
2025-12-25 16:26:59.545589,599618142084899451,6.00
2025-12-25 16:26:59.545589,599618142084899451,6.00
2025-12-25 16:26:59.545589,599618142084899451,13.00
2025-12-25 16:26:59.545589,599618142084899451,25.00
2025-12-25 16:26:59.545589,599618142084899451,18.00
2025-12-25 16:26:59.545589,599618142084899451,13.00
2025-12-25 16:26:59.545589,599618142084899451,20.00
2025-12-25 16:26:59.545589,599618142084899451,20.00
2025-12-25 16:26:59.545589,599618142084899451,13.00
2025-12-25 16:26:59.545589,599618142084899451,11.00
2025-12-25 16:26:59.545589,599618142084899451,6.00
2025-12-25 16:26:59.545589,599618142084899451,-4.00
2025-12-25 16:26:59.545589,599618142084899451,-20.00
2025-12-25 16:26:59.545589,599618142084899451,-34.00
2025-12-25 16:26:59.545589,599618142084899451,-41.00
2025-12-25 16:26:59.545589,599618142084899451,-50.00
2025-12-25 16:26:59.545589,599618142084899451,-57.00
2025-12-25 16:26:59.545589,599618142084899451,-64.00
2025-12-25 16:26:59.545589,599618142084899451,-75.00
2025-12-25 16:26:59.545589,599618142084899451,-75.00
2025-12-25 16:27:00.069777,599618142645840636,-75.00
2025-12-25 16:27:00.069777,599618142645840636,-82.00
2025-12-25 16:27:00.069777,599618142645840636,-85.00
2025-12-25 16:27:00.069777,599618142645840636,-80.00
2025-12-25 16:27:00.069777,599618142645840636,-75.00
2025-12-25 16:27:00.069777,599618142645840636,-73.00
2025-12-25 16:27:00.069777,599618142645840636,-75.00
2025-12-25 16:27:00.069777,599618142645840636,-80.00
2025-12-25 16:27:00.069777,599618142645840636,-75.00
2025-12-25 16:27:00.069777,599618142645840636,-73.00
2025-12-25 16:27:00.069777,599618142645840636,-71.00
2025-12-25 16:27:00.069777,599618142645840636,-59.00
2025-12-25 16:27:00.069777,599618142645840636,-52.00
2025-12-25 16:27:00.069777,599618142645840636,-57.00
2025-12-25 16:27:00.069777,599618142645840636,-59.00
2025-12-25 16:27:00.069777,599618142645840636,-62.00
2025-12-25 16:27:00.069777,599618142645840636,-57.00
2025-12-25 16:27:00.069777,599618142645840636,-45.00
2025-12-25 16:27:00.069777,599618142645840636,-43.00
2025-12-25 16:27:00.069777,599618142645840636,-45.00
2025-12-25 16:27:00.069777,599618142645840636,-36.00
2025-12-25 16:27:00.069777,599618142645840636,-36.00
2025-12-25 16:27:00.069777,599618142645840636,-45.00
2025-12-25 16:27:00.069777,599618142645840636,-43.00
2025-12-25 16:27:00.069777,599618142645840636,-41.00
2025-12-25 16:27:00.069777,599618142645840636,-48.00
2025-12-25 16:27:00.069777,599618142645840636,-50.00
2025-12-25 16:27:00.069777,599618142645840636,-48.00
2025-12-25 16:27:00.069777,599618142645840636,-45.00
2025-12-25 16:27:00.069777,599618142645840636,-45.00
2025-12-25 16:27:00.069777,599618142645840636,-43.00
2025-12-25 16:27:00.069777,599618142645840636,-34.00
2025-12-25 16:27:00.069777,599618142645840636,-27.00
2025-12-25 16:27:00.069777,599618142645840636,-34.00
2025-12-25 16:27:00.069777,599618142645840636,-50.00
2025-12-25 16:27:00.069777,599618142645840636,-52.00
2025-12-25 16:27:00.069777,599618142645840636,-48.00
2025-12-25 16:27:00.069777,599618142645840636,-55.00
2025-12-25 16:27:00.069777,599618142645840636,-57.00
2025-12-25 16:27:00.069777,599618142645840636,-52.00
2025-12-25 16:27:00.069777,599618142645840636,-52.00
2025-12-25 16:27:00.069777,599618142645840636,-52.00
2025-12-25 16:27:00.069777,599618142645840636,-50.00
2025-12-25 16:27:00.069777,599618142645840636,-52.00
2025-12-25 16:27:00.069777,599618142645840636,-55.00
2025-12-25 16:27:00.069777,599618142645840636,-57.00
2025-12-25 16:27:00.069777,599618142645840636,-57.00
2025-12-25 16:27:00.069777,599618142645840636,-45.00
2025-12-25 16:27:00.069777,599618142645840636,25.00
2025-12-25 16:27:00.069777,599618142645840636,195.00
2025-12-25 16:27:00.069777,599618142645840636,298.00
2025-12-25 16:27:00.069777,599618142645840636,50.00
2025-12-25 16:27:00.069777,599618142645840636,-314.00
2025-12-25 16:27:00.069777,599618142645840636,-344.00
2025-12-25 16:27:00.069777,599618142645840636,-206.00
2025-12-25 16:27:00.069777,599618142645840636,-158.00
2025-12-25 16:27:00.069777,599618142645840636,-96.00
2025-12-25 16:27:00.069777,599618142645840636,-25.00
2025-12-25 16:27:00.069777,599618142645840636,-22.00
2025-12-25 16:27:00.069777,599618142645840636,-27.00
2025-12-25 16:27:00.069777,599618142645840636,-6.00
2025-12-25 16:27:00.069777,599618142645840636,2.00
2025-12-25 16:27:00.069777,599618142645840636,-2.00
2025-12-25 16:27:00.069777,599618142645840636,0.00
2025-12-25 16:27:00.069777,599618142645840636,2.00
2025-12-25 16:27:00.069777,599618142645840636,0.00
2025-12-25 16:27:00.069777,599618142645840636,-2.00
2025-12-25 16:27:00.069777,599618142645840636,2.00
2025-12-25 16:27:00.069777,599618142645840636,11.00
2025-12-25 16:27:00.069777,599618142645840636,11.00
2025-12-25 16:27:00.069777,599618142645840636,9.00
2025-12-25 16:27:00.069777,599618142645840636,13.00
2025-12-25 16:27:00.069777,599618142645840636,13.00
2025-12-25 16:27:00.594411,599618143206766561,13.00
2025-12-25 16:27:00.594411,599618143206766561,20.00
2025-12-25 16:27:00.594411,599618143206766561,27.00
2025-12-25 16:27:00.594411,599618143206766561,27.00
2025-12-25 16:27:00.594411,599618143206766561,22.00
2025-12-25 16:27:00.594411,599618143206766561,16.00
2025-12-25 16:27:00.594411,599618143206766561,13.00
2025-12-25 16:27:00.594411,599618143206766561,16.00
2025-12-25 16:27:00.594411,599618143206766561,18.00
2025-12-25 16:27:00.594411,599618143206766561,16.00
2025-12-25 16:27:00.594411,599618143206766561,0.00
2025-12-25 16:27:00.594411,599618143206766561,-22.00
2025-12-25 16:27:00.594411,599618143206766561,-39.00
2025-12-25 16:27:00.594411,599618143206766561,-36.00
2025-12-25 16:27:00.594411,599618143206766561,-25.00
2025-12-25 16:27:00.594411,599618143206766561,-32.00
2025-12-25 16:27:00.594411,599618143206766561,-48.00
2025-12-25 16:27:00.594411,599618143206766561,-45.00
2025-12-25 16:27:00.594411,599618143206766561,-41.00
2025-12-25 16:27:00.594411,599618143206766561,-45.00
2025-12-25 16:27:00.594411,599618143206766561,-55.00
2025-12-25 16:27:00.594411,599618143206766561,-50.00
2025-12-25 16:27:00.594411,599618143206766561,-48.00
2025-12-25 16:27:00.594411,599618143206766561,-50.00
2025-12-25 16:27:00.594411,599618143206766561,-50.00
2025-12-25 16:27:00.594411,599618143206766561,-45.00
2025-12-25 16:27:00.594411,599618143206766561,-48.00
2025-12-25 16:27:00.594411,599618143206766561,-52.00
2025-12-25 16:27:00.594411,599618143206766561,-57.00
2025-12-25 16:27:00.594411,599618143206766561,-57.00
2025-12-25 16:27:00.594411,599618143206766561,-62.00
2025-12-25 16:27:00.594411,599618143206766561,-59.00
2025-12-25 16:27:00.594411,599618143206766561,-57.00
2025-12-25 16:27:00.594411,599618143206766561,-62.00
2025-12-25 16:27:00.594411,599618143206766561,-66.00
2025-12-25 16:27:00.594411,599618143206766561,-68.00
2025-12-25 16:27:00.594411,599618143206766561,-66.00
2025-12-25 16:27:00.594411,599618143206766561,-66.00
2025-12-25 16:27:00.594411,599618143206766561,-66.00
2025-12-25 16:27:00.594411,599618143206766561,-68.00
2025-12-25 16:27:00.594411,599618143206766561,-73.00
2025-12-25 16:27:00.594411,599618143206766561,-73.00
2025-12-25 16:27:00.594411,599618143206766561,-68.00
2025-12-25 16:27:00.594411,599618143206766561,-71.00
2025-12-25 16:27:00.594411,599618143206766561,-80.00
2025-12-25 16:27:00.594411,599618143206766561,-82.00
2025-12-25 16:27:00.594411,599618143206766561,-73.00
2025-12-25 16:27:00.594411,599618143206766561,-59.00
2025-12-25 16:27:00.594411,599618143206766561,-48.00
2025-12-25 16:27:00.594411,599618143206766561,-43.00
2025-12-25 16:27:00.594411,599618143206766561,-45.00
2025-12-25 16:27:00.594411,599618143206766561,-57.00
2025-12-25 16:27:00.594411,599618143206766561,-66.00
2025-12-25 16:27:00.594411,599618143206766561,-64.00
2025-12-25 16:27:00.594411,599618143206766561,-62.00
2025-12-25 16:27:00.594411,599618143206766561,-64.00
2025-12-25 16:27:00.594411,599618143206766561,-64.00
2025-12-25 16:27:00.594411,599618143206766561,-57.00
2025-12-25 16:27:00.594411,599618143206766561,-59.00
2025-12-25 16:27:00.594411,599618143206766561,-66.00
2025-12-25 16:27:00.594411,599618143206766561,-59.00
2025-12-25 16:27:00.594411,599618143206766561,-52.00
2025-12-25 16:27:00.594411,599618143206766561,-59.00
2025-12-25 16:27:00.594411,599618143206766561,-62.00
2025-12-25 16:27:00.594411,599618143206766561,-50.00
2025-12-25 16:27:00.594411,599618143206766561,6.00
2025-12-25 16:27:00.594411,599618143206766561,177.00
2025-12-25 16:27:00.594411,599618143206766561,319.00
2025-12-25 16:27:00.594411,599618143206766561,117.00
2025-12-25 16:27:00.594411,599618143206766561,-275.00
2025-12-25 16:27:00.594411,599618143206766561,-358.00
2025-12-25 16:27:00.594411,599618143206766561,-216.00
2025-12-25 16:27:00.594411,599618143206766561,-158.00
2025-12-25 16:27:01.123751,599618143767712832,-105.00
2025-12-25 16:27:01.123751,599618143767712832,-27.00
2025-12-25 16:27:01.123751,599618143767712832,-22.00
2025-12-25 16:27:01.123751,599618143767712832,-41.00
2025-12-25 16:27:01.123751,599618143767712832,-20.00
2025-12-25 16:27:01.123751,599618143767712832,-4.00
2025-12-25 16:27:01.123751,599618143767712832,0.00
2025-12-25 16:27:01.123751,599618143767712832,6.00
2025-12-25 16:27:01.123751,599618143767712832,4.00
2025-12-25 16:27:01.123751,599618143767712832,-2.00
2025-12-25 16:27:01.123751,599618143767712832,9.00
2025-12-25 16:27:01.123751,599618143767712832,27.00
2025-12-25 16:27:01.123751,599618143767712832,36.00
2025-12-25 16:27:01.123751,599618143767712832,36.00
2025-12-25 16:27:01.123751,599618143767712832,29.00
2025-12-25 16:27:01.123751,599618143767712832,27.00
2025-12-25 16:27:01.123751,599618143767712832,29.00
2025-12-25 16:27:01.123751,599618143767712832,39.00
2025-12-25 16:27:01.123751,599618143767712832,41.00
2025-12-25 16:27:01.123751,599618143767712832,39.00
2025-12-25 16:27:01.123751,599618143767712832,39.00
2025-12-25 16:27:01.123751,599618143767712832,34.00
2025-12-25 16:27:01.123751,599618143767712832,32.00
2025-12-25 16:27:01.123751,599618143767712832,32.00
2025-12-25 16:27:01.123751,599618143767712832,25.00
2025-12-25 16:27:01.123751,599618143767712832,13.00
2025-12-25 16:27:01.123751,599618143767712832,2.00
2025-12-25 16:27:01.123751,599618143767712832,-11.00
2025-12-25 16:27:01.123751,599618143767712832,-22.00
2025-12-25 16:27:01.123751,599618143767712832,-36.00
2025-12-25 16:27:01.123751,599618143767712832,-52.00
2025-12-25 16:27:01.123751,599618143767712832,-64.00
2025-12-25 16:27:01.123751,599618143767712832,-73.00
2025-12-25 16:27:01.123751,599618143767712832,-78.00
2025-12-25 16:27:01.123751,599618143767712832,-80.00
2025-12-25 16:27:01.123751,599618143767712832,-80.00
2025-12-25 16:27:01.123751,599618143767712832,-85.00
2025-12-25 16:27:01.123751,599618143767712832,-85.00
2025-12-25 16:27:01.123751,599618143767712832,-80.00
2025-12-25 16:27:01.123751,599618143767712832,-80.00
2025-12-25 16:27:01.123751,599618143767712832,-80.00
2025-12-25 16:27:01.123751,599618143767712832,-73.00
2025-12-25 16:27:01.123751,599618143767712832,-68.00
2025-12-25 16:27:01.123751,599618143767712832,-73.00
2025-12-25 16:27:01.123751,599618143767712832,-82.00
2025-12-25 16:27:01.123751,599618143767712832,-85.00
2025-12-25 16:27:01.123751,599618143767712832,-78.00
2025-12-25 16:27:01.123751,599618143767712832,-73.00
2025-12-25 16:27:01.123751,599618143767712832,-73.00
2025-12-25 16:27:01.123751,599618143767712832,-78.00
2025-12-25 16:27:01.123751,599618143767712832,-82.00
2025-12-25 16:27:01.123751,599618143767712832,-82.00
2025-12-25 16:27:01.123751,599618143767712832,-75.00
2025-12-25 16:27:01.123751,599618143767712832,-75.00
2025-12-25 16:27:01.123751,599618143767712832,-78.00
2025-12-25 16:27:01.123751,599618143767712832,-78.00
2025-12-25 16:27:01.123751,599618143767712832,-80.00
2025-12-25 16:27:01.123751,599618143767712832,-85.00
2025-12-25 16:27:01.123751,599618143767712832,-80.00
2025-12-25 16:27:01.123751,599618143767712832,-75.00
2025-12-25 16:27:01.123751,599618143767712832,-80.00
2025-12-25 16:27:01.123751,599618143767712832,-80.00
2025-12-25 16:27:01.123751,599618143767712832,-73.00
2025-12-25 16:27:01.123751,599618143767712832,-71.00
2025-12-25 16:27:01.123751,599618143767712832,-64.00
2025-12-25 16:27:01.123751,599618143767712832,-52.00
2025-12-25 16:27:01.123751,599618143767712832,-48.00
2025-12-25 16:27:01.123751,599618143767712832,-50.00
2025-12-25 16:27:01.123751,599618143767712832,-55.00
2025-12-25 16:27:01.123751,599618143767712832,-64.00
2025-12-25 16:27:01.123751,599618143767712832,-73.00
2025-12-25 16:27:01.123751,599618143767712832,-73.00
2025-12-25 16:27:01.123751,599618143767712832,-59.00
2025-12-25 16:27:01.719230,599618144328659103,-55.00
2025-12-25 16:27:01.719230,599618144328659103,-52.00
2025-12-25 16:27:01.719230,599618144328659103,-45.00
2025-12-25 16:27:01.719230,599618144328659103,-43.00
2025-12-25 16:27:01.719230,599618144328659103,-43.00
2025-12-25 16:27:01.719230,599618144328659103,-41.00
2025-12-25 16:27:01.719230,599618144328659103,-39.00
2025-12-25 16:27:01.719230,599618144328659103,-34.00
2025-12-25 16:27:01.719230,599618144328659103,-20.00
2025-12-25 16:27:01.719230,599618144328659103,25.00
2025-12-25 16:27:01.719230,599618144328659103,165.00
2025-12-25 16:27:01.719230,599618144328659103,333.00
2025-12-25 16:27:01.719230,599618144328659103,206.00
2025-12-25 16:27:01.719230,599618144328659103,-193.00
2025-12-25 16:27:01.719230,599618144328659103,-349.00
2025-12-25 16:27:01.719230,599618144328659103,-213.00
2025-12-25 16:27:01.719230,599618144328659103,-137.00
2025-12-25 16:27:01.719230,599618144328659103,-101.00
2025-12-25 16:27:01.719230,599618144328659103,-22.00
2025-12-25 16:27:01.719230,599618144328659103,-2.00
2025-12-25 16:27:01.719230,599618144328659103,-13.00
2025-12-25 16:27:01.719230,599618144328659103,-2.00
2025-12-25 16:27:01.719230,599618144328659103,6.00
2025-12-25 16:27:01.719230,599618144328659103,2.00
2025-12-25 16:27:01.719230,599618144328659103,2.00
2025-12-25 16:27:01.719230,599618144328659103,2.00
2025-12-25 16:27:01.719230,599618144328659103,2.00
2025-12-25 16:27:01.719230,599618144328659103,2.00
2025-12-25 16:27:01.719230,599618144328659103,2.00
2025-12-25 16:27:01.719230,599618144328659103,6.00
2025-12-25 16:27:01.719230,599618144328659103,9.00
2025-12-25 16:27:01.719230,599618144328659103,6.00
2025-12-25 16:27:01.719230,599618144328659103,9.00
2025-12-25 16:27:01.719230,599618144328659103,16.00
2025-12-25 16:27:01.719230,599618144328659103,20.00
2025-12-25 16:27:01.719230,599618144328659103,20.00
2025-12-25 16:27:01.719230,599618144328659103,25.00
2025-12-25 16:27:01.719230,599618144328659103,29.00
2025-12-25 16:27:01.719230,599618144328659103,29.00
2025-12-25 16:27:01.719230,599618144328659103,22.00
2025-12-25 16:27:01.719230,599618144328659103,16.00
2025-12-25 16:27:01.719230,599618144328659103,13.00
