Timestamp,Device Timestamp (ns),ECG Value (uV)
2025-12-25 16:58:35.210358,599620037753382845,-82.00
2025-12-25 16:58:35.210358,599620037753382845,-71.00
2025-12-25 16:58:35.210358,599620037753382845,-55.00
2025-12-25 16:58:35.210358,599620037753382845,-41.00
2025-12-25 16:58:35.210358,599620037753382845,-29.00
2025-12-25 16:58:35.210358,599620037753382845,-39.00
2025-12-25 16:58:35.210358,599620037753382845,-68.00
2025-12-25 16:58:35.210358,599620037753382845,-78.00
2025-12-25 16:58:35.210358,599620037753382845,-68.00
2025-12-25 16:58:35.210358,599620037753382845,-66.00
2025-12-25 16:58:35.210358,599620037753382845,-75.00
2025-12-25 16:58:35.210358,599620037753382845,-78.00
2025-12-25 16:58:35.210358,599620037753382845,-78.00
2025-12-25 16:58:35.210358,599620037753382845,-82.00
2025-12-25 16:58:35.210358,599620037753382845,-85.00
2025-12-25 16:58:35.210358,599620037753382845,-64.00
2025-12-25 16:58:35.210358,599620037753382845,36.00
2025-12-25 16:58:35.210358,599620037753382845,310.00
2025-12-25 16:58:35.210358,599620037753382845,588.00
2025-12-25 16:58:35.210358,599620037753382845,319.00
2025-12-25 16:58:35.210358,599620037753382845,-606.00
2025-12-25 16:58:35.210358,599620037753382845,-1117.00
2025-12-25 16:58:35.210358,599620037753382845,-627.00
2025-12-25 16:58:35.210358,599620037753382845,-121.00
2025-12-25 16:58:35.210358,599620037753382845,-101.00
2025-12-25 16:58:35.210358,599620037753382845,-89.00
2025-12-25 16:58:35.210358,599620037753382845,-18.00
2025-12-25 16:58:35.210358,599620037753382845,-29.00
2025-12-25 16:58:35.210358,599620037753382845,-39.00
2025-12-25 16:58:35.210358,599620037753382845,-11.00
2025-12-25 16:58:35.210358,599620037753382845,-6.00
2025-12-25 16:58:35.210358,599620037753382845,-11.00
2025-12-25 16:58:35.210358,599620037753382845,0.00
2025-12-25 16:58:35.210358,599620037753382845,4.00
2025-12-25 16:58:35.210358,599620037753382845,2.00
2025-12-25 16:58:35.210358,599620037753382845,6.00
2025-12-25 16:58:35.210358,599620037753382845,11.00
2025-12-25 16:58:35.210358,599620037753382845,16.00
2025-12-25 16:58:35.210358,599620037753382845,20.00
2025-12-25 16:58:35.210358,599620037753382845,22.00
2025-12-25 16:58:35.210358,599620037753382845,27.00
2025-12-25 16:58:35.210358,599620037753382845,32.00
2025-12-25 16:58:35.210358,599620037753382845,36.00
2025-12-25 16:58:35.210358,599620037753382845,43.00
2025-12-25 16:58:35.210358,599620037753382845,52.00
2025-12-25 16:58:35.210358,599620037753382845,62.00
2025-12-25 16:58:35.210358,599620037753382845,66.00
2025-12-25 16:58:35.210358,599620037753382845,71.00
2025-12-25 16:58:35.210358,599620037753382845,73.00
2025-12-25 16:58:35.210358,599620037753382845,73.00
2025-12-25 16:58:35.210358,599620037753382845,68.00
2025-12-25 16:58:35.210358,599620037753382845,64.00
2025-12-25 16:58:35.210358,599620037753382845,50.00
2025-12-25 16:58:35.210358,599620037753382845,20.00
2025-12-25 16:58:35.210358,599620037753382845,-13.00
2025-12-25 16:58:35.210358,599620037753382845,-48.00
2025-12-25 16:58:35.210358,599620037753382845,-75.00
2025-12-25 16:58:35.210358,599620037753382845,-101.00
2025-12-25 16:58:35.210358,599620037753382845,-119.00
2025-12-25 16:58:35.210358,599620037753382845,-128.00
2025-12-25 16:58:35.210358,599620037753382845,-133.00
2025-12-25 16:58:35.210358,599620037753382845,-131.00
2025-12-25 16:58:35.210358,599620037753382845,-121.00
2025-12-25 16:58:35.210358,599620037753382845,-119.00
2025-12-25 16:58:35.210358,599620037753382845,-119.00
2025-12-25 16:58:35.210358,599620037753382845,-117.00
2025-12-25 16:58:35.210358,599620037753382845,-112.00
2025-12-25 16:58:35.210358,599620037753382845,-108.00
2025-12-25 16:58:35.210358,599620037753382845,-101.00
2025-12-25 16:58:35.210358,599620037753382845,-94.00
2025-12-25 16:58:35.210358,599620037753382845,-89.00
2025-12-25 16:58:35.210358,599620037753382845,-82.00
2025-12-25 16:58:35.210358,599620037753382845,-78.00
2025-12-25 16:58:35.656336,599620038314257908,-71.00
2025-12-25 16:58:35.656336,599620038314257908,-59.00
2025-12-25 16:58:35.656336,599620038314257908,-55.00
2025-12-25 16:58:35.656336,599620038314257908,-59.00
2025-12-25 16:58:35.656336,599620038314257908,-64.00
2025-12-25 16:58:35.656336,599620038314257908,-64.00
2025-12-25 16:58:35.656336,599620038314257908,-62.00
2025-12-25 16:58:35.656336,599620038314257908,-62.00
2025-12-25 16:58:35.656336,599620038314257908,-64.00
2025-12-25 16:58:35.656336,599620038314257908,-66.00
2025-12-25 16:58:35.656336,599620038314257908,-68.00
2025-12-25 16:58:35.656336,599620038314257908,-59.00
2025-12-25 16:58:35.656336,599620038314257908,-50.00
2025-12-25 16:58:35.656336,599620038314257908,-55.00
2025-12-25 16:58:35.656336,599620038314257908,-62.00
2025-12-25 16:58:35.656336,599620038314257908,-59.00
2025-12-25 16:58:35.656336,599620038314257908,-59.00
2025-12-25 16:58:35.656336,599620038314257908,-62.00
2025-12-25 16:58:35.656336,599620038314257908,-64.00
2025-12-25 16:58:35.656336,599620038314257908,-64.00
2025-12-25 16:58:35.656336,599620038314257908,-59.00
2025-12-25 16:58:35.656336,599620038314257908,-55.00
2025-12-25 16:58:35.656336,599620038314257908,-57.00
2025-12-25 16:58:35.656336,599620038314257908,-59.00
2025-12-25 16:58:35.656336,599620038314257908,-57.00
2025-12-25 16:58:35.656336,599620038314257908,-59.00
2025-12-25 16:58:35.656336,599620038314257908,-66.00
2025-12-25 16:58:35.656336,599620038314257908,-73.00
2025-12-25 16:58:35.656336,599620038314257908,-66.00
2025-12-25 16:58:35.656336,599620038314257908,-57.00
2025-12-25 16:58:35.656336,599620038314257908,-45.00
2025-12-25 16:58:35.656336,599620038314257908,-27.00
2025-12-25 16:58:35.656336,599620038314257908,-22.00
2025-12-25 16:58:35.656336,599620038314257908,-50.00
2025-12-25 16:58:35.656336,599620038314257908,-73.00
2025-12-25 16:58:35.656336,599620038314257908,-75.00
2025-12-25 16:58:35.656336,599620038314257908,-78.00
2025-12-25 16:58:35.656336,599620038314257908,-85.00
2025-12-25 16:58:35.656336,599620038314257908,-87.00
2025-12-25 16:58:35.656336,599620038314257908,-87.00
2025-12-25 16:58:35.656336,599620038314257908,-89.00
2025-12-25 16:58:35.656336,599620038314257908,-87.00
2025-12-25 16:58:35.656336,599620038314257908,-89.00
2025-12-25 16:58:35.656336,599620038314257908,-41.00
2025-12-25 16:58:35.656336,599620038314257908,160.00
2025-12-25 16:58:35.656336,599620038314257908,482.00
2025-12-25 16:58:35.656336,599620038314257908,531.00
2025-12-25 16:58:35.656336,599620038314257908,-170.00
2025-12-25 16:58:35.656336,599620038314257908,-1023.00
2025-12-25 16:58:35.656336,599620038314257908,-933.00
2025-12-25 16:58:35.656336,599620038314257908,-310.00
2025-12-25 16:58:35.656336,599620038314257908,-94.00
2025-12-25 16:58:35.656336,599620038314257908,-105.00
2025-12-25 16:58:35.656336,599620038314257908,-36.00
2025-12-25 16:58:35.656336,599620038314257908,-20.00
2025-12-25 16:58:35.656336,599620038314257908,-45.00
2025-12-25 16:58:35.656336,599620038314257908,-27.00
2025-12-25 16:58:35.656336,599620038314257908,-11.00
2025-12-25 16:58:35.656336,599620038314257908,-16.00
2025-12-25 16:58:35.656336,599620038314257908,-11.00
2025-12-25 16:58:35.656336,599620038314257908,-4.00
2025-12-25 16:58:35.656336,599620038314257908,-6.00
2025-12-25 16:58:35.656336,599620038314257908,-6.00
2025-12-25 16:58:35.656336,599620038314257908,2.00
2025-12-25 16:58:35.656336,599620038314257908,4.00
2025-12-25 16:58:35.656336,599620038314257908,6.00
2025-12-25 16:58:35.656336,599620038314257908,20.00
2025-12-25 16:58:35.656336,599620038314257908,32.00
2025-12-25 16:58:35.656336,599620038314257908,34.00
2025-12-25 16:58:35.656336,599620038314257908,41.00
2025-12-25 16:58:35.656336,599620038314257908,50.00
2025-12-25 16:58:35.656336,599620038314257908,50.00
2025-12-25 16:58:35.656336,599620038314257908,57.00
2025-12-25 16:58:36.320587,599620038875122797,73.00
2025-12-25 16:58:36.320587,599620038875122797,80.00
2025-12-25 16:58:36.320587,599620038875122797,85.00
2025-12-25 16:58:36.320587,599620038875122797,94.00
2025-12-25 16:58:36.320587,599620038875122797,94.00
2025-12-25 16:58:36.320587,599620038875122797,80.00
2025-12-25 16:58:36.320587,599620038875122797,66.00
2025-12-25 16:58:36.320587,599620038875122797,52.00
2025-12-25 16:58:36.320587,599620038875122797,29.00
2025-12-25 16:58:36.320587,599620038875122797,-2.00
2025-12-25 16:58:36.320587,599620038875122797,-41.00
2025-12-25 16:58:36.320587,599620038875122797,-73.00
2025-12-25 16:58:36.320587,599620038875122797,-89.00
2025-12-25 16:58:36.320587,599620038875122797,-98.00
2025-12-25 16:58:36.320587,599620038875122797,-105.00
2025-12-25 16:58:36.320587,599620038875122797,-105.00
2025-12-25 16:58:36.320587,599620038875122797,-110.00
2025-12-25 16:58:36.320587,599620038875122797,-119.00
2025-12-25 16:58:36.320587,599620038875122797,-119.00
2025-12-25 16:58:36.320587,599620038875122797,-108.00
2025-12-25 16:58:36.320587,599620038875122797,-103.00
2025-12-25 16:58:36.320587,599620038875122797,-101.00
2025-12-25 16:58:36.320587,599620038875122797,-91.00
2025-12-25 16:58:36.320587,599620038875122797,-89.00
2025-12-25 16:58:36.320587,599620038875122797,-89.00
2025-12-25 16:58:36.320587,599620038875122797,-80.00
2025-12-25 16:58:36.320587,599620038875122797,-75.00
2025-12-25 16:58:36.320587,599620038875122797,-78.00
2025-12-25 16:58:36.320587,599620038875122797,-78.00
2025-12-25 16:58:36.320587,599620038875122797,-73.00
2025-12-25 16:58:36.320587,599620038875122797,-73.00
2025-12-25 16:58:36.320587,599620038875122797,-78.00
2025-12-25 16:58:36.320587,599620038875122797,-78.00
2025-12-25 16:58:36.320587,599620038875122797,-78.00
2025-12-25 16:58:36.320587,599620038875122797,-80.00
2025-12-25 16:58:36.320587,599620038875122797,-85.00
2025-12-25 16:58:36.320587,599620038875122797,-87.00
2025-12-25 16:58:36.320587,599620038875122797,-87.00
2025-12-25 16:58:36.320587,599620038875122797,-85.00
2025-12-25 16:58:36.320587,599620038875122797,-87.00
2025-12-25 16:58:36.320587,599620038875122797,-91.00
2025-12-25 16:58:36.320587,599620038875122797,-91.00
2025-12-25 16:58:36.320587,599620038875122797,-94.00
2025-12-25 16:58:36.320587,599620038875122797,-94.00
2025-12-25 16:58:36.320587,599620038875122797,-87.00
2025-12-25 16:58:36.320587,599620038875122797,-85.00
2025-12-25 16:58:36.320587,599620038875122797,-87.00
2025-12-25 16:58:36.320587,599620038875122797,-94.00
2025-12-25 16:58:36.320587,599620038875122797,-96.00
2025-12-25 16:58:36.320587,599620038875122797,-94.00
2025-12-25 16:58:36.320587,599620038875122797,-87.00
2025-12-25 16:58:36.320587,599620038875122797,-85.00
2025-12-25 16:58:36.320587,599620038875122797,-73.00
2025-12-25 16:58:36.320587,599620038875122797,-57.00
2025-12-25 16:58:36.320587,599620038875122797,-57.00
2025-12-25 16:58:36.320587,599620038875122797,-80.00
2025-12-25 16:58:36.320587,599620038875122797,-91.00
2025-12-25 16:58:36.320587,599620038875122797,-91.00
2025-12-25 16:58:36.320587,599620038875122797,-98.00
2025-12-25 16:58:36.320587,599620038875122797,-96.00
2025-12-25 16:58:36.320587,599620038875122797,-87.00
2025-12-25 16:58:36.320587,599620038875122797,-87.00
2025-12-25 16:58:36.320587,599620038875122797,-89.00
2025-12-25 16:58:36.320587,599620038875122797,-89.00
2025-12-25 16:58:36.320587,599620038875122797,-78.00
2025-12-25 16:58:36.320587,599620038875122797,9.00
2025-12-25 16:58:36.320587,599620038875122797,273.00
2025-12-25 16:58:36.320587,599620038875122797,604.00
2025-12-25 16:58:36.320587,599620038875122797,468.00
2025-12-25 16:58:36.320587,599620038875122797,-420.00
2025-12-25 16:58:36.320587,599620038875122797,-1117.00
2025-12-25 16:58:36.320587,599620038875122797,-800.00
2025-12-25 16:58:36.320587,599620038875122797,-259.00
2025-12-25 16:58:36.813730,599620039435987688,-144.00
2025-12-25 16:58:36.813730,599620039435987688,-98.00
2025-12-25 16:58:36.813730,599620039435987688,-20.00
2025-12-25 16:58:36.813730,599620039435987688,-32.00
2025-12-25 16:58:36.813730,599620039435987688,-39.00
2025-12-25 16:58:36.813730,599620039435987688,-11.00
2025-12-25 16:58:36.813730,599620039435987688,-6.00
2025-12-25 16:58:36.813730,599620039435987688,-11.00
2025-12-25 16:58:36.813730,599620039435987688,-6.00
2025-12-25 16:58:36.813730,599620039435987688,-2.00
2025-12-25 16:58:36.813730,599620039435987688,0.00
2025-12-25 16:58:36.813730,599620039435987688,13.00
2025-12-25 16:58:36.813730,599620039435987688,29.00
2025-12-25 16:58:36.813730,599620039435987688,32.00
2025-12-25 16:58:36.813730,599620039435987688,32.00
2025-12-25 16:58:36.813730,599620039435987688,36.00
2025-12-25 16:58:36.813730,599620039435987688,41.00
2025-12-25 16:58:36.813730,599620039435987688,52.00
2025-12-25 16:58:36.813730,599620039435987688,73.00
2025-12-25 16:58:36.813730,599620039435987688,80.00
2025-12-25 16:58:36.813730,599620039435987688,80.00
2025-12-25 16:58:36.813730,599620039435987688,87.00
2025-12-25 16:58:36.813730,599620039435987688,98.00
2025-12-25 16:58:36.813730,599620039435987688,105.00
2025-12-25 16:58:36.813730,599620039435987688,108.00
2025-12-25 16:58:36.813730,599620039435987688,108.00
2025-12-25 16:58:36.813730,599620039435987688,103.00
2025-12-25 16:58:36.813730,599620039435987688,91.00
2025-12-25 16:58:36.813730,599620039435987688,75.00
2025-12-25 16:58:36.813730,599620039435987688,50.00
2025-12-25 16:58:36.813730,599620039435987688,16.00
2025-12-25 16:58:36.813730,599620039435987688,-25.00
2025-12-25 16:58:36.813730,599620039435987688,-66.00
2025-12-25 16:58:36.813730,599620039435987688,-96.00
2025-12-25 16:58:36.813730,599620039435987688,-112.00
2025-12-25 16:58:36.813730,599620039435987688,-117.00
2025-12-25 16:58:36.813730,599620039435987688,-119.00
2025-12-25 16:58:36.813730,599620039435987688,-121.00
2025-12-25 16:58:36.813730,599620039435987688,-124.00
2025-12-25 16:58:36.813730,599620039435987688,-126.00
2025-12-25 16:58:36.813730,599620039435987688,-126.00
2025-12-25 16:58:36.813730,599620039435987688,-119.00
2025-12-25 16:58:36.813730,599620039435987688,-114.00
2025-12-25 16:58:36.813730,599620039435987688,-112.00
2025-12-25 16:58:36.813730,599620039435987688,-110.00
2025-12-25 16:58:36.813730,599620039435987688,-103.00
2025-12-25 16:58:36.813730,599620039435987688,-96.00
2025-12-25 16:58:36.813730,599620039435987688,-94.00
2025-12-25 16:58:36.813730,599620039435987688,-89.00
2025-12-25 16:58:36.813730,599620039435987688,-80.00
2025-12-25 16:58:36.813730,599620039435987688,-75.00
2025-12-25 16:58:36.813730,599620039435987688,-78.00
2025-12-25 16:58:36.813730,599620039435987688,-75.00
2025-12-25 16:58:36.813730,599620039435987688,-66.00
2025-12-25 16:58:36.813730,599620039435987688,-62.00
2025-12-25 16:58:36.813730,599620039435987688,-68.00
2025-12-25 16:58:36.813730,599620039435987688,-73.00
2025-12-25 16:58:36.813730,599620039435987688,-71.00
2025-12-25 16:58:36.813730,599620039435987688,-68.00
2025-12-25 16:58:36.813730,599620039435987688,-71.00
2025-12-25 16:58:36.813730,599620039435987688,-71.00
2025-12-25 16:58:36.813730,599620039435987688,-73.00
2025-12-25 16:58:36.813730,599620039435987688,-80.00
2025-12-25 16:58:36.813730,599620039435987688,-78.00
2025-12-25 16:58:36.813730,599620039435987688,-73.00
2025-12-25 16:58:36.813730,599620039435987688,-75.00
2025-12-25 16:58:36.813730,599620039435987688,-73.00
2025-12-25 16:58:36.813730,599620039435987688,-62.00
2025-12-25 16:58:36.813730,599620039435987688,-62.00
2025-12-25 16:58:36.813730,599620039435987688,-73.00
2025-12-25 16:58:36.813730,599620039435987688,-68.00
2025-12-25 16:58:36.813730,599620039435987688,-64.00
2025-12-25 16:58:36.813730,599620039435987688,-75.00
2025-12-25 16:58:37.375382,599620039996862749,-85.00
2025-12-25 16:58:37.375382,599620039996862749,-75.00
2025-12-25 16:58:37.375382,599620039996862749,-64.00
2025-12-25 16:58:37.375382,599620039996862749,-48.00
2025-12-25 16:58:37.375382,599620039996862749,-25.00
2025-12-25 16:58:37.375382,599620039996862749,-32.00
2025-12-25 16:58:37.375382,599620039996862749,-64.00
2025-12-25 16:58:37.375382,599620039996862749,-80.00
2025-12-25 16:58:37.375382,599620039996862749,-68.00
2025-12-25 16:58:37.375382,599620039996862749,-62.00
2025-12-25 16:58:37.375382,599620039996862749,-68.00
2025-12-25 16:58:37.375382,599620039996862749,-66.00
2025-12-25 16:58:37.375382,599620039996862749,-62.00
2025-12-25 16:58:37.375382,599620039996862749,-68.00
2025-12-25 16:58:37.375382,599620039996862749,-64.00
2025-12-25 16:58:37.375382,599620039996862749,-36.00
2025-12-25 16:58:37.375382,599620039996862749,55.00
2025-12-25 16:58:37.375382,599620039996862749,305.00
2025-12-25 16:58:37.375382,599620039996862749,618.00
2025-12-25 16:58:37.375382,599620039996862749,473.00
2025-12-25 16:58:37.375382,599620039996862749,-409.00
2025-12-25 16:58:37.375382,599620039996862749,-1089.00
2025-12-25 16:58:37.375382,599620039996862749,-742.00
2025-12-25 16:58:37.375382,599620039996862749,-183.00
2025-12-25 16:58:37.375382,599620039996862749,-94.00
2025-12-25 16:58:37.375382,599620039996862749,-78.00
2025-12-25 16:58:37.375382,599620039996862749,6.00
2025-12-25 16:58:37.375382,599620039996862749,-2.00
2025-12-25 16:58:37.375382,599620039996862749,-27.00
2025-12-25 16:58:37.375382,599620039996862749,-2.00
2025-12-25 16:58:37.375382,599620039996862749,6.00
2025-12-25 16:58:37.375382,599620039996862749,-2.00
2025-12-25 16:58:37.375382,599620039996862749,2.00
2025-12-25 16:58:37.375382,599620039996862749,6.00
2025-12-25 16:58:37.375382,599620039996862749,6.00
2025-12-25 16:58:37.375382,599620039996862749,13.00
2025-12-25 16:58:37.375382,599620039996862749,16.00
2025-12-25 16:58:37.375382,599620039996862749,9.00
2025-12-25 16:58:37.375382,599620039996862749,13.00
2025-12-25 16:58:37.375382,599620039996862749,25.00
2025-12-25 16:58:37.375382,599620039996862749,32.00
2025-12-25 16:58:37.375382,599620039996862749,36.00
2025-12-25 16:58:37.375382,599620039996862749,45.00
2025-12-25 16:58:37.375382,599620039996862749,52.00
2025-12-25 16:58:37.375382,599620039996862749,59.00
2025-12-25 16:58:37.375382,599620039996862749,75.00
2025-12-25 16:58:37.375382,599620039996862749,91.00
2025-12-25 16:58:37.375382,599620039996862749,94.00
2025-12-25 16:58:37.375382,599620039996862749,94.00
2025-12-25 16:58:37.375382,599620039996862749,96.00
2025-12-25 16:58:37.375382,599620039996862749,94.00
2025-12-25 16:58:37.375382,599620039996862749,82.00
2025-12-25 16:58:37.375382,599620039996862749,62.00
2025-12-25 16:58:37.375382,599620039996862749,34.00
2025-12-25 16:58:37.375382,599620039996862749,-9.00
2025-12-25 16:58:37.375382,599620039996862749,-52.00
2025-12-25 16:58:37.375382,599620039996862749,-87.00
2025-12-25 16:58:37.375382,599620039996862749,-110.00
2025-12-25 16:58:37.375382,599620039996862749,-128.00
2025-12-25 16:58:37.375382,599620039996862749,-137.00
2025-12-25 16:58:37.375382,599620039996862749,-142.00
2025-12-25 16:58:37.375382,599620039996862749,-144.00
2025-12-25 16:58:37.375382,599620039996862749,-142.00
2025-12-25 16:58:37.375382,599620039996862749,-142.00
2025-12-25 16:58:37.375382,599620039996862749,-144.00
2025-12-25 16:58:37.375382,599620039996862749,-142.00
2025-12-25 16:58:37.375382,599620039996862749,-135.00
2025-12-25 16:58:37.375382,599620039996862749,-131.00
2025-12-25 16:58:37.375382,599620039996862749,-126.00
2025-12-25 16:58:37.375382,599620039996862749,-124.00
2025-12-25 16:58:37.375382,599620039996862749,-117.00
2025-12-25 16:58:37.375382,599620039996862749,-112.00
2025-12-25 16:58:37.375382,599620039996862749,-110.00
2025-12-25 16:58:38.016695,599620040557717468,-108.00
2025-12-25 16:58:38.016695,599620040557717468,-101.00
2025-12-25 16:58:38.016695,599620040557717468,-94.00
2025-12-25 16:58:38.016695,599620040557717468,-89.00
2025-12-25 16:58:38.016695,599620040557717468,-87.00
2025-12-25 16:58:38.016695,599620040557717468,-85.00
2025-12-25 16:58:38.016695,599620040557717468,-75.00
2025-12-25 16:58:38.016695,599620040557717468,-62.00
2025-12-25 16:58:38.016695,599620040557717468,-66.00
2025-12-25 16:58:38.016695,599620040557717468,-78.00
2025-12-25 16:58:38.016695,599620040557717468,-75.00
2025-12-25 16:58:38.016695,599620040557717468,-66.00
2025-12-25 16:58:38.016695,599620040557717468,-57.00
2025-12-25 16:58:38.016695,599620040557717468,-52.00
2025-12-25 16:58:38.016695,599620040557717468,-59.00
2025-12-25 16:58:38.016695,599620040557717468,-64.00
2025-12-25 16:58:38.016695,599620040557717468,-57.00
2025-12-25 16:58:38.016695,599620040557717468,-52.00
2025-12-25 16:58:38.016695,599620040557717468,-52.00
2025-12-25 16:58:38.016695,599620040557717468,-62.00
2025-12-25 16:58:38.016695,599620040557717468,-68.00
2025-12-25 16:58:38.016695,599620040557717468,-64.00
2025-12-25 16:58:38.016695,599620040557717468,-55.00
2025-12-25 16:58:38.016695,599620040557717468,-36.00
2025-12-25 16:58:38.016695,599620040557717468,-20.00
2025-12-25 16:58:38.016695,599620040557717468,-36.00
2025-12-25 16:58:38.016695,599620040557717468,-66.00
2025-12-25 16:58:38.016695,599620040557717468,-71.00
2025-12-25 16:58:38.016695,599620040557717468,-71.00
2025-12-25 16:58:38.016695,599620040557717468,-78.00
2025-12-25 16:58:38.016695,599620040557717468,-78.00
2025-12-25 16:58:38.016695,599620040557717468,-78.00
2025-12-25 16:58:38.016695,599620040557717468,-87.00
2025-12-25 16:58:38.016695,599620040557717468,-91.00
2025-12-25 16:58:38.016695,599620040557717468,-89.00
2025-12-25 16:58:38.016695,599620040557717468,-64.00
2025-12-25 16:58:38.016695,599620040557717468,80.00
2025-12-25 16:58:38.016695,599620040557717468,429.00
2025-12-25 16:58:38.016695,599620040557717468,698.00
2025-12-25 16:58:38.016695,599620040557717468,227.00
2025-12-25 16:58:38.016695,599620040557717468,-832.00
2025-12-25 16:58:38.016695,599620040557717468,-1158.00
2025-12-25 16:58:38.016695,599620040557717468,-508.00
2025-12-25 16:58:38.016695,599620040557717468,-82.00
2025-12-25 16:58:38.016695,599620040557717468,-117.00
2025-12-25 16:58:38.016695,599620040557717468,-68.00
2025-12-25 16:58:38.016695,599620040557717468,-2.00
2025-12-25 16:58:38.016695,599620040557717468,-32.00
2025-12-25 16:58:38.016695,599620040557717468,-32.00
2025-12-25 16:58:38.016695,599620040557717468,0.00
2025-12-25 16:58:38.016695,599620040557717468,0.00
2025-12-25 16:58:38.016695,599620040557717468,-6.00
2025-12-25 16:58:38.016695,599620040557717468,2.00
2025-12-25 16:58:38.016695,599620040557717468,9.00
2025-12-25 16:58:38.016695,599620040557717468,9.00
2025-12-25 16:58:38.016695,599620040557717468,13.00
2025-12-25 16:58:38.016695,599620040557717468,16.00
2025-12-25 16:58:38.016695,599620040557717468,18.00
2025-12-25 16:58:38.016695,599620040557717468,25.00
2025-12-25 16:58:38.016695,599620040557717468,32.00
2025-12-25 16:58:38.016695,599620040557717468,36.00
2025-12-25 16:58:38.016695,599620040557717468,41.00
2025-12-25 16:58:38.016695,599620040557717468,48.00
2025-12-25 16:58:38.016695,599620040557717468,57.00
2025-12-25 16:58:38.016695,599620040557717468,71.00
2025-12-25 16:58:38.016695,599620040557717468,80.00
2025-12-25 16:58:38.016695,599620040557717468,89.00
2025-12-25 16:58:38.016695,599620040557717468,94.00
2025-12-25 16:58:38.016695,599620040557717468,94.00
2025-12-25 16:58:38.016695,599620040557717468,91.00
2025-12-25 16:58:38.016695,599620040557717468,87.00
2025-12-25 16:58:38.016695,599620040557717468,73.00
2025-12-25 16:58:38.016695,599620040557717468,39.00
2025-12-25 16:58:38.585490,599620041118597619,-6.00
2025-12-25 16:58:38.585490,599620041118597619,-52.00
2025-12-25 16:58:38.585490,599620041118597619,-94.00
2025-12-25 16:58:38.585490,599620041118597619,-114.00
2025-12-25 16:58:38.585490,599620041118597619,-119.00
2025-12-25 16:58:38.585490,599620041118597619,-133.00
2025-12-25 16:58:38.585490,599620041118597619,-144.00
2025-12-25 16:58:38.585490,599620041118597619,-147.00
2025-12-25 16:58:38.585490,599620041118597619,-140.00
2025-12-25 16:58:38.585490,599620041118597619,-137.00
2025-12-25 16:58:38.585490,599620041118597619,-135.00
2025-12-25 16:58:38.585490,599620041118597619,-131.00
2025-12-25 16:58:38.585490,599620041118597619,-126.00
2025-12-25 16:58:38.585490,599620041118597619,-121.00
2025-12-25 16:58:38.585490,599620041118597619,-119.00
2025-12-25 16:58:38.585490,599620041118597619,-103.00
2025-12-25 16:58:38.585490,599620041118597619,-85.00
2025-12-25 16:58:38.585490,599620041118597619,-87.00
2025-12-25 16:58:38.585490,599620041118597619,-89.00
2025-12-25 16:58:38.585490,599620041118597619,-85.00
2025-12-25 16:58:38.585490,599620041118597619,-80.00
2025-12-25 16:58:38.585490,599620041118597619,-64.00
2025-12-25 16:58:38.585490,599620041118597619,-55.00
2025-12-25 16:58:38.585490,599620041118597619,-62.00
2025-12-25 16:58:38.585490,599620041118597619,-66.00
2025-12-25 16:58:38.585490,599620041118597619,-64.00
2025-12-25 16:58:38.585490,599620041118597619,-64.00
2025-12-25 16:58:38.585490,599620041118597619,-66.00
2025-12-25 16:58:38.585490,599620041118597619,-68.00
2025-12-25 16:58:38.585490,599620041118597619,-71.00
2025-12-25 16:58:38.585490,599620041118597619,-68.00
2025-12-25 16:58:38.585490,599620041118597619,-62.00
2025-12-25 16:58:38.585490,599620041118597619,-52.00
2025-12-25 16:58:38.585490,599620041118597619,-50.00
2025-12-25 16:58:38.585490,599620041118597619,-52.00
2025-12-25 16:58:38.585490,599620041118597619,-50.00
2025-12-25 16:58:38.585490,599620041118597619,-55.00
2025-12-25 16:58:38.585490,599620041118597619,-59.00
2025-12-25 16:58:38.585490,599620041118597619,-57.00
2025-12-25 16:58:38.585490,599620041118597619,-52.00
2025-12-25 16:58:38.585490,599620041118597619,-52.00
2025-12-25 16:58:38.585490,599620041118597619,-57.00
2025-12-25 16:58:38.585490,599620041118597619,-66.00
2025-12-25 16:58:38.585490,599620041118597619,-68.00
2025-12-25 16:58:38.585490,599620041118597619,-57.00
2025-12-25 16:58:38.585490,599620041118597619,-41.00
2025-12-25 16:58:38.585490,599620041118597619,-22.00
2025-12-25 16:58:38.585490,599620041118597619,-27.00
2025-12-25 16:58:38.585490,599620041118597619,-55.00
2025-12-25 16:58:38.585490,599620041118597619,-68.00
2025-12-25 16:58:38.585490,599620041118597619,-66.00
2025-12-25 16:58:38.585490,599620041118597619,-68.00
2025-12-25 16:58:38.585490,599620041118597619,-75.00
2025-12-25 16:58:38.585490,599620041118597619,-80.00
2025-12-25 16:58:38.585490,599620041118597619,-80.00
2025-12-25 16:58:38.585490,599620041118597619,-78.00
2025-12-25 16:58:38.585490,599620041118597619,-75.00
2025-12-25 16:58:38.585490,599620041118597619,-80.00
2025-12-25 16:58:38.585490,599620041118597619,-32.00
2025-12-25 16:58:38.585490,599620041118597619,209.00
2025-12-25 16:58:38.585490,599620041118597619,600.00
2025-12-25 16:58:38.585490,599620041118597619,620.00
2025-12-25 16:58:38.585490,599620041118597619,-255.00
2025-12-25 16:58:38.585490,599620041118597619,-1193.00
2025-12-25 16:58:38.585490,599620041118597619,-928.00
2025-12-25 16:58:38.585490,599620041118597619,-179.00
2025-12-25 16:58:38.585490,599620041118597619,-59.00
2025-12-25 16:58:38.585490,599620041118597619,-147.00
2025-12-25 16:58:38.585490,599620041118597619,-45.00
2025-12-25 16:58:38.585490,599620041118597619,-13.00
2025-12-25 16:58:38.585490,599620041118597619,-57.00
2025-12-25 16:58:38.585490,599620041118597619,-32.00
2025-12-25 16:58:38.585490,599620041118597619,-4.00
2025-12-25 16:58:39.156760,599620041679477768,-16.00
2025-12-25 16:58:39.156760,599620041679477768,-11.00
2025-12-25 16:58:39.156760,599620041679477768,4.00
2025-12-25 16:58:39.156760,599620041679477768,0.00
2025-12-25 16:58:39.156760,599620041679477768,-4.00
2025-12-25 16:58:39.156760,599620041679477768,9.00
2025-12-25 16:58:39.156760,599620041679477768,13.00
2025-12-25 16:58:39.156760,599620041679477768,11.00
2025-12-25 16:58:39.156760,599620041679477768,9.00
2025-12-25 16:58:39.156760,599620041679477768,9.00
2025-12-25 16:58:39.156760,599620041679477768,16.00
2025-12-25 16:58:39.156760,599620041679477768,36.00
2025-12-25 16:58:39.156760,599620041679477768,59.00
2025-12-25 16:58:39.156760,599620041679477768,78.00
2025-12-25 16:58:39.156760,599620041679477768,94.00
2025-12-25 16:58:39.156760,599620041679477768,112.00
2025-12-25 16:58:39.156760,599620041679477768,124.00
2025-12-25 16:58:39.156760,599620041679477768,103.00
2025-12-25 16:58:39.156760,599620041679477768,96.00
2025-12-25 16:58:39.156760,599620041679477768,121.00
2025-12-25 16:58:39.156760,599620041679477768,110.00
2025-12-25 16:58:39.156760,599620041679477768,82.00
2025-12-25 16:58:39.156760,599620041679477768,64.00
2025-12-25 16:58:39.156760,599620041679477768,22.00
2025-12-25 16:58:39.156760,599620041679477768,-18.00
2025-12-25 16:58:39.156760,599620041679477768,-50.00
2025-12-25 16:58:39.156760,599620041679477768,-82.00
2025-12-25 16:58:39.156760,599620041679477768,-112.00
2025-12-25 16:58:39.156760,599620041679477768,-126.00
2025-12-25 16:58:39.156760,599620041679477768,-128.00
2025-12-25 16:58:39.156760,599620041679477768,-137.00
2025-12-25 16:58:39.156760,599620041679477768,-137.00
2025-12-25 16:58:39.156760,599620041679477768,-114.00
2025-12-25 16:58:39.156760,599620041679477768,-112.00
2025-12-25 16:58:39.156760,599620041679477768,-124.00
2025-12-25 16:58:39.156760,599620041679477768,-119.00
2025-12-25 16:58:39.156760,599620041679477768,-110.00
2025-12-25 16:58:39.156760,599620041679477768,-112.00
2025-12-25 16:58:39.156760,599620041679477768,-112.00
2025-12-25 16:58:39.156760,599620041679477768,-103.00
2025-12-25 16:58:39.156760,599620041679477768,-96.00
2025-12-25 16:58:39.156760,599620041679477768,-89.00
2025-12-25 16:58:39.156760,599620041679477768,-85.00
2025-12-25 16:58:39.156760,599620041679477768,-89.00
2025-12-25 16:58:39.156760,599620041679477768,-91.00
2025-12-25 16:58:39.156760,599620041679477768,-82.00
2025-12-25 16:58:39.156760,599620041679477768,-89.00
2025-12-25 16:58:39.156760,599620041679477768,-98.00
2025-12-25 16:58:39.156760,599620041679477768,-85.00
2025-12-25 16:58:39.156760,599620041679477768,-80.00
2025-12-25 16:58:39.156760,599620041679477768,-96.00
2025-12-25 16:58:39.156760,599620041679477768,-103.00
2025-12-25 16:58:39.156760,599620041679477768,-98.00
2025-12-25 16:58:39.156760,599620041679477768,-94.00
2025-12-25 16:58:39.156760,599620041679477768,-96.00
2025-12-25 16:58:39.156760,599620041679477768,-98.00
2025-12-25 16:58:39.156760,599620041679477768,-98.00
2025-12-25 16:58:39.156760,599620041679477768,-96.00
2025-12-25 16:58:39.156760,599620041679477768,-91.00
2025-12-25 16:58:39.156760,599620041679477768,-73.00
2025-12-25 16:58:39.156760,599620041679477768,-55.00
2025-12-25 16:58:39.156760,599620041679477768,-62.00
2025-12-25 16:58:39.156760,599620041679477768,-82.00
2025-12-25 16:58:39.156760,599620041679477768,-91.00
2025-12-25 16:58:39.156760,599620041679477768,-82.00
2025-12-25 16:58:39.156760,599620041679477768,-64.00
2025-12-25 16:58:39.156760,599620041679477768,-73.00
2025-12-25 16:58:39.156760,599620041679477768,-96.00
2025-12-25 16:58:39.156760,599620041679477768,-89.00
2025-12-25 16:58:39.156760,599620041679477768,-80.00
2025-12-25 16:58:39.156760,599620041679477768,-89.00
2025-12-25 16:58:39.156760,599620041679477768,-85.00
2025-12-25 16:58:39.156760,599620041679477768,-66.00
2025-12-25 16:58:39.732447,599620042240342657,-45.00
2025-12-25 16:58:39.732447,599620042240342657,-34.00
2025-12-25 16:58:39.732447,599620042240342657,-48.00
2025-12-25 16:58:39.732447,599620042240342657,-66.00
2025-12-25 16:58:39.732447,599620042240342657,-68.00
2025-12-25 16:58:39.732447,599620042240342657,-75.00
2025-12-25 16:58:39.732447,599620042240342657,-89.00
2025-12-25 16:58:39.732447,599620042240342657,-91.00
2025-12-25 16:58:39.732447,599620042240342657,-82.00
2025-12-25 16:58:39.732447,599620042240342657,-75.00
2025-12-25 16:58:39.732447,599620042240342657,-71.00
2025-12-25 16:58:39.732447,599620042240342657,-78.00
2025-12-25 16:58:39.732447,599620042240342657,-71.00
2025-12-25 16:58:39.732447,599620042240342657,43.00
2025-12-25 16:58:39.732447,599620042240342657,344.00
2025-12-25 16:58:39.732447,599620042240342657,636.00
2025-12-25 16:58:39.732447,599620042240342657,365.00
2025-12-25 16:58:39.732447,599620042240342657,-604.00
2025-12-25 16:58:39.732447,599620042240342657,-1163.00
2025-12-25 16:58:39.732447,599620042240342657,-634.00
2025-12-25 16:58:39.732447,599620042240342657,-75.00
2025-12-25 16:58:39.732447,599620042240342657,-78.00
2025-12-25 16:58:39.732447,599620042240342657,-91.00
2025-12-25 16:58:39.732447,599620042240342657,-2.00
2025-12-25 16:58:39.732447,599620042240342657,-9.00
2025-12-25 16:58:39.732447,599620042240342657,-29.00
2025-12-25 16:58:39.732447,599620042240342657,2.00
2025-12-25 16:58:39.732447,599620042240342657,18.00
2025-12-25 16:58:39.732447,599620042240342657,16.00
2025-12-25 16:58:39.732447,599620042240342657,16.00
2025-12-25 16:58:39.732447,599620042240342657,18.00
2025-12-25 16:58:39.732447,599620042240342657,16.00
2025-12-25 16:58:39.732447,599620042240342657,13.00
2025-12-25 16:58:39.732447,599620042240342657,25.00
2025-12-25 16:58:39.732447,599620042240342657,32.00
2025-12-25 16:58:39.732447,599620042240342657,29.00
2025-12-25 16:58:39.732447,599620042240342657,32.00
2025-12-25 16:58:39.732447,599620042240342657,43.00
2025-12-25 16:58:39.732447,599620042240342657,48.00
2025-12-25 16:58:39.732447,599620042240342657,45.00
2025-12-25 16:58:39.732447,599620042240342657,57.00
2025-12-25 16:58:39.732447,599620042240342657,78.00
2025-12-25 16:58:39.732447,599620042240342657,82.00
2025-12-25 16:58:39.732447,599620042240342657,85.00
2025-12-25 16:58:39.732447,599620042240342657,91.00
2025-12-25 16:58:39.732447,599620042240342657,98.00
2025-12-25 16:58:39.732447,599620042240342657,101.00
2025-12-25 16:58:39.732447,599620042240342657,96.00
2025-12-25 16:58:39.732447,599620042240342657,82.00
2025-12-25 16:58:39.732447,599620042240342657,64.00
2025-12-25 16:58:39.732447,599620042240342657,32.00
2025-12-25 16:58:39.732447,599620042240342657,-13.00
2025-12-25 16:58:39.732447,599620042240342657,-59.00
2025-12-25 16:58:39.732447,599620042240342657,-94.00
2025-12-25 16:58:39.732447,599620042240342657,-114.00
2025-12-25 16:58:39.732447,599620042240342657,-131.00
2025-12-25 16:58:39.732447,599620042240342657,-140.00
2025-12-25 16:58:39.732447,599620042240342657,-142.00
2025-12-25 16:58:39.732447,599620042240342657,-142.00
2025-12-25 16:58:39.732447,599620042240342657,-140.00
2025-12-25 16:58:39.732447,599620042240342657,-128.00
2025-12-25 16:58:39.732447,599620042240342657,-121.00
2025-12-25 16:58:39.732447,599620042240342657,-124.00
2025-12-25 16:58:39.732447,599620042240342657,-121.00
2025-12-25 16:58:39.732447,599620042240342657,-121.00
2025-12-25 16:58:39.732447,599620042240342657,-128.00
2025-12-25 16:58:39.732447,599620042240342657,-124.00
2025-12-25 16:58:39.732447,599620042240342657,-101.00
2025-12-25 16:58:39.732447,599620042240342657,-85.00
2025-12-25 16:58:39.732447,599620042240342657,-94.00
2025-12-25 16:58:39.732447,599620042240342657,-101.00
2025-12-25 16:58:39.732447,599620042240342657,-96.00
2025-12-25 16:58:39.732447,599620042240342657,-94.00
2025-12-25 16:58:40.170042,599620042801207548,-98.00
2025-12-25 16:58:40.170042,599620042801207548,-98.00
2025-12-25 16:58:40.170042,599620042801207548,-96.00
2025-12-25 16:58:40.170042,599620042801207548,-98.00
2025-12-25 16:58:40.170042,599620042801207548,-103.00
2025-12-25 16:58:40.170042,599620042801207548,-98.00
2025-12-25 16:58:40.170042,599620042801207548,-89.00
2025-12-25 16:58:40.170042,599620042801207548,-75.00
2025-12-25 16:58:40.170042,599620042801207548,-64.00
2025-12-25 16:58:40.170042,599620042801207548,-59.00
2025-12-25 16:58:40.170042,599620042801207548,-57.00
2025-12-25 16:58:40.170042,599620042801207548,-57.00
2025-12-25 16:58:40.170042,599620042801207548,-57.00
2025-12-25 16:58:40.170042,599620042801207548,-57.00
2025-12-25 16:58:40.170042,599620042801207548,-52.00
2025-12-25 16:58:40.170042,599620042801207548,-55.00
2025-12-25 16:58:40.170042,599620042801207548,-55.00
2025-12-25 16:58:40.170042,599620042801207548,-55.00
2025-12-25 16:58:40.170042,599620042801207548,-50.00
2025-12-25 16:58:40.170042,599620042801207548,-41.00
2025-12-25 16:58:40.170042,599620042801207548,-39.00
2025-12-25 16:58:40.170042,599620042801207548,-43.00
2025-12-25 16:58:40.170042,599620042801207548,-43.00
2025-12-25 16:58:40.170042,599620042801207548,-45.00
2025-12-25 16:58:40.170042,599620042801207548,-41.00
2025-12-25 16:58:40.170042,599620042801207548,-29.00
2025-12-25 16:58:40.170042,599620042801207548,-29.00
2025-12-25 16:58:40.170042,599620042801207548,-39.00
2025-12-25 16:58:40.170042,599620042801207548,-43.00
2025-12-25 16:58:40.170042,599620042801207548,-48.00
2025-12-25 16:58:40.170042,599620042801207548,-45.00
2025-12-25 16:58:40.170042,599620042801207548,-43.00
2025-12-25 16:58:40.170042,599620042801207548,-48.00
2025-12-25 16:58:40.170042,599620042801207548,-57.00
2025-12-25 16:58:40.170042,599620042801207548,-62.00
2025-12-25 16:58:40.170042,599620042801207548,-55.00
2025-12-25 16:58:40.170042,599620042801207548,-39.00
2025-12-25 16:58:40.170042,599620042801207548,-29.00
2025-12-25 16:58:40.170042,599620042801207548,-22.00
2025-12-25 16:58:40.170042,599620042801207548,-27.00
2025-12-25 16:58:40.170042,599620042801207548,-52.00
2025-12-25 16:58:40.170042,599620042801207548,-71.00
2025-12-25 16:58:40.170042,599620042801207548,-66.00
2025-12-25 16:58:40.170042,599620042801207548,-66.00
2025-12-25 16:58:40.170042,599620042801207548,-75.00
2025-12-25 16:58:40.170042,599620042801207548,-78.00
2025-12-25 16:58:40.170042,599620042801207548,-78.00
2025-12-25 16:58:40.170042,599620042801207548,-80.00
2025-12-25 16:58:40.170042,599620042801207548,-80.00
2025-12-25 16:58:40.170042,599620042801207548,-78.00
2025-12-25 16:58:40.170042,599620042801207548,-29.00
2025-12-25 16:58:40.170042,599620042801207548,167.00
2025-12-25 16:58:40.170042,599620042801207548,501.00
2025-12-25 16:58:40.170042,599620042801207548,558.00
2025-12-25 16:58:40.170042,599620042801207548,-151.00
2025-12-25 16:58:40.170042,599620042801207548,-1029.00
2025-12-25 16:58:40.170042,599620042801207548,-928.00
2025-12-25 16:58:40.170042,599620042801207548,-287.00
2025-12-25 16:58:40.170042,599620042801207548,-89.00
2025-12-25 16:58:40.170042,599620042801207548,-119.00
2025-12-25 16:58:40.170042,599620042801207548,-43.00
2025-12-25 16:58:40.170042,599620042801207548,-22.00
2025-12-25 16:58:40.170042,599620042801207548,-52.00
2025-12-25 16:58:40.170042,599620042801207548,-34.00
2025-12-25 16:58:40.170042,599620042801207548,-18.00
2025-12-25 16:58:40.170042,599620042801207548,-27.00
2025-12-25 16:58:40.170042,599620042801207548,-20.00
2025-12-25 16:58:40.170042,599620042801207548,-9.00
2025-12-25 16:58:40.170042,599620042801207548,-11.00
2025-12-25 16:58:40.170042,599620042801207548,-13.00
2025-12-25 16:58:40.170042,599620042801207548,-4.00
2025-12-25 16:58:40.170042,599620042801207548,0.00
2025-12-25 16:58:40.170042,599620042801207548,6.00
2025-12-25 16:58:40.690435,599620043362087697,11.00
2025-12-25 16:58:40.690435,599620043362087697,16.00
2025-12-25 16:58:40.690435,599620043362087697,25.00
2025-12-25 16:58:40.690435,599620043362087697,36.00
2025-12-25 16:58:40.690435,599620043362087697,45.00
2025-12-25 16:58:40.690435,599620043362087697,57.00
2025-12-25 16:58:40.690435,599620043362087697,66.00
2025-12-25 16:58:40.690435,599620043362087697,71.00
2025-12-25 16:58:40.690435,599620043362087697,73.00
2025-12-25 16:58:40.690435,599620043362087697,82.00
2025-12-25 16:58:40.690435,599620043362087697,101.00
2025-12-25 16:58:40.690435,599620043362087697,112.00
2025-12-25 16:58:40.690435,599620043362087697,105.00
2025-12-25 16:58:40.690435,599620043362087697,87.00
2025-12-25 16:58:40.690435,599620043362087697,66.00
2025-12-25 16:58:40.690435,599620043362087697,32.00
2025-12-25 16:58:40.690435,599620043362087697,-9.00
2025-12-25 16:58:40.690435,599620043362087697,-45.00
2025-12-25 16:58:40.690435,599620043362087697,-80.00
2025-12-25 16:58:40.690435,599620043362087697,-108.00
2025-12-25 16:58:40.690435,599620043362087697,-121.00
2025-12-25 16:58:40.690435,599620043362087697,-124.00
2025-12-25 16:58:40.690435,599620043362087697,-124.00
2025-12-25 16:58:40.690435,599620043362087697,-126.00
2025-12-25 16:58:40.690435,599620043362087697,-126.00
2025-12-25 16:58:40.690435,599620043362087697,-124.00
2025-12-25 16:58:40.690435,599620043362087697,-124.00
2025-12-25 16:58:40.690435,599620043362087697,-121.00
2025-12-25 16:58:40.690435,599620043362087697,-114.00
2025-12-25 16:58:40.690435,599620043362087697,-110.00
2025-12-25 16:58:40.690435,599620043362087697,-108.00
2025-12-25 16:58:40.690435,599620043362087697,-103.00
2025-12-25 16:58:40.690435,599620043362087697,-94.00
2025-12-25 16:58:40.690435,599620043362087697,-89.00
2025-12-25 16:58:40.690435,599620043362087697,-85.00
2025-12-25 16:58:40.690435,599620043362087697,-82.00
2025-12-25 16:58:40.690435,599620043362087697,-78.00
2025-12-25 16:58:40.690435,599620043362087697,-73.00
2025-12-25 16:58:40.690435,599620043362087697,-73.00
2025-12-25 16:58:40.690435,599620043362087697,-73.00
2025-12-25 16:58:40.690435,599620043362087697,-68.00
2025-12-25 16:58:40.690435,599620043362087697,-68.00
2025-12-25 16:58:40.690435,599620043362087697,-73.00
2025-12-25 16:58:40.690435,599620043362087697,-73.00
2025-12-25 16:58:40.690435,599620043362087697,-75.00
2025-12-25 16:58:40.690435,599620043362087697,-78.00
2025-12-25 16:58:40.690435,599620043362087697,-78.00
2025-12-25 16:58:40.690435,599620043362087697,-78.00
2025-12-25 16:58:40.690435,599620043362087697,-80.00
2025-12-25 16:58:40.690435,599620043362087697,-80.00
2025-12-25 16:58:40.690435,599620043362087697,-85.00
2025-12-25 16:58:40.690435,599620043362087697,-85.00
2025-12-25 16:58:40.690435,599620043362087697,-80.00
2025-12-25 16:58:40.690435,599620043362087697,-80.00
2025-12-25 16:58:40.690435,599620043362087697,-82.00
2025-12-25 16:58:40.690435,599620043362087697,-87.00
2025-12-25 16:58:40.690435,599620043362087697,-87.00
2025-12-25 16:58:40.690435,599620043362087697,-85.00
2025-12-25 16:58:40.690435,599620043362087697,-85.00
2025-12-25 16:58:40.690435,599620043362087697,-85.00
2025-12-25 16:58:40.690435,599620043362087697,-87.00
2025-12-25 16:58:40.690435,599620043362087697,-91.00
2025-12-25 16:58:40.690435,599620043362087697,-91.00
2025-12-25 16:58:40.690435,599620043362087697,-91.00
2025-12-25 16:58:40.690435,599620043362087697,-91.00
2025-12-25 16:58:40.690435,599620043362087697,-91.00
2025-12-25 16:58:40.690435,599620043362087697,-91.00
2025-12-25 16:58:40.690435,599620043362087697,-87.00
2025-12-25 16:58:40.690435,599620043362087697,-78.00
2025-12-25 16:58:40.690435,599620043362087697,-75.00
2025-12-25 16:58:40.690435,599620043362087697,-78.00
2025-12-25 16:58:40.690435,599620043362087697,-78.00
2025-12-25 16:58:40.690435,599620043362087697,-78.00
2025-12-25 16:58:41.213786,599620043922967844,-82.00
2025-12-25 16:58:41.213786,599620043922967844,-85.00
2025-12-25 16:58:41.213786,599620043922967844,-75.00
2025-12-25 16:58:41.213786,599620043922967844,-64.00
2025-12-25 16:58:41.213786,599620043922967844,-55.00
2025-12-25 16:58:41.213786,599620043922967844,-39.00
2025-12-25 16:58:41.213786,599620043922967844,-43.00
2025-12-25 16:58:41.213786,599620043922967844,-64.00
2025-12-25 16:58:41.213786,599620043922967844,-68.00
2025-12-25 16:58:41.213786,599620043922967844,-66.00
2025-12-25 16:58:41.213786,599620043922967844,-75.00
2025-12-25 16:58:41.213786,599620043922967844,-80.00
2025-12-25 16:58:41.213786,599620043922967844,-80.00
2025-12-25 16:58:41.213786,599620043922967844,-82.00
2025-12-25 16:58:41.213786,599620043922967844,-85.00
2025-12-25 16:58:41.213786,599620043922967844,-87.00
2025-12-25 16:58:41.213786,599620043922967844,-82.00
2025-12-25 16:58:41.213786,599620043922967844,-16.00
2025-12-25 16:58:41.213786,599620043922967844,206.00
2025-12-25 16:58:41.213786,599620043922967844,528.00
2025-12-25 16:58:41.213786,599620043922967844,487.00
2025-12-25 16:58:41.213786,599620043922967844,-308.00
2025-12-25 16:58:41.213786,599620043922967844,-1075.00
2025-12-25 16:58:41.213786,599620043922967844,-818.00
2025-12-25 16:58:41.213786,599620043922967844,-204.00
2025-12-25 16:58:41.213786,599620043922967844,-87.00
2025-12-25 16:58:41.213786,599620043922967844,-114.00
2025-12-25 16:58:41.213786,599620043922967844,-39.00
2025-12-25 16:58:41.213786,599620043922967844,-22.00
2025-12-25 16:58:41.213786,599620043922967844,-43.00
2025-12-25 16:58:41.213786,599620043922967844,-22.00
2025-12-25 16:58:41.213786,599620043922967844,-9.00
2025-12-25 16:58:41.213786,599620043922967844,-11.00
2025-12-25 16:58:41.213786,599620043922967844,-4.00
2025-12-25 16:58:41.213786,599620043922967844,2.00
2025-12-25 16:58:41.213786,599620043922967844,2.00
2025-12-25 16:58:41.213786,599620043922967844,4.00
2025-12-25 16:58:41.213786,599620043922967844,13.00
2025-12-25 16:58:41.213786,599620043922967844,16.00
2025-12-25 16:58:41.213786,599620043922967844,18.00
2025-12-25 16:58:41.213786,599620043922967844,22.00
2025-12-25 16:58:41.213786,599620043922967844,27.00
2025-12-25 16:58:41.213786,599620043922967844,34.00
2025-12-25 16:58:41.213786,599620043922967844,41.00
2025-12-25 16:58:41.213786,599620043922967844,45.00
2025-12-25 16:58:41.213786,599620043922967844,50.00
2025-12-25 16:58:41.213786,599620043922967844,62.00
2025-12-25 16:58:41.213786,599620043922967844,68.00
2025-12-25 16:58:41.213786,599620043922967844,78.00
2025-12-25 16:58:41.213786,599620043922967844,89.00
2025-12-25 16:58:41.213786,599620043922967844,94.00
2025-12-25 16:58:41.213786,599620043922967844,94.00
2025-12-25 16:58:41.213786,599620043922967844,94.00
2025-12-25 16:58:41.213786,599620043922967844,82.00
2025-12-25 16:58:41.213786,599620043922967844,59.00
2025-12-25 16:58:41.213786,599620043922967844,25.00
2025-12-25 16:58:41.213786,599620043922967844,-16.00
2025-12-25 16:58:41.213786,599620043922967844,-55.00
2025-12-25 16:58:41.213786,599620043922967844,-82.00
2025-12-25 16:58:41.213786,599620043922967844,-94.00
2025-12-25 16:58:41.213786,599620043922967844,-96.00
2025-12-25 16:58:41.213786,599620043922967844,-103.00
2025-12-25 16:58:41.213786,599620043922967844,-110.00
2025-12-25 16:58:41.213786,599620043922967844,-110.00
2025-12-25 16:58:41.213786,599620043922967844,-108.00
2025-12-25 16:58:41.213786,599620043922967844,-110.00
2025-12-25 16:58:41.213786,599620043922967844,-105.00
2025-12-25 16:58:41.213786,599620043922967844,-103.00
2025-12-25 16:58:41.213786,599620043922967844,-101.00
2025-12-25 16:58:41.213786,599620043922967844,-98.00
2025-12-25 16:58:41.213786,599620043922967844,-96.00
2025-12-25 16:58:41.213786,599620043922967844,-94.00
2025-12-25 16:58:41.213786,599620043922967844,-89.00
2025-12-25 16:58:41.898045,599620044483847997,-91.00
2025-12-25 16:58:41.898045,599620044483847997,-91.00
2025-12-25 16:58:41.898045,599620044483847997,-89.00
2025-12-25 16:58:41.898045,599620044483847997,-85.00
2025-12-25 16:58:41.898045,599620044483847997,-80.00
2025-12-25 16:58:41.898045,599620044483847997,-71.00
2025-12-25 16:58:41.898045,599620044483847997,-64.00
2025-12-25 16:58:41.898045,599620044483847997,-71.00
2025-12-25 16:58:41.898045,599620044483847997,-75.00
2025-12-25 16:58:41.898045,599620044483847997,-75.00
2025-12-25 16:58:41.898045,599620044483847997,-75.00
2025-12-25 16:58:41.898045,599620044483847997,-78.00
2025-12-25 16:58:41.898045,599620044483847997,-80.00
2025-12-25 16:58:41.898045,599620044483847997,-82.00
2025-12-25 16:58:41.898045,599620044483847997,-85.00
2025-12-25 16:58:41.898045,599620044483847997,-87.00
2025-12-25 16:58:41.898045,599620044483847997,-87.00
2025-12-25 16:58:41.898045,599620044483847997,-85.00
2025-12-25 16:58:41.898045,599620044483847997,-85.00
2025-12-25 16:58:41.898045,599620044483847997,-80.00
2025-12-25 16:58:41.898045,599620044483847997,-78.00
2025-12-25 16:58:41.898045,599620044483847997,-80.00
2025-12-25 16:58:41.898045,599620044483847997,-82.00
2025-12-25 16:58:41.898045,599620044483847997,-78.00
2025-12-25 16:58:41.898045,599620044483847997,-80.00
2025-12-25 16:58:41.898045,599620044483847997,-85.00
2025-12-25 16:58:41.898045,599620044483847997,-85.00
2025-12-25 16:58:41.898045,599620044483847997,-82.00
2025-12-25 16:58:41.898045,599620044483847997,-82.00
2025-12-25 16:58:41.898045,599620044483847997,-85.00
2025-12-25 16:58:41.898045,599620044483847997,-91.00
2025-12-25 16:58:41.898045,599620044483847997,-91.00
2025-12-25 16:58:41.898045,599620044483847997,-87.00
2025-12-25 16:58:41.898045,599620044483847997,-87.00
2025-12-25 16:58:41.898045,599620044483847997,-87.00
2025-12-25 16:58:41.898045,599620044483847997,-87.00
2025-12-25 16:58:41.898045,599620044483847997,-89.00
2025-12-25 16:58:41.898045,599620044483847997,-91.00
2025-12-25 16:58:41.898045,599620044483847997,-91.00
2025-12-25 16:58:41.898045,599620044483847997,-91.00
2025-12-25 16:58:41.898045,599620044483847997,-91.00
2025-12-25 16:58:41.898045,599620044483847997,-89.00
2025-12-25 16:58:41.898045,599620044483847997,-82.00
2025-12-25 16:58:41.898045,599620044483847997,-71.00
2025-12-25 16:58:41.898045,599620044483847997,-55.00
2025-12-25 16:58:41.898045,599620044483847997,-48.00
2025-12-25 16:58:41.898045,599620044483847997,-71.00
2025-12-25 16:58:41.898045,599620044483847997,-96.00
2025-12-25 16:58:41.898045,599620044483847997,-96.00
2025-12-25 16:58:41.898045,599620044483847997,-96.00
2025-12-25 16:58:41.898045,599620044483847997,-103.00
2025-12-25 16:58:41.898045,599620044483847997,-98.00
2025-12-25 16:58:41.898045,599620044483847997,-87.00
2025-12-25 16:58:41.898045,599620044483847997,-80.00
2025-12-25 16:58:41.898045,599620044483847997,-80.00
2025-12-25 16:58:41.898045,599620044483847997,-80.00
2025-12-25 16:58:41.898045,599620044483847997,-48.00
2025-12-25 16:58:41.898045,599620044483847997,96.00
2025-12-25 16:58:41.898045,599620044483847997,395.00
2025-12-25 16:58:41.898045,599620044483847997,588.00
2025-12-25 16:58:41.898045,599620044483847997,142.00
2025-12-25 16:58:41.898045,599620044483847997,-781.00
2025-12-25 16:58:41.898045,599620044483847997,-1046.00
2025-12-25 16:58:41.898045,599620044483847997,-464.00
2025-12-25 16:58:41.898045,599620044483847997,-80.00
2025-12-25 16:58:41.898045,599620044483847997,-96.00
2025-12-25 16:58:41.898045,599620044483847997,-62.00
2025-12-25 16:58:41.898045,599620044483847997,-6.00
2025-12-25 16:58:41.898045,599620044483847997,-29.00
2025-12-25 16:58:41.898045,599620044483847997,-27.00
2025-12-25 16:58:41.898045,599620044483847997,0.00
2025-12-25 16:58:41.898045,599620044483847997,2.00
2025-12-25 16:58:41.898045,599620044483847997,-4.00
2025-12-25 16:58:42.383374,599620045044707800,6.00
2025-12-25 16:58:42.383374,599620045044707800,16.00
2025-12-25 16:58:42.383374,599620045044707800,20.00
2025-12-25 16:58:42.383374,599620045044707800,27.00
2025-12-25 16:58:42.383374,599620045044707800,32.00
2025-12-25 16:58:42.383374,599620045044707800,34.00
2025-12-25 16:58:42.383374,599620045044707800,34.00
2025-12-25 16:58:42.383374,599620045044707800,41.00
2025-12-25 16:58:42.383374,599620045044707800,55.00
2025-12-25 16:58:42.383374,599620045044707800,62.00
2025-12-25 16:58:42.383374,599620045044707800,66.00
2025-12-25 16:58:42.383374,599620045044707800,73.00
2025-12-25 16:58:42.383374,599620045044707800,82.00
2025-12-25 16:58:42.383374,599620045044707800,101.00
2025-12-25 16:58:42.383374,599620045044707800,126.00
2025-12-25 16:58:42.383374,599620045044707800,135.00
2025-12-25 16:58:42.383374,599620045044707800,131.00
2025-12-25 16:58:42.383374,599620045044707800,126.00
2025-12-25 16:58:42.383374,599620045044707800,121.00
2025-12-25 16:58:42.383374,599620045044707800,117.00
2025-12-25 16:58:42.383374,599620045044707800,101.00
2025-12-25 16:58:42.383374,599620045044707800,73.00
2025-12-25 16:58:42.383374,599620045044707800,27.00
2025-12-25 16:58:42.383374,599620045044707800,-20.00
2025-12-25 16:58:42.383374,599620045044707800,-55.00
2025-12-25 16:58:42.383374,599620045044707800,-75.00
2025-12-25 16:58:42.383374,599620045044707800,-94.00
2025-12-25 16:58:42.383374,599620045044707800,-105.00
2025-12-25 16:58:42.383374,599620045044707800,-110.00
2025-12-25 16:58:42.383374,599620045044707800,-117.00
2025-12-25 16:58:42.383374,599620045044707800,-121.00
2025-12-25 16:58:42.383374,599620045044707800,-119.00
2025-12-25 16:58:42.383374,599620045044707800,-114.00
2025-12-25 16:58:42.383374,599620045044707800,-114.00
2025-12-25 16:58:42.383374,599620045044707800,-117.00
2025-12-25 16:58:42.383374,599620045044707800,-112.00
2025-12-25 16:58:42.383374,599620045044707800,-112.00
2025-12-25 16:58:42.383374,599620045044707800,-103.00
2025-12-25 16:58:42.383374,599620045044707800,-96.00
2025-12-25 16:58:42.383374,599620045044707800,-98.00
2025-12-25 16:58:42.383374,599620045044707800,-98.00
2025-12-25 16:58:42.383374,599620045044707800,-98.00
2025-12-25 16:58:42.383374,599620045044707800,-98.00
2025-12-25 16:58:42.383374,599620045044707800,-91.00
2025-12-25 16:58:42.383374,599620045044707800,-82.00
2025-12-25 16:58:42.383374,599620045044707800,-82.00
2025-12-25 16:58:42.383374,599620045044707800,-78.00
2025-12-25 16:58:42.383374,599620045044707800,-78.00
2025-12-25 16:58:42.383374,599620045044707800,-82.00
2025-12-25 16:58:42.383374,599620045044707800,-82.00
2025-12-25 16:58:42.383374,599620045044707800,-82.00
2025-12-25 16:58:42.383374,599620045044707800,-87.00
2025-12-25 16:58:42.383374,599620045044707800,-89.00
2025-12-25 16:58:42.383374,599620045044707800,-89.00
2025-12-25 16:58:42.383374,599620045044707800,-98.00
2025-12-25 16:58:42.383374,599620045044707800,-101.00
2025-12-25 16:58:42.383374,599620045044707800,-94.00
2025-12-25 16:58:42.383374,599620045044707800,-91.00
2025-12-25 16:58:42.383374,599620045044707800,-96.00
2025-12-25 16:58:42.383374,599620045044707800,-103.00
2025-12-25 16:58:42.383374,599620045044707800,-98.00
2025-12-25 16:58:42.383374,599620045044707800,-89.00
2025-12-25 16:58:42.383374,599620045044707800,-94.00
2025-12-25 16:58:42.383374,599620045044707800,-98.00
2025-12-25 16:58:42.383374,599620045044707800,-101.00
2025-12-25 16:58:42.383374,599620045044707800,-103.00
2025-12-25 16:58:42.383374,599620045044707800,-101.00
2025-12-25 16:58:42.383374,599620045044707800,-94.00
2025-12-25 16:58:42.383374,599620045044707800,-98.00
2025-12-25 16:58:42.383374,599620045044707800,-103.00
2025-12-25 16:58:42.383374,599620045044707800,-103.00
2025-12-25 16:58:42.383374,599620045044707800,-108.00
2025-12-25 16:58:42.383374,599620045044707800,-103.00
2025-12-25 16:58:42.938614,599620045605593035,-85.00
2025-12-25 16:58:42.938614,599620045605593035,-68.00
2025-12-25 16:58:42.938614,599620045605593035,-55.00
2025-12-25 16:58:42.938614,599620045605593035,-52.00
2025-12-25 16:58:42.938614,599620045605593035,-75.00
2025-12-25 16:58:42.938614,599620045605593035,-91.00
2025-12-25 16:58:42.938614,599620045605593035,-89.00
2025-12-25 16:58:42.938614,599620045605593035,-91.00
2025-12-25 16:58:42.938614,599620045605593035,-94.00
2025-12-25 16:58:42.938614,599620045605593035,-89.00
2025-12-25 16:58:42.938614,599620045605593035,-87.00
2025-12-25 16:58:42.938614,599620045605593035,-78.00
2025-12-25 16:58:42.938614,599620045605593035,-64.00
2025-12-25 16:58:42.938614,599620045605593035,-59.00
2025-12-25 16:58:42.938614,599620045605593035,-2.00
2025-12-25 16:58:42.938614,599620045605593035,220.00
2025-12-25 16:58:42.938614,599620045605593035,551.00
2025-12-25 16:58:42.938614,599620045605593035,540.00
2025-12-25 16:58:42.938614,599620045605593035,-234.00
2025-12-25 16:58:42.938614,599620045605593035,-1036.00
2025-12-25 16:58:42.938614,599620045605593035,-862.00
2025-12-25 16:58:42.938614,599620045605593035,-278.00
2025-12-25 16:58:42.938614,599620045605593035,-112.00
2025-12-25 16:58:42.938614,599620045605593035,-98.00
2025-12-25 16:58:42.938614,599620045605593035,-18.00
2025-12-25 16:58:42.938614,599620045605593035,-13.00
2025-12-25 16:58:42.938614,599620045605593035,-29.00
2025-12-25 16:58:42.938614,599620045605593035,-2.00
2025-12-25 16:58:42.938614,599620045605593035,6.00
2025-12-25 16:58:42.938614,599620045605593035,4.00
2025-12-25 16:58:42.938614,599620045605593035,11.00
2025-12-25 16:58:42.938614,599620045605593035,18.00
2025-12-25 16:58:42.938614,599620045605593035,22.00
2025-12-25 16:58:42.938614,599620045605593035,25.00
2025-12-25 16:58:42.938614,599620045605593035,32.00
2025-12-25 16:58:42.938614,599620045605593035,34.00
2025-12-25 16:58:42.938614,599620045605593035,39.00
2025-12-25 16:58:42.938614,599620045605593035,45.00
2025-12-25 16:58:42.938614,599620045605593035,55.00
2025-12-25 16:58:42.938614,599620045605593035,73.00
2025-12-25 16:58:42.938614,599620045605593035,82.00
2025-12-25 16:58:42.938614,599620045605593035,80.00
2025-12-25 16:58:42.938614,599620045605593035,87.00
2025-12-25 16:58:42.938614,599620045605593035,98.00
2025-12-25 16:58:42.938614,599620045605593035,105.00
2025-12-25 16:58:42.938614,599620045605593035,112.00
2025-12-25 16:58:42.938614,599620045605593035,117.00
2025-12-25 16:58:42.938614,599620045605593035,119.00
2025-12-25 16:58:42.938614,599620045605593035,114.00
2025-12-25 16:58:42.938614,599620045605593035,108.00
2025-12-25 16:58:42.938614,599620045605593035,89.00
2025-12-25 16:58:42.938614,599620045605593035,62.00
2025-12-25 16:58:42.938614,599620045605593035,27.00
2025-12-25 16:58:42.938614,599620045605593035,-16.00
2025-12-25 16:58:42.938614,599620045605593035,-62.00
2025-12-25 16:58:42.938614,599620045605593035,-91.00
2025-12-25 16:58:42.938614,599620045605593035,-110.00
2025-12-25 16:58:42.938614,599620045605593035,-128.00
2025-12-25 16:58:42.938614,599620045605593035,-137.00
2025-12-25 16:58:42.938614,599620045605593035,-137.00
2025-12-25 16:58:42.938614,599620045605593035,-137.00
2025-12-25 16:58:42.938614,599620045605593035,-140.00
2025-12-25 16:58:42.938614,599620045605593035,-137.00
2025-12-25 16:58:42.938614,599620045605593035,-135.00
2025-12-25 16:58:42.938614,599620045605593035,-131.00
2025-12-25 16:58:42.938614,599620045605593035,-124.00
2025-12-25 16:58:42.938614,599620045605593035,-114.00
2025-12-25 16:58:42.938614,599620045605593035,-112.00
2025-12-25 16:58:42.938614,599620045605593035,-112.00
2025-12-25 16:58:42.938614,599620045605593035,-110.00
2025-12-25 16:58:42.938614,599620045605593035,-105.00
2025-12-25 16:58:42.938614,599620045605593035,-105.00
2025-12-25 16:58:42.938614,599620045605593035,-103.00
2025-12-25 16:58:43.542337,599620046166457926,-101.00
2025-12-25 16:58:43.542337,599620046166457926,-103.00
2025-12-25 16:58:43.542337,599620046166457926,-101.00
2025-12-25 16:58:43.542337,599620046166457926,-98.00
2025-12-25 16:58:43.542337,599620046166457926,-103.00
2025-12-25 16:58:43.542337,599620046166457926,-103.00
2025-12-25 16:58:43.542337,599620046166457926,-103.00
2025-12-25 16:58:43.542337,599620046166457926,-103.00
2025-12-25 16:58:43.542337,599620046166457926,-94.00
2025-12-25 16:58:43.542337,599620046166457926,-82.00
2025-12-25 16:58:43.542337,599620046166457926,-87.00
2025-12-25 16:58:43.542337,599620046166457926,-91.00
2025-12-25 16:58:43.542337,599620046166457926,-89.00
2025-12-25 16:58:43.542337,599620046166457926,-91.00
2025-12-25 16:58:43.542337,599620046166457926,-89.00
2025-12-25 16:58:43.542337,599620046166457926,-87.00
2025-12-25 16:58:43.542337,599620046166457926,-94.00
2025-12-25 16:58:43.542337,599620046166457926,-96.00
2025-12-25 16:58:43.542337,599620046166457926,-91.00
2025-12-25 16:58:43.542337,599620046166457926,-89.00
2025-12-25 16:58:43.542337,599620046166457926,-91.00
2025-12-25 16:58:43.542337,599620046166457926,-94.00
2025-12-25 16:58:43.542337,599620046166457926,-96.00
2025-12-25 16:58:43.542337,599620046166457926,-91.00
2025-12-25 16:58:43.542337,599620046166457926,-85.00
2025-12-25 16:58:43.542337,599620046166457926,-82.00
2025-12-25 16:58:43.542337,599620046166457926,-89.00
2025-12-25 16:58:43.542337,599620046166457926,-94.00
2025-12-25 16:58:43.542337,599620046166457926,-89.00
2025-12-25 16:58:43.542337,599620046166457926,-80.00
2025-12-25 16:58:43.542337,599620046166457926,-59.00
2025-12-25 16:58:43.542337,599620046166457926,-36.00
2025-12-25 16:58:43.542337,599620046166457926,-36.00
2025-12-25 16:58:43.542337,599620046166457926,-66.00
2025-12-25 16:58:43.542337,599620046166457926,-87.00
2025-12-25 16:58:43.542337,599620046166457926,-85.00
2025-12-25 16:58:43.542337,599620046166457926,-85.00
2025-12-25 16:58:43.542337,599620046166457926,-89.00
2025-12-25 16:58:43.542337,599620046166457926,-87.00
2025-12-25 16:58:43.542337,599620046166457926,-89.00
2025-12-25 16:58:43.542337,599620046166457926,-94.00
2025-12-25 16:58:43.542337,599620046166457926,-94.00
2025-12-25 16:58:43.542337,599620046166457926,-78.00
2025-12-25 16:58:43.542337,599620046166457926,6.00
2025-12-25 16:58:43.542337,599620046166457926,259.00
2025-12-25 16:58:43.542337,599620046166457926,572.00
2025-12-25 16:58:43.542337,599620046166457926,434.00
2025-12-25 16:58:43.542337,599620046166457926,-450.00
2025-12-25 16:58:43.542337,599620046166457926,-1135.00
2025-12-25 16:58:43.542337,599620046166457926,-756.00
2025-12-25 16:58:43.542337,599620046166457926,-163.00
2025-12-25 16:58:43.542337,599620046166457926,-85.00
2025-12-25 16:58:43.542337,599620046166457926,-96.00
2025-12-25 16:58:43.542337,599620046166457926,-16.00
2025-12-25 16:58:43.542337,599620046166457926,-18.00
2025-12-25 16:58:43.542337,599620046166457926,-39.00
2025-12-25 16:58:43.542337,599620046166457926,-11.00
2025-12-25 16:58:43.542337,599620046166457926,2.00
2025-12-25 16:58:43.542337,599620046166457926,-6.00
2025-12-25 16:58:43.542337,599620046166457926,-6.00
2025-12-25 16:58:43.542337,599620046166457926,6.00
2025-12-25 16:58:43.542337,599620046166457926,11.00
2025-12-25 16:58:43.542337,599620046166457926,13.00
2025-12-25 16:58:43.542337,599620046166457926,18.00
2025-12-25 16:58:43.542337,599620046166457926,25.00
2025-12-25 16:58:43.542337,599620046166457926,29.00
2025-12-25 16:58:43.542337,599620046166457926,43.00
2025-12-25 16:58:43.542337,599620046166457926,52.00
2025-12-25 16:58:43.542337,599620046166457926,57.00
2025-12-25 16:58:43.542337,599620046166457926,64.00
2025-12-25 16:58:43.542337,599620046166457926,73.00
2025-12-25 16:58:43.542337,599620046166457926,82.00
2025-12-25 16:58:43.542337,599620046166457926,94.00
2025-12-25 16:58:44.112473,599620046727332987,103.00
2025-12-25 16:58:44.112473,599620046727332987,110.00
2025-12-25 16:58:44.112473,599620046727332987,114.00
2025-12-25 16:58:44.112473,599620046727332987,114.00
2025-12-25 16:58:44.112473,599620046727332987,110.00
2025-12-25 16:58:44.112473,599620046727332987,110.00
2025-12-25 16:58:44.112473,599620046727332987,103.00
2025-12-25 16:58:44.112473,599620046727332987,73.00
2025-12-25 16:58:44.112473,599620046727332987,27.00
2025-12-25 16:58:44.112473,599620046727332987,-11.00
2025-12-25 16:58:44.112473,599620046727332987,-48.00
2025-12-25 16:58:44.112473,599620046727332987,-75.00
2025-12-25 16:58:44.112473,599620046727332987,-91.00
2025-12-25 16:58:44.112473,599620046727332987,-105.00
2025-12-25 16:58:44.112473,599620046727332987,-114.00
2025-12-25 16:58:44.112473,599620046727332987,-114.00
2025-12-25 16:58:44.112473,599620046727332987,-108.00
2025-12-25 16:58:44.112473,599620046727332987,-105.00
2025-12-25 16:58:44.112473,599620046727332987,-105.00
2025-12-25 16:58:44.112473,599620046727332987,-105.00
2025-12-25 16:58:44.112473,599620046727332987,-103.00
2025-12-25 16:58:44.112473,599620046727332987,-101.00
2025-12-25 16:58:44.112473,599620046727332987,-98.00
2025-12-25 16:58:44.112473,599620046727332987,-94.00
2025-12-25 16:58:44.112473,599620046727332987,-87.00
2025-12-25 16:58:44.112473,599620046727332987,-78.00
2025-12-25 16:58:44.112473,599620046727332987,-75.00
2025-12-25 16:58:44.112473,599620046727332987,-78.00
2025-12-25 16:58:44.112473,599620046727332987,-78.00
2025-12-25 16:58:44.112473,599620046727332987,-71.00
2025-12-25 16:58:44.112473,599620046727332987,-71.00
2025-12-25 16:58:44.112473,599620046727332987,-78.00
2025-12-25 16:58:44.112473,599620046727332987,-80.00
2025-12-25 16:58:44.112473,599620046727332987,-80.00
2025-12-25 16:58:44.112473,599620046727332987,-80.00
2025-12-25 16:58:44.112473,599620046727332987,-78.00
2025-12-25 16:58:44.112473,599620046727332987,-80.00
2025-12-25 16:58:44.112473,599620046727332987,-82.00
2025-12-25 16:58:44.112473,599620046727332987,-87.00
2025-12-25 16:58:44.112473,599620046727332987,-89.00
2025-12-25 16:58:44.112473,599620046727332987,-89.00
2025-12-25 16:58:44.112473,599620046727332987,-85.00
2025-12-25 16:58:44.112473,599620046727332987,-85.00
2025-12-25 16:58:44.112473,599620046727332987,-89.00
2025-12-25 16:58:44.112473,599620046727332987,-91.00
2025-12-25 16:58:44.112473,599620046727332987,-91.00
2025-12-25 16:58:44.112473,599620046727332987,-91.00
2025-12-25 16:58:44.112473,599620046727332987,-89.00
2025-12-25 16:58:44.112473,599620046727332987,-82.00
2025-12-25 16:58:44.112473,599620046727332987,-85.00
2025-12-25 16:58:44.112473,599620046727332987,-91.00
2025-12-25 16:58:44.112473,599620046727332987,-89.00
2025-12-25 16:58:44.112473,599620046727332987,-87.00
2025-12-25 16:58:44.112473,599620046727332987,-85.00
2025-12-25 16:58:44.112473,599620046727332987,-87.00
2025-12-25 16:58:44.112473,599620046727332987,-94.00
2025-12-25 16:58:44.112473,599620046727332987,-96.00
2025-12-25 16:58:44.112473,599620046727332987,-89.00
2025-12-25 16:58:44.112473,599620046727332987,-73.00
2025-12-25 16:58:44.112473,599620046727332987,-50.00
2025-12-25 16:58:44.112473,599620046727332987,-43.00
2025-12-25 16:58:44.112473,599620046727332987,-66.00
2025-12-25 16:58:44.112473,599620046727332987,-89.00
2025-12-25 16:58:44.112473,599620046727332987,-96.00
2025-12-25 16:58:44.112473,599620046727332987,-94.00
2025-12-25 16:58:44.112473,599620046727332987,-98.00
2025-12-25 16:58:44.112473,599620046727332987,-101.00
2025-12-25 16:58:44.112473,599620046727332987,-103.00
2025-12-25 16:58:44.112473,599620046727332987,-105.00
2025-12-25 16:58:44.112473,599620046727332987,-108.00
2025-12-25 16:58:44.112473,599620046727332987,-105.00
2025-12-25 16:58:44.112473,599620046727332987,-73.00
2025-12-25 16:58:44.112473,599620046727332987,64.00
2025-12-25 16:58:44.674589,599620047288187706,367.00
2025-12-25 16:58:44.674589,599620047288187706,581.00
2025-12-25 16:58:44.674589,599620047288187706,133.00
2025-12-25 16:58:44.674589,599620047288187706,-827.00
2025-12-25 16:58:44.674589,599620047288187706,-1105.00
2025-12-25 16:58:44.674589,599620047288187706,-485.00
2025-12-25 16:58:44.674589,599620047288187706,-75.00
2025-12-25 16:58:44.674589,599620047288187706,-108.00
2025-12-25 16:58:44.674589,599620047288187706,-73.00
2025-12-25 16:58:44.674589,599620047288187706,0.00
2025-12-25 16:58:44.674589,599620047288187706,-18.00
2025-12-25 16:58:44.674589,599620047288187706,-25.00
2025-12-25 16:58:44.674589,599620047288187706,0.00
2025-12-25 16:58:44.674589,599620047288187706,2.00
2025-12-25 16:58:44.674589,599620047288187706,6.00
2025-12-25 16:58:44.674589,599620047288187706,29.00
2025-12-25 16:58:44.674589,599620047288187706,41.00
2025-12-25 16:58:44.674589,599620047288187706,43.00
2025-12-25 16:58:44.674589,599620047288187706,50.00
2025-12-25 16:58:44.674589,599620047288187706,52.00
2025-12-25 16:58:44.674589,599620047288187706,52.00
2025-12-25 16:58:44.674589,599620047288187706,62.00
2025-12-25 16:58:44.674589,599620047288187706,66.00
2025-12-25 16:58:44.674589,599620047288187706,68.00
2025-12-25 16:58:44.674589,599620047288187706,71.00
2025-12-25 16:58:44.674589,599620047288187706,75.00
2025-12-25 16:58:44.674589,599620047288187706,82.00
2025-12-25 16:58:44.674589,599620047288187706,94.00
2025-12-25 16:58:44.674589,599620047288187706,101.00
2025-12-25 16:58:44.674589,599620047288187706,108.00
2025-12-25 16:58:44.674589,599620047288187706,114.00
2025-12-25 16:58:44.674589,599620047288187706,121.00
2025-12-25 16:58:44.674589,599620047288187706,124.00
2025-12-25 16:58:44.674589,599620047288187706,121.00
2025-12-25 16:58:44.674589,599620047288187706,112.00
2025-12-25 16:58:44.674589,599620047288187706,87.00
2025-12-25 16:58:44.674589,599620047288187706,52.00
2025-12-25 16:58:44.674589,599620047288187706,11.00
2025-12-25 16:58:44.674589,599620047288187706,-25.00
2025-12-25 16:58:44.674589,599620047288187706,-52.00
2025-12-25 16:58:44.674589,599620047288187706,-78.00
2025-12-25 16:58:44.674589,599620047288187706,-94.00
2025-12-25 16:58:44.674589,599620047288187706,-103.00
2025-12-25 16:58:44.674589,599620047288187706,-108.00
2025-12-25 16:58:44.674589,599620047288187706,-105.00
2025-12-25 16:58:44.674589,599620047288187706,-103.00
2025-12-25 16:58:44.674589,599620047288187706,-103.00
2025-12-25 16:58:44.674589,599620047288187706,-101.00
2025-12-25 16:58:44.674589,599620047288187706,-101.00
2025-12-25 16:58:44.674589,599620047288187706,-98.00
2025-12-25 16:58:44.674589,599620047288187706,-94.00
2025-12-25 16:58:44.674589,599620047288187706,-91.00
2025-12-25 16:58:44.674589,599620047288187706,-87.00
2025-12-25 16:58:44.674589,599620047288187706,-85.00
2025-12-25 16:58:44.674589,599620047288187706,-87.00
2025-12-25 16:58:44.674589,599620047288187706,-85.00
2025-12-25 16:58:44.674589,599620047288187706,-80.00
2025-12-25 16:58:44.674589,599620047288187706,-78.00
2025-12-25 16:58:44.674589,599620047288187706,-80.00
2025-12-25 16:58:44.674589,599620047288187706,-80.00
2025-12-25 16:58:44.674589,599620047288187706,-80.00
2025-12-25 16:58:44.674589,599620047288187706,-82.00
2025-12-25 16:58:44.674589,599620047288187706,-82.00
2025-12-25 16:58:44.674589,599620047288187706,-82.00
2025-12-25 16:58:44.674589,599620047288187706,-85.00
2025-12-25 16:58:44.674589,599620047288187706,-87.00
2025-12-25 16:58:44.674589,599620047288187706,-89.00
2025-12-25 16:58:44.674589,599620047288187706,-87.00
2025-12-25 16:58:44.674589,599620047288187706,-87.00
2025-12-25 16:58:44.674589,599620047288187706,-89.00
2025-12-25 16:58:44.674589,599620047288187706,-85.00
2025-12-25 16:58:44.674589,599620047288187706,-80.00
2025-12-25 16:58:44.674589,599620047288187706,-85.00
2025-12-25 16:58:45.167038,599620047849067857,-85.00
2025-12-25 16:58:45.167038,599620047849067857,-80.00
2025-12-25 16:58:45.167038,599620047849067857,-85.00
2025-12-25 16:58:45.167038,599620047849067857,-87.00
2025-12-25 16:58:45.167038,599620047849067857,-85.00
2025-12-25 16:58:45.167038,599620047849067857,-80.00
2025-12-25 16:58:45.167038,599620047849067857,-71.00
2025-12-25 16:58:45.167038,599620047849067857,-62.00
2025-12-25 16:58:45.167038,599620047849067857,-66.00
2025-12-25 16:58:45.167038,599620047849067857,-71.00
2025-12-25 16:58:45.167038,599620047849067857,-62.00
2025-12-25 16:58:45.167038,599620047849067857,-50.00
2025-12-25 16:58:45.167038,599620047849067857,-41.00
2025-12-25 16:58:45.167038,599620047849067857,-41.00
2025-12-25 16:58:45.167038,599620047849067857,-48.00
2025-12-25 16:58:45.167038,599620047849067857,-52.00
2025-12-25 16:58:45.167038,599620047849067857,-52.00
2025-12-25 16:58:45.167038,599620047849067857,-48.00
2025-12-25 16:58:45.167038,599620047849067857,-36.00
2025-12-25 16:58:45.167038,599620047849067857,-27.00
2025-12-25 16:58:45.167038,599620047849067857,-16.00
2025-12-25 16:58:45.167038,599620047849067857,-18.00
2025-12-25 16:58:45.167038,599620047849067857,-45.00
2025-12-25 16:58:45.167038,599620047849067857,-64.00
2025-12-25 16:58:45.167038,599620047849067857,-66.00
2025-12-25 16:58:45.167038,599620047849067857,-71.00
2025-12-25 16:58:45.167038,599620047849067857,-75.00
2025-12-25 16:58:45.167038,599620047849067857,-78.00
2025-12-25 16:58:45.167038,599620047849067857,-80.00
2025-12-25 16:58:45.167038,599620047849067857,-82.00
2025-12-25 16:58:45.167038,599620047849067857,-82.00
2025-12-25 16:58:45.167038,599620047849067857,-73.00
2025-12-25 16:58:45.167038,599620047849067857,-9.00
2025-12-25 16:58:45.167038,599620047849067857,216.00
2025-12-25 16:58:45.167038,599620047849067857,531.00
2025-12-25 16:58:45.167038,599620047849067857,485.00
2025-12-25 16:58:45.167038,599620047849067857,-310.00
2025-12-25 16:58:45.167038,599620047849067857,-1085.00
2025-12-25 16:58:45.167038,599620047849067857,-827.00
2025-12-25 16:58:45.167038,599620047849067857,-195.00
2025-12-25 16:58:45.167038,599620047849067857,-68.00
2025-12-25 16:58:45.167038,599620047849067857,-105.00
2025-12-25 16:58:45.167038,599620047849067857,-32.00
2025-12-25 16:58:45.167038,599620047849067857,-22.00
2025-12-25 16:58:45.167038,599620047849067857,-52.00
2025-12-25 16:58:45.167038,599620047849067857,-29.00
2025-12-25 16:58:45.167038,599620047849067857,-11.00
2025-12-25 16:58:45.167038,599620047849067857,-20.00
2025-12-25 16:58:45.167038,599620047849067857,-18.00
2025-12-25 16:58:45.167038,599620047849067857,-11.00
2025-12-25 16:58:45.167038,599620047849067857,-9.00
2025-12-25 16:58:45.167038,599620047849067857,-6.00
2025-12-25 16:58:45.167038,599620047849067857,0.00
2025-12-25 16:58:45.167038,599620047849067857,9.00
2025-12-25 16:58:45.167038,599620047849067857,16.00
2025-12-25 16:58:45.167038,599620047849067857,18.00
2025-12-25 16:58:45.167038,599620047849067857,22.00
2025-12-25 16:58:45.167038,599620047849067857,32.00
2025-12-25 16:58:45.167038,599620047849067857,39.00
2025-12-25 16:58:45.167038,599620047849067857,45.00
2025-12-25 16:58:45.167038,599620047849067857,52.00
2025-12-25 16:58:45.167038,599620047849067857,64.00
2025-12-25 16:58:45.167038,599620047849067857,78.00
2025-12-25 16:58:45.167038,599620047849067857,87.00
2025-12-25 16:58:45.167038,599620047849067857,89.00
2025-12-25 16:58:45.167038,599620047849067857,91.00
2025-12-25 16:58:45.167038,599620047849067857,89.00
2025-12-25 16:58:45.167038,599620047849067857,80.00
2025-12-25 16:58:45.167038,599620047849067857,64.00
2025-12-25 16:58:45.167038,599620047849067857,43.00
2025-12-25 16:58:45.167038,599620047849067857,13.00
2025-12-25 16:58:45.167038,599620047849067857,-20.00
2025-12-25 16:58:45.167038,599620047849067857,-55.00
2025-12-25 16:58:45.809812,599620048409927660,-80.00
2025-12-25 16:58:45.809812,599620048409927660,-101.00
2025-12-25 16:58:45.809812,599620048409927660,-108.00
2025-12-25 16:58:45.809812,599620048409927660,-103.00
2025-12-25 16:58:45.809812,599620048409927660,-98.00
2025-12-25 16:58:45.809812,599620048409927660,-105.00
2025-12-25 16:58:45.809812,599620048409927660,-105.00
2025-12-25 16:58:45.809812,599620048409927660,-101.00
2025-12-25 16:58:45.809812,599620048409927660,-94.00
2025-12-25 16:58:45.809812,599620048409927660,-82.00
2025-12-25 16:58:45.809812,599620048409927660,-71.00
2025-12-25 16:58:45.809812,599620048409927660,-71.00
2025-12-25 16:58:45.809812,599620048409927660,-73.00
2025-12-25 16:58:45.809812,599620048409927660,-68.00
2025-12-25 16:58:45.809812,599620048409927660,-64.00
2025-12-25 16:58:45.809812,599620048409927660,-64.00
2025-12-25 16:58:45.809812,599620048409927660,-64.00
2025-12-25 16:58:45.809812,599620048409927660,-66.00
2025-12-25 16:58:45.809812,599620048409927660,-66.00
2025-12-25 16:58:45.809812,599620048409927660,-68.00
2025-12-25 16:58:45.809812,599620048409927660,-64.00
2025-12-25 16:58:45.809812,599620048409927660,-59.00
2025-12-25 16:58:45.809812,599620048409927660,-62.00
2025-12-25 16:58:45.809812,599620048409927660,-66.00
2025-12-25 16:58:45.809812,599620048409927660,-71.00
2025-12-25 16:58:45.809812,599620048409927660,-71.00
2025-12-25 16:58:45.809812,599620048409927660,-71.00
2025-12-25 16:58:45.809812,599620048409927660,-71.00
2025-12-25 16:58:45.809812,599620048409927660,-75.00
2025-12-25 16:58:45.809812,599620048409927660,-78.00
2025-12-25 16:58:45.809812,599620048409927660,-80.00
2025-12-25 16:58:45.809812,599620048409927660,-80.00
2025-12-25 16:58:45.809812,599620048409927660,-80.00
2025-12-25 16:58:45.809812,599620048409927660,-78.00
2025-12-25 16:58:45.809812,599620048409927660,-82.00
2025-12-25 16:58:45.809812,599620048409927660,-85.00
2025-12-25 16:58:45.809812,599620048409927660,-85.00
2025-12-25 16:58:45.809812,599620048409927660,-87.00
2025-12-25 16:58:45.809812,599620048409927660,-85.00
2025-12-25 16:58:45.809812,599620048409927660,-78.00
2025-12-25 16:58:45.809812,599620048409927660,-82.00
2025-12-25 16:58:45.809812,599620048409927660,-87.00
2025-12-25 16:58:45.809812,599620048409927660,-89.00
2025-12-25 16:58:45.809812,599620048409927660,-91.00
2025-12-25 16:58:45.809812,599620048409927660,-89.00
2025-12-25 16:58:45.809812,599620048409927660,-87.00
2025-12-25 16:58:45.809812,599620048409927660,-91.00
2025-12-25 16:58:45.809812,599620048409927660,-94.00
2025-12-25 16:58:45.809812,599620048409927660,-94.00
2025-12-25 16:58:45.809812,599620048409927660,-94.00
2025-12-25 16:58:45.809812,599620048409927660,-91.00
2025-12-25 16:58:45.809812,599620048409927660,-91.00
2025-12-25 16:58:45.809812,599620048409927660,-91.00
2025-12-25 16:58:45.809812,599620048409927660,-87.00
2025-12-25 16:58:45.809812,599620048409927660,-87.00
2025-12-25 16:58:45.809812,599620048409927660,-87.00
2025-12-25 16:58:45.809812,599620048409927660,-75.00
2025-12-25 16:58:45.809812,599620048409927660,-64.00
2025-12-25 16:58:45.809812,599620048409927660,-55.00
2025-12-25 16:58:45.809812,599620048409927660,-50.00
2025-12-25 16:58:45.809812,599620048409927660,-68.00
2025-12-25 16:58:45.809812,599620048409927660,-89.00
2025-12-25 16:58:45.809812,599620048409927660,-87.00
2025-12-25 16:58:45.809812,599620048409927660,-87.00
2025-12-25 16:58:45.809812,599620048409927660,-98.00
2025-12-25 16:58:45.809812,599620048409927660,-101.00
2025-12-25 16:58:45.809812,599620048409927660,-98.00
2025-12-25 16:58:45.809812,599620048409927660,-101.00
2025-12-25 16:58:45.809812,599620048409927660,-96.00
2025-12-25 16:58:45.809812,599620048409927660,-85.00
2025-12-25 16:58:45.809812,599620048409927660,-55.00
2025-12-25 16:58:45.809812,599620048409927660,89.00
2025-12-25 16:58:45.809812,599620048409927660,395.00
2025-12-25 16:58:46.384397,599620048970812895,567.00
2025-12-25 16:58:46.384397,599620048970812895,71.00
2025-12-25 16:58:46.384397,599620048970812895,-848.00
2025-12-25 16:58:46.384397,599620048970812895,-1043.00
2025-12-25 16:58:46.384397,599620048970812895,-443.00
2025-12-25 16:58:46.384397,599620048970812895,-89.00
2025-12-25 16:58:46.384397,599620048970812895,-112.00
2025-12-25 16:58:46.384397,599620048970812895,-66.00
2025-12-25 16:58:46.384397,599620048970812895,-16.00
2025-12-25 16:58:46.384397,599620048970812895,-43.00
2025-12-25 16:58:46.384397,599620048970812895,-36.00
2025-12-25 16:58:46.384397,599620048970812895,-6.00
2025-12-25 16:58:46.384397,599620048970812895,0.00
2025-12-25 16:58:46.384397,599620048970812895,11.00
2025-12-25 16:58:46.384397,599620048970812895,22.00
2025-12-25 16:58:46.384397,599620048970812895,16.00
2025-12-25 16:58:46.384397,599620048970812895,16.00
2025-12-25 16:58:46.384397,599620048970812895,25.00
2025-12-25 16:58:46.384397,599620048970812895,39.00
2025-12-25 16:58:46.384397,599620048970812895,52.00
2025-12-25 16:58:46.384397,599620048970812895,52.00
2025-12-25 16:58:46.384397,599620048970812895,50.00
2025-12-25 16:58:46.384397,599620048970812895,55.00
2025-12-25 16:58:46.384397,599620048970812895,59.00
2025-12-25 16:58:46.384397,599620048970812895,66.00
2025-12-25 16:58:46.384397,599620048970812895,75.00
2025-12-25 16:58:46.384397,599620048970812895,82.00
2025-12-25 16:58:46.384397,599620048970812895,89.00
2025-12-25 16:58:46.384397,599620048970812895,98.00
2025-12-25 16:58:46.384397,599620048970812895,108.00
2025-12-25 16:58:46.384397,599620048970812895,114.00
2025-12-25 16:58:46.384397,599620048970812895,119.00
2025-12-25 16:58:46.384397,599620048970812895,112.00
2025-12-25 16:58:46.384397,599620048970812895,98.00
2025-12-25 16:58:46.384397,599620048970812895,78.00
2025-12-25 16:58:46.384397,599620048970812895,50.00
2025-12-25 16:58:46.384397,599620048970812895,22.00
2025-12-25 16:58:46.384397,599620048970812895,-9.00
2025-12-25 16:58:46.384397,599620048970812895,-50.00
2025-12-25 16:58:46.384397,599620048970812895,-80.00
2025-12-25 16:58:46.384397,599620048970812895,-96.00
2025-12-25 16:58:46.384397,599620048970812895,-105.00
2025-12-25 16:58:46.384397,599620048970812895,-110.00
2025-12-25 16:58:46.384397,599620048970812895,-110.00
2025-12-25 16:58:46.384397,599620048970812895,-103.00
2025-12-25 16:58:46.384397,599620048970812895,-98.00
2025-12-25 16:58:46.384397,599620048970812895,-101.00
2025-12-25 16:58:46.384397,599620048970812895,-101.00
2025-12-25 16:58:46.384397,599620048970812895,-101.00
2025-12-25 16:58:46.384397,599620048970812895,-98.00
2025-12-25 16:58:46.384397,599620048970812895,-94.00
2025-12-25 16:58:46.384397,599620048970812895,-94.00
2025-12-25 16:58:46.384397,599620048970812895,-94.00
2025-12-25 16:58:46.384397,599620048970812895,-89.00
2025-12-25 16:58:46.384397,599620048970812895,-87.00
2025-12-25 16:58:46.384397,599620048970812895,-87.00
2025-12-25 16:58:46.384397,599620048970812895,-89.00
2025-12-25 16:58:46.384397,599620048970812895,-89.00
2025-12-25 16:58:46.384397,599620048970812895,-91.00
2025-12-25 16:58:46.384397,599620048970812895,-94.00
2025-12-25 16:58:46.384397,599620048970812895,-91.00
2025-12-25 16:58:46.384397,599620048970812895,-82.00
2025-12-25 16:58:46.384397,599620048970812895,-80.00
2025-12-25 16:58:46.384397,599620048970812895,-85.00
2025-12-25 16:58:46.384397,599620048970812895,-85.00
2025-12-25 16:58:46.384397,599620048970812895,-82.00
2025-12-25 16:58:46.384397,599620048970812895,-85.00
2025-12-25 16:58:46.384397,599620048970812895,-87.00
2025-12-25 16:58:46.384397,599620048970812895,-89.00
2025-12-25 16:58:46.384397,599620048970812895,-89.00
2025-12-25 16:58:46.384397,599620048970812895,-91.00
2025-12-25 16:58:46.384397,599620048970812895,-96.00
2025-12-25 16:58:46.384397,599620048970812895,-94.00
2025-12-25 16:58:46.892536,599620049531677786,-91.00
2025-12-25 16:58:46.892536,599620049531677786,-94.00
2025-12-25 16:58:46.892536,599620049531677786,-96.00
2025-12-25 16:58:46.892536,599620049531677786,-89.00
2025-12-25 16:58:46.892536,599620049531677786,-82.00
2025-12-25 16:58:46.892536,599620049531677786,-87.00
2025-12-25 16:58:46.892536,599620049531677786,-89.00
2025-12-25 16:58:46.892536,599620049531677786,-87.00
2025-12-25 16:58:46.892536,599620049531677786,-87.00
2025-12-25 16:58:46.892536,599620049531677786,-82.00
2025-12-25 16:58:46.892536,599620049531677786,-73.00
2025-12-25 16:58:46.892536,599620049531677786,-73.00
2025-12-25 16:58:46.892536,599620049531677786,-78.00
2025-12-25 16:58:46.892536,599620049531677786,-78.00
2025-12-25 16:58:46.892536,599620049531677786,-82.00
2025-12-25 16:58:46.892536,599620049531677786,-75.00
2025-12-25 16:58:46.892536,599620049531677786,-57.00
2025-12-25 16:58:46.892536,599620049531677786,-43.00
2025-12-25 16:58:46.892536,599620049531677786,-32.00
2025-12-25 16:58:46.892536,599620049531677786,-20.00
2025-12-25 16:58:46.892536,599620049531677786,-39.00
2025-12-25 16:58:46.892536,599620049531677786,-68.00
2025-12-25 16:58:46.892536,599620049531677786,-75.00
2025-12-25 16:58:46.892536,599620049531677786,-75.00
2025-12-25 16:58:46.892536,599620049531677786,-80.00
2025-12-25 16:58:46.892536,599620049531677786,-80.00
2025-12-25 16:58:46.892536,599620049531677786,-78.00
2025-12-25 16:58:46.892536,599620049531677786,-82.00
2025-12-25 16:58:46.892536,599620049531677786,-85.00
2025-12-25 16:58:46.892536,599620049531677786,-85.00
2025-12-25 16:58:46.892536,599620049531677786,-62.00
2025-12-25 16:58:46.892536,599620049531677786,73.00
2025-12-25 16:58:46.892536,599620049531677786,377.00
2025-12-25 16:58:46.892536,599620049531677786,600.00
2025-12-25 16:58:46.892536,599620049531677786,179.00
2025-12-25 16:58:46.892536,599620049531677786,-756.00
2025-12-25 16:58:46.892536,599620049531677786,-1073.00
2025-12-25 16:58:46.892536,599620049531677786,-537.00
2025-12-25 16:58:46.892536,599620049531677786,-144.00
2025-12-25 16:58:46.892536,599620049531677786,-114.00
2025-12-25 16:58:46.892536,599620049531677786,-50.00
2025-12-25 16:58:46.892536,599620049531677786,-2.00
2025-12-25 16:58:46.892536,599620049531677786,-32.00
2025-12-25 16:58:46.892536,599620049531677786,-25.00
2025-12-25 16:58:46.892536,599620049531677786,-2.00
2025-12-25 16:58:46.892536,599620049531677786,-6.00
2025-12-25 16:58:46.892536,599620049531677786,-9.00
2025-12-25 16:58:46.892536,599620049531677786,-2.00
2025-12-25 16:58:46.892536,599620049531677786,4.00
2025-12-25 16:58:46.892536,599620049531677786,6.00
2025-12-25 16:58:46.892536,599620049531677786,11.00
2025-12-25 16:58:46.892536,599620049531677786,16.00
2025-12-25 16:58:46.892536,599620049531677786,18.00
2025-12-25 16:58:46.892536,599620049531677786,25.00
2025-12-25 16:58:46.892536,599620049531677786,39.00
2025-12-25 16:58:46.892536,599620049531677786,45.00
2025-12-25 16:58:46.892536,599620049531677786,50.00
2025-12-25 16:58:46.892536,599620049531677786,64.00
2025-12-25 16:58:46.892536,599620049531677786,73.00
2025-12-25 16:58:46.892536,599620049531677786,82.00
2025-12-25 16:58:46.892536,599620049531677786,91.00
2025-12-25 16:58:46.892536,599620049531677786,98.00
2025-12-25 16:58:46.892536,599620049531677786,103.00
2025-12-25 16:58:46.892536,599620049531677786,108.00
2025-12-25 16:58:46.892536,599620049531677786,108.00
2025-12-25 16:58:46.892536,599620049531677786,101.00
2025-12-25 16:58:46.892536,599620049531677786,91.00
2025-12-25 16:58:46.892536,599620049531677786,80.00
2025-12-25 16:58:46.892536,599620049531677786,52.00
2025-12-25 16:58:46.892536,599620049531677786,16.00
2025-12-25 16:58:46.892536,599620049531677786,-20.00
2025-12-25 16:58:46.892536,599620049531677786,-57.00
2025-12-25 16:58:46.892536,599620049531677786,-82.00
2025-12-25 16:58:47.461686,599620050092552847,-96.00
2025-12-25 16:58:47.461686,599620050092552847,-105.00
2025-12-25 16:58:47.461686,599620050092552847,-112.00
2025-12-25 16:58:47.461686,599620050092552847,-114.00
2025-12-25 16:58:47.461686,599620050092552847,-117.00
2025-12-25 16:58:47.461686,599620050092552847,-114.00
2025-12-25 16:58:47.461686,599620050092552847,-105.00
2025-12-25 16:58:47.461686,599620050092552847,-91.00
2025-12-25 16:58:47.461686,599620050092552847,-85.00
2025-12-25 16:58:47.461686,599620050092552847,-89.00
2025-12-25 16:58:47.461686,599620050092552847,-91.00
2025-12-25 16:58:47.461686,599620050092552847,-87.00
2025-12-25 16:58:47.461686,599620050092552847,-78.00
2025-12-25 16:58:47.461686,599620050092552847,-68.00
2025-12-25 16:58:47.461686,599620050092552847,-64.00
2025-12-25 16:58:47.461686,599620050092552847,-68.00
2025-12-25 16:58:47.461686,599620050092552847,-68.00
2025-12-25 16:58:47.461686,599620050092552847,-66.00
2025-12-25 16:58:47.461686,599620050092552847,-66.00
2025-12-25 16:58:47.461686,599620050092552847,-68.00
2025-12-25 16:58:47.461686,599620050092552847,-71.00
2025-12-25 16:58:47.461686,599620050092552847,-73.00
2025-12-25 16:58:47.461686,599620050092552847,-73.00
2025-12-25 16:58:47.461686,599620050092552847,-75.00
2025-12-25 16:58:47.461686,599620050092552847,-80.00
2025-12-25 16:58:47.461686,599620050092552847,-80.00
2025-12-25 16:58:47.461686,599620050092552847,-73.00
2025-12-25 16:58:47.461686,599620050092552847,-73.00
2025-12-25 16:58:47.461686,599620050092552847,-78.00
2025-12-25 16:58:47.461686,599620050092552847,-78.00
2025-12-25 16:58:47.461686,599620050092552847,-73.00
2025-12-25 16:58:47.461686,599620050092552847,-75.00
2025-12-25 16:58:47.461686,599620050092552847,-80.00
2025-12-25 16:58:47.461686,599620050092552847,-80.00
2025-12-25 16:58:47.461686,599620050092552847,-80.00
2025-12-25 16:58:47.461686,599620050092552847,-82.00
2025-12-25 16:58:47.461686,599620050092552847,-80.00
2025-12-25 16:58:47.461686,599620050092552847,-78.00
2025-12-25 16:58:47.461686,599620050092552847,-85.00
2025-12-25 16:58:47.461686,599620050092552847,-89.00
2025-12-25 16:58:47.461686,599620050092552847,-87.00
2025-12-25 16:58:47.461686,599620050092552847,-87.00
2025-12-25 16:58:47.461686,599620050092552847,-87.00
2025-12-25 16:58:47.461686,599620050092552847,-85.00
2025-12-25 16:58:47.461686,599620050092552847,-85.00
2025-12-25 16:58:47.461686,599620050092552847,-89.00
2025-12-25 16:58:47.461686,599620050092552847,-87.00
2025-12-25 16:58:47.461686,599620050092552847,-78.00
2025-12-25 16:58:47.461686,599620050092552847,-71.00
2025-12-25 16:58:47.461686,599620050092552847,-75.00
2025-12-25 16:58:47.461686,599620050092552847,-82.00
2025-12-25 16:58:47.461686,599620050092552847,-85.00
2025-12-25 16:58:47.461686,599620050092552847,-87.00
2025-12-25 16:58:47.461686,599620050092552847,-80.00
2025-12-25 16:58:47.461686,599620050092552847,-66.00
2025-12-25 16:58:47.461686,599620050092552847,-55.00
2025-12-25 16:58:47.461686,599620050092552847,-41.00
2025-12-25 16:58:47.461686,599620050092552847,-45.00
2025-12-25 16:58:47.461686,599620050092552847,-71.00
2025-12-25 16:58:47.461686,599620050092552847,-80.00
2025-12-25 16:58:47.461686,599620050092552847,-75.00
2025-12-25 16:58:47.461686,599620050092552847,-85.00
2025-12-25 16:58:47.461686,599620050092552847,-89.00
2025-12-25 16:58:47.461686,599620050092552847,-87.00
2025-12-25 16:58:47.461686,599620050092552847,-91.00
2025-12-25 16:58:47.461686,599620050092552847,-94.00
2025-12-25 16:58:47.461686,599620050092552847,-91.00
2025-12-25 16:58:47.461686,599620050092552847,-82.00
2025-12-25 16:58:47.461686,599620050092552847,-11.00
2025-12-25 16:58:47.461686,599620050092552847,213.00
2025-12-25 16:58:47.461686,599620050092552847,533.00
2025-12-25 16:58:47.461686,599620050092552847,491.00
2025-12-25 16:58:47.461686,599620050092552847,-308.00
2025-12-25 16:58:48.045535,599620050653407566,-1078.00
2025-12-25 16:58:48.045535,599620050653407566,-813.00
2025-12-25 16:58:48.045535,599620050653407566,-188.00
2025-12-25 16:58:48.045535,599620050653407566,-68.00
2025-12-25 16:58:48.045535,599620050653407566,-87.00
2025-12-25 16:58:48.045535,599620050653407566,2.00
2025-12-25 16:58:48.045535,599620050653407566,6.00
2025-12-25 16:58:48.045535,599620050653407566,-27.00
2025-12-25 16:58:48.045535,599620050653407566,-4.00
2025-12-25 16:58:48.045535,599620050653407566,13.00
2025-12-25 16:58:48.045535,599620050653407566,16.00
2025-12-25 16:58:48.045535,599620050653407566,32.00
2025-12-25 16:58:48.045535,599620050653407566,36.00
2025-12-25 16:58:48.045535,599620050653407566,32.00
2025-12-25 16:58:48.045535,599620050653407566,39.00
2025-12-25 16:58:48.045535,599620050653407566,50.00
2025-12-25 16:58:48.045535,599620050653407566,55.00
2025-12-25 16:58:48.045535,599620050653407566,62.00
2025-12-25 16:58:48.045535,599620050653407566,68.00
2025-12-25 16:58:48.045535,599620050653407566,71.00
2025-12-25 16:58:48.045535,599620050653407566,75.00
2025-12-25 16:58:48.045535,599620050653407566,82.00
2025-12-25 16:58:48.045535,599620050653407566,87.00
2025-12-25 16:58:48.045535,599620050653407566,91.00
2025-12-25 16:58:48.045535,599620050653407566,98.00
2025-12-25 16:58:48.045535,599620050653407566,103.00
2025-12-25 16:58:48.045535,599620050653407566,108.00
2025-12-25 16:58:48.045535,599620050653407566,112.00
2025-12-25 16:58:48.045535,599620050653407566,117.00
2025-12-25 16:58:48.045535,599620050653407566,112.00
2025-12-25 16:58:48.045535,599620050653407566,98.00
2025-12-25 16:58:48.045535,599620050653407566,80.00
2025-12-25 16:58:48.045535,599620050653407566,55.00
2025-12-25 16:58:48.045535,599620050653407566,22.00
2025-12-25 16:58:48.045535,599620050653407566,-13.00
2025-12-25 16:58:48.045535,599620050653407566,-48.00
2025-12-25 16:58:48.045535,599620050653407566,-75.00
2025-12-25 16:58:48.045535,599620050653407566,-98.00
2025-12-25 16:58:48.045535,599620050653407566,-112.00
2025-12-25 16:58:48.045535,599620050653407566,-117.00
2025-12-25 16:58:48.045535,599620050653407566,-112.00
2025-12-25 16:58:48.045535,599620050653407566,-110.00
2025-12-25 16:58:48.045535,599620050653407566,-112.00
2025-12-25 16:58:48.045535,599620050653407566,-114.00
2025-12-25 16:58:48.045535,599620050653407566,-110.00
2025-12-25 16:58:48.045535,599620050653407566,-108.00
2025-12-25 16:58:48.045535,599620050653407566,-105.00
2025-12-25 16:58:48.045535,599620050653407566,-101.00
2025-12-25 16:58:48.045535,599620050653407566,-98.00
2025-12-25 16:58:48.045535,599620050653407566,-96.00
2025-12-25 16:58:48.045535,599620050653407566,-89.00
2025-12-25 16:58:48.045535,599620050653407566,-85.00
2025-12-25 16:58:48.045535,599620050653407566,-85.00
2025-12-25 16:58:48.045535,599620050653407566,-87.00
2025-12-25 16:58:48.045535,599620050653407566,-85.00
2025-12-25 16:58:48.045535,599620050653407566,-85.00
2025-12-25 16:58:48.045535,599620050653407566,-87.00
2025-12-25 16:58:48.045535,599620050653407566,-85.00
2025-12-25 16:58:48.045535,599620050653407566,-82.00
2025-12-25 16:58:48.045535,599620050653407566,-87.00
2025-12-25 16:58:48.045535,599620050653407566,-89.00
2025-12-25 16:58:48.045535,599620050653407566,-91.00
2025-12-25 16:58:48.045535,599620050653407566,-94.00
2025-12-25 16:58:48.045535,599620050653407566,-94.00
2025-12-25 16:58:48.045535,599620050653407566,-91.00
2025-12-25 16:58:48.045535,599620050653407566,-96.00
2025-12-25 16:58:48.045535,599620050653407566,-96.00
2025-12-25 16:58:48.045535,599620050653407566,-98.00
2025-12-25 16:58:48.045535,599620050653407566,-101.00
2025-12-25 16:58:48.045535,599620050653407566,-101.00
2025-12-25 16:58:48.045535,599620050653407566,-98.00
2025-12-25 16:58:48.045535,599620050653407566,-98.00
2025-12-25 16:58:48.045535,599620050653407566,-101.00
2025-12-25 16:58:48.638297,599620051214287717,-101.00
2025-12-25 16:58:48.638297,599620051214287717,-98.00
2025-12-25 16:58:48.638297,599620051214287717,-96.00
2025-12-25 16:58:48.638297,599620051214287717,-101.00
2025-12-25 16:58:48.638297,599620051214287717,-103.00
2025-12-25 16:58:48.638297,599620051214287717,-101.00
2025-12-25 16:58:48.638297,599620051214287717,-101.00
2025-12-25 16:58:48.638297,599620051214287717,-103.00
2025-12-25 16:58:48.638297,599620051214287717,-98.00
2025-12-25 16:58:48.638297,599620051214287717,-94.00
2025-12-25 16:58:48.638297,599620051214287717,-98.00
2025-12-25 16:58:48.638297,599620051214287717,-96.00
2025-12-25 16:58:48.638297,599620051214287717,-82.00
2025-12-25 16:58:48.638297,599620051214287717,-55.00
2025-12-25 16:58:48.638297,599620051214287717,-29.00
2025-12-25 16:58:48.638297,599620051214287717,-36.00
2025-12-25 16:58:48.638297,599620051214287717,-68.00
2025-12-25 16:58:48.638297,599620051214287717,-82.00
2025-12-25 16:58:48.638297,599620051214287717,-82.00
2025-12-25 16:58:48.638297,599620051214287717,-75.00
2025-12-25 16:58:48.638297,599620051214287717,-68.00
2025-12-25 16:58:48.638297,599620051214287717,-73.00
2025-12-25 16:58:48.638297,599620051214287717,-82.00
2025-12-25 16:58:48.638297,599620051214287717,-82.00
2025-12-25 16:58:48.638297,599620051214287717,-80.00
2025-12-25 16:58:48.638297,599620051214287717,-78.00
2025-12-25 16:58:48.638297,599620051214287717,-11.00
2025-12-25 16:58:48.638297,599620051214287717,206.00
2025-12-25 16:58:48.638297,599620051214287717,528.00
2025-12-25 16:58:48.638297,599620051214287717,508.00
2025-12-25 16:58:48.638297,599620051214287717,-264.00
2025-12-25 16:58:48.638297,599620051214287717,-1064.00
2025-12-25 16:58:48.638297,599620051214287717,-841.00
2025-12-25 16:58:48.638297,599620051214287717,-195.00
2025-12-25 16:58:48.638297,599620051214287717,-43.00
2025-12-25 16:58:48.638297,599620051214287717,-85.00
2025-12-25 16:58:48.638297,599620051214287717,-16.00
2025-12-25 16:58:48.638297,599620051214287717,2.00
2025-12-25 16:58:48.638297,599620051214287717,-25.00
2025-12-25 16:58:48.638297,599620051214287717,-6.00
2025-12-25 16:58:48.638297,599620051214287717,9.00
2025-12-25 16:58:48.638297,599620051214287717,4.00
2025-12-25 16:58:48.638297,599620051214287717,9.00
2025-12-25 16:58:48.638297,599620051214287717,16.00
2025-12-25 16:58:48.638297,599620051214287717,16.00
2025-12-25 16:58:48.638297,599620051214287717,20.00
2025-12-25 16:58:48.638297,599620051214287717,29.00
2025-12-25 16:58:48.638297,599620051214287717,34.00
2025-12-25 16:58:48.638297,599620051214287717,41.00
2025-12-25 16:58:48.638297,599620051214287717,50.00
2025-12-25 16:58:48.638297,599620051214287717,55.00
2025-12-25 16:58:48.638297,599620051214287717,59.00
2025-12-25 16:58:48.638297,599620051214287717,66.00
2025-12-25 16:58:48.638297,599620051214287717,71.00
2025-12-25 16:58:48.638297,599620051214287717,78.00
2025-12-25 16:58:48.638297,599620051214287717,87.00
2025-12-25 16:58:48.638297,599620051214287717,94.00
2025-12-25 16:58:48.638297,599620051214287717,101.00
2025-12-25 16:58:48.638297,599620051214287717,105.00
2025-12-25 16:58:48.638297,599620051214287717,108.00
2025-12-25 16:58:48.638297,599620051214287717,105.00
2025-12-25 16:58:48.638297,599620051214287717,96.00
2025-12-25 16:58:48.638297,599620051214287717,78.00
2025-12-25 16:58:48.638297,599620051214287717,50.00
2025-12-25 16:58:48.638297,599620051214287717,11.00
2025-12-25 16:58:48.638297,599620051214287717,-29.00
2025-12-25 16:58:48.638297,599620051214287717,-62.00
2025-12-25 16:58:48.638297,599620051214287717,-89.00
2025-12-25 16:58:48.638297,599620051214287717,-114.00
2025-12-25 16:58:48.638297,599620051214287717,-126.00
2025-12-25 16:58:48.638297,599620051214287717,-128.00
2025-12-25 16:58:48.638297,599620051214287717,-133.00
2025-12-25 16:58:48.638297,599620051214287717,-133.00
2025-12-25 16:58:49.153774,599620051775147520,-128.00
2025-12-25 16:58:49.153774,599620051775147520,-128.00
2025-12-25 16:58:49.153774,599620051775147520,-126.00
2025-12-25 16:58:49.153774,599620051775147520,-124.00
2025-12-25 16:58:49.153774,599620051775147520,-119.00
2025-12-25 16:58:49.153774,599620051775147520,-112.00
2025-12-25 16:58:49.153774,599620051775147520,-112.00
2025-12-25 16:58:49.153774,599620051775147520,-114.00
2025-12-25 16:58:49.153774,599620051775147520,-108.00
2025-12-25 16:58:49.153774,599620051775147520,-103.00
2025-12-25 16:58:49.153774,599620051775147520,-105.00
2025-12-25 16:58:49.153774,599620051775147520,-101.00
2025-12-25 16:58:49.153774,599620051775147520,-98.00
2025-12-25 16:58:49.153774,599620051775147520,-98.00
2025-12-25 16:58:49.153774,599620051775147520,-98.00
2025-12-25 16:58:49.153774,599620051775147520,-96.00
2025-12-25 16:58:49.153774,599620051775147520,-87.00
2025-12-25 16:58:49.153774,599620051775147520,-75.00
2025-12-25 16:58:49.153774,599620051775147520,-80.00
2025-12-25 16:58:49.153774,599620051775147520,-87.00
2025-12-25 16:58:49.153774,599620051775147520,-85.00
2025-12-25 16:58:49.153774,599620051775147520,-82.00
2025-12-25 16:58:49.153774,599620051775147520,-87.00
2025-12-25 16:58:49.153774,599620051775147520,-87.00
2025-12-25 16:58:49.153774,599620051775147520,-82.00
2025-12-25 16:58:49.153774,599620051775147520,-75.00
2025-12-25 16:58:49.153774,599620051775147520,-73.00
2025-12-25 16:58:49.153774,599620051775147520,-78.00
2025-12-25 16:58:49.153774,599620051775147520,-78.00
2025-12-25 16:58:49.153774,599620051775147520,-78.00
2025-12-25 16:58:49.153774,599620051775147520,-82.00
2025-12-25 16:58:49.153774,599620051775147520,-80.00
2025-12-25 16:58:49.153774,599620051775147520,-73.00
2025-12-25 16:58:49.153774,599620051775147520,-75.00
2025-12-25 16:58:49.153774,599620051775147520,-85.00
2025-12-25 16:58:49.153774,599620051775147520,-80.00
2025-12-25 16:58:49.153774,599620051775147520,-66.00
2025-12-25 16:58:49.153774,599620051775147520,-59.00
2025-12-25 16:58:49.153774,599620051775147520,-43.00
2025-12-25 16:58:49.153774,599620051775147520,-36.00
2025-12-25 16:58:49.153774,599620051775147520,-62.00
2025-12-25 16:58:49.153774,599620051775147520,-87.00
2025-12-25 16:58:49.153774,599620051775147520,-87.00
2025-12-25 16:58:49.153774,599620051775147520,-89.00
2025-12-25 16:58:49.153774,599620051775147520,-94.00
2025-12-25 16:58:49.153774,599620051775147520,-91.00
2025-12-25 16:58:49.153774,599620051775147520,-94.00
2025-12-25 16:58:49.153774,599620051775147520,-101.00
2025-12-25 16:58:49.153774,599620051775147520,-103.00
2025-12-25 16:58:49.153774,599620051775147520,-103.00
2025-12-25 16:58:49.153774,599620051775147520,-64.00
2025-12-25 16:58:49.153774,599620051775147520,110.00
2025-12-25 16:58:49.153774,599620051775147520,432.00
2025-12-25 16:58:49.153774,599620051775147520,565.00
2025-12-25 16:58:49.153774,599620051775147520,-39.00
2025-12-25 16:58:49.153774,599620051775147520,-965.00
2025-12-25 16:58:49.153774,599620051775147520,-1020.00
2025-12-25 16:58:49.153774,599620051775147520,-367.00
2025-12-25 16:58:49.153774,599620051775147520,-78.00
2025-12-25 16:58:49.153774,599620051775147520,-121.00
2025-12-25 16:58:49.153774,599620051775147520,-71.00
2025-12-25 16:58:49.153774,599620051775147520,-32.00
2025-12-25 16:58:49.153774,599620051775147520,-59.00
2025-12-25 16:58:49.153774,599620051775147520,-45.00
2025-12-25 16:58:49.153774,599620051775147520,-20.00
2025-12-25 16:58:49.153774,599620051775147520,-27.00
2025-12-25 16:58:49.153774,599620051775147520,-27.00
2025-12-25 16:58:49.153774,599620051775147520,-16.00
2025-12-25 16:58:49.153774,599620051775147520,-11.00
2025-12-25 16:58:49.153774,599620051775147520,-6.00
2025-12-25 16:58:49.153774,599620051775147520,-2.00
2025-12-25 16:58:49.153774,599620051775147520,2.00
2025-12-25 16:58:49.153774,599620051775147520,4.00
2025-12-25 16:58:49.663664,599620052336002237,11.00
2025-12-25 16:58:49.663664,599620052336002237,18.00
2025-12-25 16:58:49.663664,599620052336002237,25.00
2025-12-25 16:58:49.663664,599620052336002237,32.00
2025-12-25 16:58:49.663664,599620052336002237,36.00
2025-12-25 16:58:49.663664,599620052336002237,45.00
2025-12-25 16:58:49.663664,599620052336002237,55.00
2025-12-25 16:58:49.663664,599620052336002237,71.00
2025-12-25 16:58:49.663664,599620052336002237,94.00
2025-12-25 16:58:49.663664,599620052336002237,101.00
2025-12-25 16:58:49.663664,599620052336002237,101.00
2025-12-25 16:58:49.663664,599620052336002237,105.00
2025-12-25 16:58:49.663664,599620052336002237,101.00
2025-12-25 16:58:49.663664,599620052336002237,94.00
2025-12-25 16:58:49.663664,599620052336002237,85.00
2025-12-25 16:58:49.663664,599620052336002237,48.00
2025-12-25 16:58:49.663664,599620052336002237,-2.00
2025-12-25 16:58:49.663664,599620052336002237,-32.00
2025-12-25 16:58:49.663664,599620052336002237,-55.00
2025-12-25 16:58:49.663664,599620052336002237,-78.00
2025-12-25 16:58:49.663664,599620052336002237,-89.00
2025-12-25 16:58:49.663664,599620052336002237,-96.00
2025-12-25 16:58:49.663664,599620052336002237,-101.00
2025-12-25 16:58:49.663664,599620052336002237,-98.00
2025-12-25 16:58:49.663664,599620052336002237,-96.00
2025-12-25 16:58:49.663664,599620052336002237,-96.00
2025-12-25 16:58:49.663664,599620052336002237,-94.00
2025-12-25 16:58:49.663664,599620052336002237,-89.00
2025-12-25 16:58:49.663664,599620052336002237,-89.00
2025-12-25 16:58:49.663664,599620052336002237,-89.00
2025-12-25 16:58:49.663664,599620052336002237,-89.00
2025-12-25 16:58:49.663664,599620052336002237,-85.00
2025-12-25 16:58:49.663664,599620052336002237,-80.00
2025-12-25 16:58:49.663664,599620052336002237,-82.00
2025-12-25 16:58:49.663664,599620052336002237,-85.00
2025-12-25 16:58:49.663664,599620052336002237,-82.00
2025-12-25 16:58:49.663664,599620052336002237,-80.00
2025-12-25 16:58:49.663664,599620052336002237,-75.00
2025-12-25 16:58:49.663664,599620052336002237,-75.00
2025-12-25 16:58:49.663664,599620052336002237,-80.00
2025-12-25 16:58:49.663664,599620052336002237,-82.00
2025-12-25 16:58:49.663664,599620052336002237,-82.00
2025-12-25 16:58:49.663664,599620052336002237,-85.00
2025-12-25 16:58:49.663664,599620052336002237,-85.00
2025-12-25 16:58:49.663664,599620052336002237,-85.00
2025-12-25 16:58:49.663664,599620052336002237,-89.00
2025-12-25 16:58:49.663664,599620052336002237,-89.00
2025-12-25 16:58:49.663664,599620052336002237,-91.00
2025-12-25 16:58:49.663664,599620052336002237,-94.00
2025-12-25 16:58:49.663664,599620052336002237,-91.00
2025-12-25 16:58:49.663664,599620052336002237,-91.00
2025-12-25 16:58:49.663664,599620052336002237,-96.00
2025-12-25 16:58:49.663664,599620052336002237,-101.00
2025-12-25 16:58:49.663664,599620052336002237,-105.00
2025-12-25 16:58:49.663664,599620052336002237,-94.00
2025-12-25 16:58:49.663664,599620052336002237,-75.00
2025-12-25 16:58:49.663664,599620052336002237,-62.00
2025-12-25 16:58:49.663664,599620052336002237,-50.00
2025-12-25 16:58:49.663664,599620052336002237,-50.00
2025-12-25 16:58:49.663664,599620052336002237,-78.00
2025-12-25 16:58:49.663664,599620052336002237,-96.00
2025-12-25 16:58:49.663664,599620052336002237,-94.00
2025-12-25 16:58:49.663664,599620052336002237,-96.00
2025-12-25 16:58:49.663664,599620052336002237,-103.00
2025-12-25 16:58:49.663664,599620052336002237,-103.00
2025-12-25 16:58:49.663664,599620052336002237,-105.00
2025-12-25 16:58:49.663664,599620052336002237,-105.00
2025-12-25 16:58:49.663664,599620052336002237,-105.00
2025-12-25 16:58:49.663664,599620052336002237,-101.00
2025-12-25 16:58:49.663664,599620052336002237,-48.00
2025-12-25 16:58:49.663664,599620052336002237,151.00
2025-12-25 16:58:49.663664,599620052336002237,478.00
2025-12-25 16:58:49.663664,599620052336002237,521.00
2025-12-25 16:58:50.242265,599620052896867128,-197.00
2025-12-25 16:58:50.242265,599620052896867128,-1050.00
2025-12-25 16:58:50.242265,599620052896867128,-926.00
2025-12-25 16:58:50.242265,599620052896867128,-287.00
2025-12-25 16:58:50.242265,599620052896867128,-89.00
2025-12-25 16:58:50.242265,599620052896867128,-119.00
2025-12-25 16:58:50.242265,599620052896867128,-52.00
2025-12-25 16:58:50.242265,599620052896867128,-32.00
2025-12-25 16:58:50.242265,599620052896867128,-55.00
2025-12-25 16:58:50.242265,599620052896867128,-36.00
2025-12-25 16:58:50.242265,599620052896867128,-9.00
2025-12-25 16:58:50.242265,599620052896867128,2.00
2025-12-25 16:58:50.242265,599620052896867128,9.00
2025-12-25 16:58:50.242265,599620052896867128,13.00
2025-12-25 16:58:50.242265,599620052896867128,18.00
2025-12-25 16:58:50.242265,599620052896867128,22.00
2025-12-25 16:58:50.242265,599620052896867128,25.00
2025-12-25 16:58:50.242265,599620052896867128,29.00
2025-12-25 16:58:50.242265,599620052896867128,36.00
2025-12-25 16:58:50.242265,599620052896867128,39.00
2025-12-25 16:58:50.242265,599620052896867128,41.00
2025-12-25 16:58:50.242265,599620052896867128,48.00
2025-12-25 16:58:50.242265,599620052896867128,57.00
2025-12-25 16:58:50.242265,599620052896867128,66.00
2025-12-25 16:58:50.242265,599620052896867128,75.00
2025-12-25 16:58:50.242265,599620052896867128,80.00
2025-12-25 16:58:50.242265,599620052896867128,87.00
2025-12-25 16:58:50.242265,599620052896867128,101.00
2025-12-25 16:58:50.242265,599620052896867128,110.00
2025-12-25 16:58:50.242265,599620052896867128,110.00
2025-12-25 16:58:50.242265,599620052896867128,110.00
2025-12-25 16:58:50.242265,599620052896867128,101.00
2025-12-25 16:58:50.242265,599620052896867128,78.00
2025-12-25 16:58:50.242265,599620052896867128,43.00
2025-12-25 16:58:50.242265,599620052896867128,4.00
2025-12-25 16:58:50.242265,599620052896867128,-36.00
2025-12-25 16:58:50.242265,599620052896867128,-75.00
2025-12-25 16:58:50.242265,599620052896867128,-103.00
2025-12-25 16:58:50.242265,599620052896867128,-121.00
2025-12-25 16:58:50.242265,599620052896867128,-133.00
2025-12-25 16:58:50.242265,599620052896867128,-137.00
2025-12-25 16:58:50.242265,599620052896867128,-133.00
2025-12-25 16:58:50.242265,599620052896867128,-133.00
2025-12-25 16:58:50.242265,599620052896867128,-133.00
2025-12-25 16:58:50.242265,599620052896867128,-126.00
2025-12-25 16:58:50.242265,599620052896867128,-119.00
2025-12-25 16:58:50.242265,599620052896867128,-112.00
2025-12-25 16:58:50.242265,599620052896867128,-103.00
2025-12-25 16:58:50.242265,599620052896867128,-98.00
2025-12-25 16:58:50.242265,599620052896867128,-96.00
2025-12-25 16:58:50.242265,599620052896867128,-91.00
2025-12-25 16:58:50.242265,599620052896867128,-89.00
2025-12-25 16:58:50.242265,599620052896867128,-85.00
2025-12-25 16:58:50.242265,599620052896867128,-78.00
2025-12-25 16:58:50.242265,599620052896867128,-78.00
2025-12-25 16:58:50.242265,599620052896867128,-80.00
2025-12-25 16:58:50.242265,599620052896867128,-78.00
2025-12-25 16:58:50.242265,599620052896867128,-73.00
2025-12-25 16:58:50.242265,599620052896867128,-73.00
2025-12-25 16:58:50.242265,599620052896867128,-75.00
2025-12-25 16:58:50.242265,599620052896867128,-78.00
2025-12-25 16:58:50.242265,599620052896867128,-82.00
2025-12-25 16:58:50.242265,599620052896867128,-80.00
2025-12-25 16:58:50.242265,599620052896867128,-78.00
2025-12-25 16:58:50.242265,599620052896867128,-80.00
2025-12-25 16:58:50.242265,599620052896867128,-82.00
2025-12-25 16:58:50.242265,599620052896867128,-80.00
2025-12-25 16:58:50.242265,599620052896867128,-82.00
2025-12-25 16:58:50.242265,599620052896867128,-87.00
2025-12-25 16:58:50.242265,599620052896867128,-85.00
2025-12-25 16:58:50.242265,599620052896867128,-82.00
2025-12-25 16:58:50.242265,599620052896867128,-89.00
2025-12-25 16:58:50.242265,599620052896867128,-91.00
2025-12-25 16:58:50.748385,599620053457742189,-85.00
2025-12-25 16:58:50.748385,599620053457742189,-73.00
2025-12-25 16:58:50.748385,599620053457742189,-64.00
2025-12-25 16:58:50.748385,599620053457742189,-43.00
2025-12-25 16:58:50.748385,599620053457742189,-25.00
2025-12-25 16:58:50.748385,599620053457742189,-36.00
2025-12-25 16:58:50.748385,599620053457742189,-64.00
2025-12-25 16:58:50.748385,599620053457742189,-71.00
2025-12-25 16:58:50.748385,599620053457742189,-59.00
2025-12-25 16:58:50.748385,599620053457742189,-57.00
2025-12-25 16:58:50.748385,599620053457742189,-62.00
2025-12-25 16:58:50.748385,599620053457742189,-64.00
2025-12-25 16:58:50.748385,599620053457742189,-68.00
2025-12-25 16:58:50.748385,599620053457742189,-73.00
2025-12-25 16:58:50.748385,599620053457742189,-71.00
2025-12-25 16:58:50.748385,599620053457742189,-55.00
2025-12-25 16:58:50.748385,599620053457742189,45.00
2025-12-25 16:58:50.748385,599620053457742189,312.00
2025-12-25 16:58:50.748385,599620053457742189,586.00
2025-12-25 16:58:50.748385,599620053457742189,326.00
2025-12-25 16:58:50.748385,599620053457742189,-586.00
2025-12-25 16:58:50.748385,599620053457742189,-1098.00
2025-12-25 16:58:50.748385,599620053457742189,-616.00
2025-12-25 16:58:50.748385,599620053457742189,-105.00
2025-12-25 16:58:50.748385,599620053457742189,-80.00
2025-12-25 16:58:50.748385,599620053457742189,-78.00
2025-12-25 16:58:50.748385,599620053457742189,-11.00
2025-12-25 16:58:50.748385,599620053457742189,-22.00
2025-12-25 16:58:50.748385,599620053457742189,-36.00
2025-12-25 16:58:50.748385,599620053457742189,-13.00
2025-12-25 16:58:50.748385,599620053457742189,-9.00
2025-12-25 16:58:50.748385,599620053457742189,-16.00
2025-12-25 16:58:50.748385,599620053457742189,-9.00
2025-12-25 16:58:50.748385,599620053457742189,-4.00
2025-12-25 16:58:50.748385,599620053457742189,-6.00
2025-12-25 16:58:50.748385,599620053457742189,0.00
2025-12-25 16:58:50.748385,599620053457742189,9.00
2025-12-25 16:58:50.748385,599620053457742189,18.00
2025-12-25 16:58:50.748385,599620053457742189,27.00
2025-12-25 16:58:50.748385,599620053457742189,27.00
2025-12-25 16:58:50.748385,599620053457742189,27.00
2025-12-25 16:58:50.748385,599620053457742189,39.00
2025-12-25 16:58:50.748385,599620053457742189,48.00
2025-12-25 16:58:50.748385,599620053457742189,52.00
2025-12-25 16:58:50.748385,599620053457742189,62.00
2025-12-25 16:58:50.748385,599620053457742189,71.00
2025-12-25 16:58:50.748385,599620053457742189,75.00
2025-12-25 16:58:50.748385,599620053457742189,80.00
2025-12-25 16:58:50.748385,599620053457742189,82.00
2025-12-25 16:58:50.748385,599620053457742189,80.00
2025-12-25 16:58:50.748385,599620053457742189,78.00
2025-12-25 16:58:50.748385,599620053457742189,66.00
2025-12-25 16:58:50.748385,599620053457742189,45.00
2025-12-25 16:58:50.748385,599620053457742189,16.00
2025-12-25 16:58:50.748385,599620053457742189,-32.00
2025-12-25 16:58:50.748385,599620053457742189,-78.00
2025-12-25 16:58:50.748385,599620053457742189,-110.00
2025-12-25 16:58:50.748385,599620053457742189,-135.00
2025-12-25 16:58:50.748385,599620053457742189,-149.00
2025-12-25 16:58:50.748385,599620053457742189,-151.00
2025-12-25 16:58:50.748385,599620053457742189,-151.00
2025-12-25 16:58:50.748385,599620053457742189,-154.00
2025-12-25 16:58:50.748385,599620053457742189,-149.00
2025-12-25 16:58:50.748385,599620053457742189,-147.00
2025-12-25 16:58:50.748385,599620053457742189,-142.00
2025-12-25 16:58:50.748385,599620053457742189,-135.00
2025-12-25 16:58:50.748385,599620053457742189,-128.00
2025-12-25 16:58:50.748385,599620053457742189,-124.00
2025-12-25 16:58:50.748385,599620053457742189,-114.00
2025-12-25 16:58:50.748385,599620053457742189,-103.00
2025-12-25 16:58:50.748385,599620053457742189,-98.00
2025-12-25 16:58:50.748385,599620053457742189,-96.00
2025-12-25 16:58:50.748385,599620053457742189,-87.00
2025-12-25 16:58:51.390268,599620054018596908,-85.00
2025-12-25 16:58:51.390268,599620054018596908,-89.00
2025-12-25 16:58:51.390268,599620054018596908,-89.00
2025-12-25 16:58:51.390268,599620054018596908,-89.00
2025-12-25 16:58:51.390268,599620054018596908,-85.00
2025-12-25 16:58:51.390268,599620054018596908,-73.00
2025-12-25 16:58:51.390268,599620054018596908,-64.00
2025-12-25 16:58:51.390268,599620054018596908,-71.00
2025-12-25 16:58:51.390268,599620054018596908,-78.00
2025-12-25 16:58:51.390268,599620054018596908,-68.00
2025-12-25 16:58:51.390268,599620054018596908,-59.00
2025-12-25 16:58:51.390268,599620054018596908,-62.00
2025-12-25 16:58:51.390268,599620054018596908,-59.00
2025-12-25 16:58:51.390268,599620054018596908,-55.00
2025-12-25 16:58:51.390268,599620054018596908,-64.00
2025-12-25 16:58:51.390268,599620054018596908,-71.00
2025-12-25 16:58:51.390268,599620054018596908,-66.00
2025-12-25 16:58:51.390268,599620054018596908,-62.00
2025-12-25 16:58:51.390268,599620054018596908,-57.00
2025-12-25 16:58:51.390268,599620054018596908,-57.00
2025-12-25 16:58:51.390268,599620054018596908,-66.00
2025-12-25 16:58:51.390268,599620054018596908,-68.00
2025-12-25 16:58:51.390268,599620054018596908,-68.00
2025-12-25 16:58:51.390268,599620054018596908,-75.00
2025-12-25 16:58:51.390268,599620054018596908,-71.00
2025-12-25 16:58:51.390268,599620054018596908,-66.00
2025-12-25 16:58:51.390268,599620054018596908,-73.00
2025-12-25 16:58:51.390268,599620054018596908,-71.00
2025-12-25 16:58:51.390268,599620054018596908,-52.00
2025-12-25 16:58:51.390268,599620054018596908,-32.00
2025-12-25 16:58:51.390268,599620054018596908,-22.00
2025-12-25 16:58:51.390268,599620054018596908,-36.00
2025-12-25 16:58:51.390268,599620054018596908,-64.00
2025-12-25 16:58:51.390268,599620054018596908,-73.00
2025-12-25 16:58:51.390268,599620054018596908,-78.00
2025-12-25 16:58:51.390268,599620054018596908,-85.00
2025-12-25 16:58:51.390268,599620054018596908,-80.00
2025-12-25 16:58:51.390268,599620054018596908,-73.00
2025-12-25 16:58:51.390268,599620054018596908,-78.00
2025-12-25 16:58:51.390268,599620054018596908,-87.00
2025-12-25 16:58:51.390268,599620054018596908,-85.00
2025-12-25 16:58:51.390268,599620054018596908,-64.00
2025-12-25 16:58:51.390268,599620054018596908,32.00
2025-12-25 16:58:51.390268,599620054018596908,301.00
2025-12-25 16:58:51.390268,599620054018596908,597.00
2025-12-25 16:58:51.390268,599620054018596908,402.00
2025-12-25 16:58:51.390268,599620054018596908,-494.00
2025-12-25 16:58:51.390268,599620054018596908,-1112.00
2025-12-25 16:58:51.390268,599620054018596908,-733.00
2025-12-25 16:58:51.390268,599620054018596908,-209.00
2025-12-25 16:58:51.390268,599620054018596908,-126.00
2025-12-25 16:58:51.390268,599620054018596908,-96.00
2025-12-25 16:58:51.390268,599620054018596908,-22.00
2025-12-25 16:58:51.390268,599620054018596908,-39.00
2025-12-25 16:58:51.390268,599620054018596908,-52.00
2025-12-25 16:58:51.390268,599620054018596908,-27.00
2025-12-25 16:58:51.390268,599620054018596908,-22.00
2025-12-25 16:58:51.390268,599620054018596908,-29.00
2025-12-25 16:58:51.390268,599620054018596908,-16.00
2025-12-25 16:58:51.390268,599620054018596908,-9.00
2025-12-25 16:58:51.390268,599620054018596908,-9.00
2025-12-25 16:58:51.390268,599620054018596908,6.00
2025-12-25 16:58:51.390268,599620054018596908,16.00
2025-12-25 16:58:51.390268,599620054018596908,11.00
2025-12-25 16:58:51.390268,599620054018596908,18.00
2025-12-25 16:58:51.390268,599620054018596908,29.00
2025-12-25 16:58:51.390268,599620054018596908,29.00
2025-12-25 16:58:51.390268,599620054018596908,32.00
2025-12-25 16:58:51.390268,599620054018596908,39.00
2025-12-25 16:58:51.390268,599620054018596908,45.00
2025-12-25 16:58:51.390268,599620054018596908,52.00
2025-12-25 16:58:51.390268,599620054018596908,66.00
2025-12-25 16:58:51.390268,599620054018596908,80.00
2025-12-25 16:58:51.967347,599620054579482145,87.00
2025-12-25 16:58:51.967347,599620054579482145,87.00
2025-12-25 16:58:51.967347,599620054579482145,89.00
2025-12-25 16:58:51.967347,599620054579482145,89.00
2025-12-25 16:58:51.967347,599620054579482145,75.00
2025-12-25 16:58:51.967347,599620054579482145,52.00
2025-12-25 16:58:51.967347,599620054579482145,25.00
2025-12-25 16:58:51.967347,599620054579482145,-13.00
2025-12-25 16:58:51.967347,599620054579482145,-48.00
2025-12-25 16:58:51.967347,599620054579482145,-71.00
2025-12-25 16:58:51.967347,599620054579482145,-96.00
2025-12-25 16:58:51.967347,599620054579482145,-121.00
2025-12-25 16:58:51.967347,599620054579482145,-128.00
2025-12-25 16:58:51.967347,599620054579482145,-131.00
2025-12-25 16:58:51.967347,599620054579482145,-126.00
2025-12-25 16:58:51.967347,599620054579482145,-112.00
2025-12-25 16:58:51.967347,599620054579482145,-108.00
2025-12-25 16:58:51.967347,599620054579482145,-112.00
2025-12-25 16:58:51.967347,599620054579482145,-112.00
2025-12-25 16:58:51.967347,599620054579482145,-103.00
2025-12-25 16:58:51.967347,599620054579482145,-91.00
2025-12-25 16:58:51.967347,599620054579482145,-89.00
2025-12-25 16:58:51.967347,599620054579482145,-89.00
2025-12-25 16:58:51.967347,599620054579482145,-82.00
2025-12-25 16:58:51.967347,599620054579482145,-78.00
2025-12-25 16:58:51.967347,599620054579482145,-78.00
2025-12-25 16:58:51.967347,599620054579482145,-73.00
2025-12-25 16:58:51.967347,599620054579482145,-66.00
2025-12-25 16:58:51.967347,599620054579482145,-68.00
2025-12-25 16:58:51.967347,599620054579482145,-73.00
2025-12-25 16:58:51.967347,599620054579482145,-73.00
2025-12-25 16:58:51.967347,599620054579482145,-75.00
2025-12-25 16:58:51.967347,599620054579482145,-75.00
2025-12-25 16:58:51.967347,599620054579482145,-71.00
