Timestamp,Device Timestamp (ns),ECG Value (uV)
2025-12-25 16:52:51.471736,599619693648624989,-179.00
2025-12-25 16:52:51.471736,599619693648624989,-174.00
2025-12-25 16:52:51.471736,599619693648624989,-167.00
2025-12-25 16:52:51.471736,599619693648624989,-167.00
2025-12-25 16:52:51.471736,599619693648624989,-160.00
2025-12-25 16:52:51.471736,599619693648624989,-158.00
2025-12-25 16:52:51.471736,599619693648624989,-167.00
2025-12-25 16:52:51.471736,599619693648624989,-170.00
2025-12-25 16:52:51.471736,599619693648624989,-165.00
2025-12-25 16:52:51.471736,599619693648624989,-167.00
2025-12-25 16:52:51.471736,599619693648624989,-163.00
2025-12-25 16:52:51.471736,599619693648624989,-149.00
2025-12-25 16:52:51.471736,599619693648624989,-144.00
2025-12-25 16:52:51.471736,599619693648624989,-147.00
2025-12-25 16:52:51.471736,599619693648624989,-151.00
2025-12-25 16:52:51.471736,599619693648624989,-154.00
2025-12-25 16:52:51.471736,599619693648624989,-151.00
2025-12-25 16:52:51.471736,599619693648624989,-149.00
2025-12-25 16:52:51.471736,599619693648624989,-154.00
2025-12-25 16:52:51.471736,599619693648624989,-160.00
2025-12-25 16:52:51.471736,599619693648624989,-165.00
2025-12-25 16:52:51.471736,599619693648624989,-170.00
2025-12-25 16:52:51.471736,599619693648624989,-160.00
2025-12-25 16:52:51.471736,599619693648624989,-149.00
2025-12-25 16:52:51.471736,599619693648624989,-140.00
2025-12-25 16:52:51.471736,599619693648624989,-124.00
2025-12-25 16:52:51.471736,599619693648624989,-121.00
2025-12-25 16:52:51.471736,599619693648624989,-154.00
2025-12-25 16:52:51.471736,599619693648624989,-174.00
2025-12-25 16:52:51.471736,599619693648624989,-165.00
2025-12-25 16:52:51.471736,599619693648624989,-167.00
2025-12-25 16:52:51.471736,599619693648624989,-186.00
2025-12-25 16:52:51.471736,599619693648624989,-188.00
2025-12-25 16:52:51.471736,599619693648624989,-177.00
2025-12-25 16:52:51.471736,599619693648624989,-181.00
2025-12-25 16:52:51.471736,599619693648624989,-190.00
2025-12-25 16:52:51.471736,599619693648624989,-174.00
2025-12-25 16:52:51.471736,599619693648624989,-105.00
2025-12-25 16:52:51.471736,599619693648624989,82.00
2025-12-25 16:52:51.471736,599619693648624989,351.00
2025-12-25 16:52:51.471736,599619693648624989,326.00
2025-12-25 16:52:51.471736,599619693648624989,-370.00
2025-12-25 16:52:51.471736,599619693648624989,-1112.00
2025-12-25 16:52:51.471736,599619693648624989,-956.00
2025-12-25 16:52:51.471736,599619693648624989,-367.00
2025-12-25 16:52:51.471736,599619693648624989,-179.00
2025-12-25 16:52:51.471736,599619693648624989,-193.00
2025-12-25 16:52:51.471736,599619693648624989,-133.00
2025-12-25 16:52:51.471736,599619693648624989,-121.00
2025-12-25 16:52:51.471736,599619693648624989,-144.00
2025-12-25 16:52:51.471736,599619693648624989,-121.00
2025-12-25 16:52:51.471736,599619693648624989,-103.00
2025-12-25 16:52:51.471736,599619693648624989,-110.00
2025-12-25 16:52:51.471736,599619693648624989,-94.00
2025-12-25 16:52:51.471736,599619693648624989,-71.00
2025-12-25 16:52:51.471736,599619693648624989,-75.00
2025-12-25 16:52:51.471736,599619693648624989,-82.00
2025-12-25 16:52:51.471736,599619693648624989,-78.00
2025-12-25 16:52:51.471736,599619693648624989,-75.00
2025-12-25 16:52:51.471736,599619693648624989,-71.00
2025-12-25 16:52:51.471736,599619693648624989,-66.00
2025-12-25 16:52:51.471736,599619693648624989,-64.00
2025-12-25 16:52:51.471736,599619693648624989,-59.00
2025-12-25 16:52:51.471736,599619693648624989,-50.00
2025-12-25 16:52:51.471736,599619693648624989,-43.00
2025-12-25 16:52:51.471736,599619693648624989,-39.00
2025-12-25 16:52:51.471736,599619693648624989,-34.00
2025-12-25 16:52:51.471736,599619693648624989,-22.00
2025-12-25 16:52:51.471736,599619693648624989,-18.00
2025-12-25 16:52:51.471736,599619693648624989,-13.00
2025-12-25 16:52:51.471736,599619693648624989,-16.00
2025-12-25 16:52:51.471736,599619693648624989,-25.00
2025-12-25 16:52:51.471736,599619693648624989,-29.00
2025-12-25 16:52:51.522191,599619694209444102,-32.00
2025-12-25 16:52:51.522191,599619694209444102,-52.00
2025-12-25 16:52:51.522191,599619694209444102,-82.00
2025-12-25 16:52:51.522191,599619694209444102,-108.00
2025-12-25 16:52:51.522191,599619694209444102,-133.00
2025-12-25 16:52:51.522191,599619694209444102,-163.00
2025-12-25 16:52:51.522191,599619694209444102,-179.00
2025-12-25 16:52:51.522191,599619694209444102,-179.00
2025-12-25 16:52:51.522191,599619694209444102,-179.00
2025-12-25 16:52:51.522191,599619694209444102,-177.00
2025-12-25 16:52:51.522191,599619694209444102,-177.00
2025-12-25 16:52:51.522191,599619694209444102,-179.00
2025-12-25 16:52:51.522191,599619694209444102,-181.00
2025-12-25 16:52:51.522191,599619694209444102,-179.00
2025-12-25 16:52:51.522191,599619694209444102,-172.00
2025-12-25 16:52:51.522191,599619694209444102,-167.00
2025-12-25 16:52:51.522191,599619694209444102,-172.00
2025-12-25 16:52:51.522191,599619694209444102,-172.00
2025-12-25 16:52:51.522191,599619694209444102,-167.00
2025-12-25 16:52:51.522191,599619694209444102,-172.00
2025-12-25 16:52:51.522191,599619694209444102,-177.00
2025-12-25 16:52:51.522191,599619694209444102,-170.00
2025-12-25 16:52:51.522191,599619694209444102,-172.00
2025-12-25 16:52:51.522191,599619694209444102,-179.00
2025-12-25 16:52:51.522191,599619694209444102,-179.00
2025-12-25 16:52:51.522191,599619694209444102,-181.00
2025-12-25 16:52:51.522191,599619694209444102,-183.00
2025-12-25 16:52:51.522191,599619694209444102,-177.00
2025-12-25 16:52:51.522191,599619694209444102,-174.00
2025-12-25 16:52:51.522191,599619694209444102,-179.00
2025-12-25 16:52:51.522191,599619694209444102,-181.00
2025-12-25 16:52:51.522191,599619694209444102,-181.00
2025-12-25 16:52:51.522191,599619694209444102,-181.00
2025-12-25 16:52:51.522191,599619694209444102,-181.00
2025-12-25 16:52:51.522191,599619694209444102,-186.00
2025-12-25 16:52:51.522191,599619694209444102,-193.00
2025-12-25 16:52:51.522191,599619694209444102,-193.00
2025-12-25 16:52:51.522191,599619694209444102,-188.00
2025-12-25 16:52:51.522191,599619694209444102,-188.00
2025-12-25 16:52:51.522191,599619694209444102,-193.00
2025-12-25 16:52:51.522191,599619694209444102,-193.00
2025-12-25 16:52:51.522191,599619694209444102,-195.00
2025-12-25 16:52:51.522191,599619694209444102,-195.00
2025-12-25 16:52:51.522191,599619694209444102,-190.00
2025-12-25 16:52:51.522191,599619694209444102,-188.00
2025-12-25 16:52:51.522191,599619694209444102,-193.00
2025-12-25 16:52:51.522191,599619694209444102,-183.00
2025-12-25 16:52:51.522191,599619694209444102,-174.00
2025-12-25 16:52:51.522191,599619694209444102,-179.00
2025-12-25 16:52:51.522191,599619694209444102,-181.00
2025-12-25 16:52:51.522191,599619694209444102,-172.00
2025-12-25 16:52:51.522191,599619694209444102,-174.00
2025-12-25 16:52:51.522191,599619694209444102,-186.00
2025-12-25 16:52:51.522191,599619694209444102,-190.00
2025-12-25 16:52:51.522191,599619694209444102,-179.00
2025-12-25 16:52:51.522191,599619694209444102,-163.00
2025-12-25 16:52:51.522191,599619694209444102,-151.00
2025-12-25 16:52:51.522191,599619694209444102,-144.00
2025-12-25 16:52:51.522191,599619694209444102,-151.00
2025-12-25 16:52:51.522191,599619694209444102,-167.00
2025-12-25 16:52:51.522191,599619694209444102,-172.00
2025-12-25 16:52:51.522191,599619694209444102,-177.00
2025-12-25 16:52:51.522191,599619694209444102,-181.00
2025-12-25 16:52:51.522191,599619694209444102,-181.00
2025-12-25 16:52:51.522191,599619694209444102,-183.00
2025-12-25 16:52:51.522191,599619694209444102,-190.00
2025-12-25 16:52:51.522191,599619694209444102,-190.00
2025-12-25 16:52:51.522191,599619694209444102,-181.00
2025-12-25 16:52:51.522191,599619694209444102,-156.00
2025-12-25 16:52:51.522191,599619694209444102,-32.00
2025-12-25 16:52:51.522191,599619694209444102,243.00
2025-12-25 16:52:51.522191,599619694209444102,457.00
2025-12-25 16:52:51.522191,599619694209444102,87.00
2025-12-25 16:52:52.175214,599619694770288645,-823.00
2025-12-25 16:52:52.175214,599619694770288645,-1206.00
2025-12-25 16:52:52.175214,599619694770288645,-708.00
2025-12-25 16:52:52.175214,599619694770288645,-280.00
2025-12-25 16:52:52.175214,599619694770288645,-232.00
2025-12-25 16:52:52.175214,599619694770288645,-156.00
2025-12-25 16:52:52.175214,599619694770288645,-85.00
2025-12-25 16:52:52.175214,599619694770288645,-112.00
2025-12-25 16:52:52.175214,599619694770288645,-112.00
2025-12-25 16:52:52.175214,599619694770288645,-87.00
2025-12-25 16:52:52.175214,599619694770288645,-94.00
2025-12-25 16:52:52.175214,599619694770288645,-96.00
2025-12-25 16:52:52.175214,599619694770288645,-73.00
2025-12-25 16:52:52.175214,599619694770288645,-64.00
2025-12-25 16:52:52.175214,599619694770288645,-78.00
2025-12-25 16:52:52.175214,599619694770288645,-91.00
2025-12-25 16:52:52.175214,599619694770288645,-87.00
2025-12-25 16:52:52.175214,599619694770288645,-71.00
2025-12-25 16:52:52.175214,599619694770288645,-66.00
2025-12-25 16:52:52.175214,599619694770288645,-59.00
2025-12-25 16:52:52.175214,599619694770288645,-52.00
2025-12-25 16:52:52.175214,599619694770288645,-43.00
2025-12-25 16:52:52.175214,599619694770288645,-29.00
2025-12-25 16:52:52.175214,599619694770288645,-16.00
2025-12-25 16:52:52.175214,599619694770288645,-16.00
2025-12-25 16:52:52.175214,599619694770288645,-16.00
2025-12-25 16:52:52.175214,599619694770288645,-4.00
2025-12-25 16:52:52.175214,599619694770288645,4.00
2025-12-25 16:52:52.175214,599619694770288645,2.00
2025-12-25 16:52:52.175214,599619694770288645,2.00
2025-12-25 16:52:52.175214,599619694770288645,-16.00
2025-12-25 16:52:52.175214,599619694770288645,-45.00
2025-12-25 16:52:52.175214,599619694770288645,-57.00
2025-12-25 16:52:52.175214,599619694770288645,-75.00
2025-12-25 16:52:52.175214,599619694770288645,-117.00
2025-12-25 16:52:52.175214,599619694770288645,-147.00
2025-12-25 16:52:52.175214,599619694770288645,-163.00
2025-12-25 16:52:52.175214,599619694770288645,-177.00
2025-12-25 16:52:52.175214,599619694770288645,-179.00
2025-12-25 16:52:52.175214,599619694770288645,-177.00
2025-12-25 16:52:52.175214,599619694770288645,-186.00
2025-12-25 16:52:52.175214,599619694770288645,-195.00
2025-12-25 16:52:52.175214,599619694770288645,-181.00
2025-12-25 16:52:52.175214,599619694770288645,-183.00
2025-12-25 16:52:52.175214,599619694770288645,-202.00
2025-12-25 16:52:52.175214,599619694770288645,-195.00
2025-12-25 16:52:52.175214,599619694770288645,-183.00
2025-12-25 16:52:52.175214,599619694770288645,-181.00
2025-12-25 16:52:52.175214,599619694770288645,-174.00
2025-12-25 16:52:52.175214,599619694770288645,-174.00
2025-12-25 16:52:52.175214,599619694770288645,-172.00
2025-12-25 16:52:52.175214,599619694770288645,-163.00
2025-12-25 16:52:52.175214,599619694770288645,-170.00
2025-12-25 16:52:52.175214,599619694770288645,-174.00
2025-12-25 16:52:52.175214,599619694770288645,-158.00
2025-12-25 16:52:52.175214,599619694770288645,-156.00
2025-12-25 16:52:52.175214,599619694770288645,-172.00
2025-12-25 16:52:52.175214,599619694770288645,-179.00
2025-12-25 16:52:52.175214,599619694770288645,-177.00
2025-12-25 16:52:52.175214,599619694770288645,-170.00
2025-12-25 16:52:52.175214,599619694770288645,-174.00
2025-12-25 16:52:52.175214,599619694770288645,-186.00
2025-12-25 16:52:52.175214,599619694770288645,-186.00
2025-12-25 16:52:52.175214,599619694770288645,-183.00
2025-12-25 16:52:52.175214,599619694770288645,-181.00
2025-12-25 16:52:52.175214,599619694770288645,-174.00
2025-12-25 16:52:52.175214,599619694770288645,-179.00
2025-12-25 16:52:52.175214,599619694770288645,-200.00
2025-12-25 16:52:52.175214,599619694770288645,-202.00
2025-12-25 16:52:52.175214,599619694770288645,-179.00
2025-12-25 16:52:52.175214,599619694770288645,-174.00
2025-12-25 16:52:52.175214,599619694770288645,-188.00
2025-12-25 16:52:52.175214,599619694770288645,-188.00
2025-12-25 16:52:52.676923,599619695331112846,-181.00
2025-12-25 16:52:52.676923,599619695331112846,-186.00
2025-12-25 16:52:52.676923,599619695331112846,-188.00
2025-12-25 16:52:52.676923,599619695331112846,-186.00
2025-12-25 16:52:52.676923,599619695331112846,-188.00
2025-12-25 16:52:52.676923,599619695331112846,-188.00
2025-12-25 16:52:52.676923,599619695331112846,-179.00
2025-12-25 16:52:52.676923,599619695331112846,-181.00
2025-12-25 16:52:52.676923,599619695331112846,-190.00
2025-12-25 16:52:52.676923,599619695331112846,-183.00
2025-12-25 16:52:52.676923,599619695331112846,-170.00
2025-12-25 16:52:52.676923,599619695331112846,-174.00
2025-12-25 16:52:52.676923,599619695331112846,-181.00
2025-12-25 16:52:52.676923,599619695331112846,-183.00
2025-12-25 16:52:52.676923,599619695331112846,-163.00
2025-12-25 16:52:52.676923,599619695331112846,-114.00
2025-12-25 16:52:52.676923,599619695331112846,-101.00
2025-12-25 16:52:52.676923,599619695331112846,-144.00
2025-12-25 16:52:52.676923,599619695331112846,-167.00
2025-12-25 16:52:52.676923,599619695331112846,-147.00
2025-12-25 16:52:52.676923,599619695331112846,-142.00
2025-12-25 16:52:52.676923,599619695331112846,-167.00
2025-12-25 16:52:52.676923,599619695331112846,-186.00
2025-12-25 16:52:52.676923,599619695331112846,-183.00
2025-12-25 16:52:52.676923,599619695331112846,-179.00
2025-12-25 16:52:52.676923,599619695331112846,-177.00
2025-12-25 16:52:52.676923,599619695331112846,-167.00
2025-12-25 16:52:52.676923,599619695331112846,-131.00
2025-12-25 16:52:52.676923,599619695331112846,34.00
2025-12-25 16:52:52.676923,599619695331112846,347.00
2025-12-25 16:52:52.676923,599619695331112846,441.00
2025-12-25 16:52:52.676923,599619695331112846,-183.00
2025-12-25 16:52:52.676923,599619695331112846,-1064.00
2025-12-25 16:52:52.676923,599619695331112846,-1069.00
2025-12-25 16:52:52.676923,599619695331112846,-406.00
2025-12-25 16:52:52.676923,599619695331112846,-126.00
2025-12-25 16:52:52.676923,599619695331112846,-174.00
2025-12-25 16:52:52.676923,599619695331112846,-126.00
2025-12-25 16:52:52.676923,599619695331112846,-80.00
2025-12-25 16:52:52.676923,599619695331112846,-112.00
2025-12-25 16:52:52.676923,599619695331112846,-110.00
2025-12-25 16:52:52.676923,599619695331112846,-80.00
2025-12-25 16:52:52.676923,599619695331112846,-75.00
2025-12-25 16:52:52.676923,599619695331112846,-71.00
2025-12-25 16:52:52.676923,599619695331112846,-55.00
2025-12-25 16:52:52.676923,599619695331112846,-64.00
2025-12-25 16:52:52.676923,599619695331112846,-78.00
2025-12-25 16:52:52.676923,599619695331112846,-66.00
2025-12-25 16:52:52.676923,599619695331112846,-57.00
2025-12-25 16:52:52.676923,599619695331112846,-78.00
2025-12-25 16:52:52.676923,599619695331112846,-82.00
2025-12-25 16:52:52.676923,599619695331112846,-57.00
2025-12-25 16:52:52.676923,599619695331112846,-39.00
2025-12-25 16:52:52.676923,599619695331112846,-36.00
2025-12-25 16:52:52.676923,599619695331112846,-29.00
2025-12-25 16:52:52.676923,599619695331112846,-13.00
2025-12-25 16:52:52.676923,599619695331112846,0.00
2025-12-25 16:52:52.676923,599619695331112846,2.00
2025-12-25 16:52:52.676923,599619695331112846,9.00
2025-12-25 16:52:52.676923,599619695331112846,11.00
2025-12-25 16:52:52.676923,599619695331112846,0.00
2025-12-25 16:52:52.676923,599619695331112846,-6.00
2025-12-25 16:52:52.676923,599619695331112846,-27.00
2025-12-25 16:52:52.676923,599619695331112846,-59.00
2025-12-25 16:52:52.676923,599619695331112846,-66.00
2025-12-25 16:52:52.676923,599619695331112846,-78.00
2025-12-25 16:52:52.676923,599619695331112846,-119.00
2025-12-25 16:52:52.676923,599619695331112846,-151.00
2025-12-25 16:52:52.676923,599619695331112846,-163.00
2025-12-25 16:52:52.676923,599619695331112846,-163.00
2025-12-25 16:52:52.676923,599619695331112846,-177.00
2025-12-25 16:52:52.676923,599619695331112846,-211.00
2025-12-25 16:52:52.676923,599619695331112846,-223.00
2025-12-25 16:52:53.228261,599619695891937047,-202.00
2025-12-25 16:52:53.228261,599619695891937047,-193.00
2025-12-25 16:52:53.228261,599619695891937047,-197.00
2025-12-25 16:52:53.228261,599619695891937047,-190.00
2025-12-25 16:52:53.228261,599619695891937047,-183.00
2025-12-25 16:52:53.228261,599619695891937047,-186.00
2025-12-25 16:52:53.228261,599619695891937047,-174.00
2025-12-25 16:52:53.228261,599619695891937047,-160.00
2025-12-25 16:52:53.228261,599619695891937047,-163.00
2025-12-25 16:52:53.228261,599619695891937047,-165.00
2025-12-25 16:52:53.228261,599619695891937047,-163.00
2025-12-25 16:52:53.228261,599619695891937047,-160.00
2025-12-25 16:52:53.228261,599619695891937047,-151.00
2025-12-25 16:52:53.228261,599619695891937047,-144.00
2025-12-25 16:52:53.228261,599619695891937047,-149.00
2025-12-25 16:52:53.228261,599619695891937047,-154.00
2025-12-25 16:52:53.228261,599619695891937047,-158.00
2025-12-25 16:52:53.228261,599619695891937047,-160.00
2025-12-25 16:52:53.228261,599619695891937047,-160.00
2025-12-25 16:52:53.228261,599619695891937047,-167.00
2025-12-25 16:52:53.228261,599619695891937047,-174.00
2025-12-25 16:52:53.228261,599619695891937047,-172.00
2025-12-25 16:52:53.228261,599619695891937047,-172.00
2025-12-25 16:52:53.228261,599619695891937047,-174.00
2025-12-25 16:52:53.228261,599619695891937047,-170.00
2025-12-25 16:52:53.228261,599619695891937047,-167.00
2025-12-25 16:52:53.228261,599619695891937047,-172.00
2025-12-25 16:52:53.228261,599619695891937047,-177.00
2025-12-25 16:52:53.228261,599619695891937047,-179.00
2025-12-25 16:52:53.228261,599619695891937047,-181.00
2025-12-25 16:52:53.228261,599619695891937047,-183.00
2025-12-25 16:52:53.228261,599619695891937047,-181.00
2025-12-25 16:52:53.228261,599619695891937047,-177.00
2025-12-25 16:52:53.228261,599619695891937047,-174.00
2025-12-25 16:52:53.228261,599619695891937047,-179.00
2025-12-25 16:52:53.228261,599619695891937047,-181.00
2025-12-25 16:52:53.228261,599619695891937047,-181.00
2025-12-25 16:52:53.228261,599619695891937047,-186.00
2025-12-25 16:52:53.228261,599619695891937047,-188.00
2025-12-25 16:52:53.228261,599619695891937047,-177.00
2025-12-25 16:52:53.228261,599619695891937047,-165.00
2025-12-25 16:52:53.228261,599619695891937047,-158.00
2025-12-25 16:52:53.228261,599619695891937047,-142.00
2025-12-25 16:52:53.228261,599619695891937047,-147.00
2025-12-25 16:52:53.228261,599619695891937047,-177.00
2025-12-25 16:52:53.228261,599619695891937047,-193.00
2025-12-25 16:52:53.228261,599619695891937047,-188.00
2025-12-25 16:52:53.228261,599619695891937047,-193.00
2025-12-25 16:52:53.228261,599619695891937047,-200.00
2025-12-25 16:52:53.228261,599619695891937047,-202.00
2025-12-25 16:52:53.228261,599619695891937047,-204.00
2025-12-25 16:52:53.228261,599619695891937047,-206.00
2025-12-25 16:52:53.228261,599619695891937047,-202.00
2025-12-25 16:52:53.228261,599619695891937047,-193.00
2025-12-25 16:52:53.228261,599619695891937047,-131.00
2025-12-25 16:52:53.228261,599619695891937047,73.00
2025-12-25 16:52:53.228261,599619695891937047,360.00
2025-12-25 16:52:53.228261,599619695891937047,312.00
2025-12-25 16:52:53.228261,599619695891937047,-452.00
2025-12-25 16:52:53.228261,599619695891937047,-1216.00
2025-12-25 16:52:53.228261,599619695891937047,-974.00
2025-12-25 16:52:53.228261,599619695891937047,-331.00
2025-12-25 16:52:53.228261,599619695891937047,-179.00
2025-12-25 16:52:53.228261,599619695891937047,-218.00
2025-12-25 16:52:53.228261,599619695891937047,-147.00
2025-12-25 16:52:53.228261,599619695891937047,-119.00
2025-12-25 16:52:53.228261,599619695891937047,-142.00
2025-12-25 16:52:53.228261,599619695891937047,-133.00
2025-12-25 16:52:53.228261,599619695891937047,-121.00
2025-12-25 16:52:53.228261,599619695891937047,-121.00
2025-12-25 16:52:53.228261,599619695891937047,-110.00
2025-12-25 16:52:53.228261,599619695891937047,-98.00
2025-12-25 16:52:53.228261,599619695891937047,-98.00
2025-12-25 16:52:53.979738,599619696452781592,-101.00
2025-12-25 16:52:53.979738,599619696452781592,-98.00
2025-12-25 16:52:53.979738,599619696452781592,-89.00
2025-12-25 16:52:53.979738,599619696452781592,-80.00
2025-12-25 16:52:53.979738,599619696452781592,-75.00
2025-12-25 16:52:53.979738,599619696452781592,-71.00
2025-12-25 16:52:53.979738,599619696452781592,-64.00
2025-12-25 16:52:53.979738,599619696452781592,-59.00
2025-12-25 16:52:53.979738,599619696452781592,-50.00
2025-12-25 16:52:53.979738,599619696452781592,-27.00
2025-12-25 16:52:53.979738,599619696452781592,-6.00
2025-12-25 16:52:53.979738,599619696452781592,-6.00
2025-12-25 16:52:53.979738,599619696452781592,-6.00
2025-12-25 16:52:53.979738,599619696452781592,-2.00
2025-12-25 16:52:53.979738,599619696452781592,-2.00
2025-12-25 16:52:53.979738,599619696452781592,-2.00
2025-12-25 16:52:53.979738,599619696452781592,-4.00
2025-12-25 16:52:53.979738,599619696452781592,-13.00
2025-12-25 16:52:53.979738,599619696452781592,-39.00
2025-12-25 16:52:53.979738,599619696452781592,-75.00
2025-12-25 16:52:53.979738,599619696452781592,-108.00
2025-12-25 16:52:53.979738,599619696452781592,-135.00
2025-12-25 16:52:53.979738,599619696452781592,-158.00
2025-12-25 16:52:53.979738,599619696452781592,-170.00
2025-12-25 16:52:53.979738,599619696452781592,-167.00
2025-12-25 16:52:53.979738,599619696452781592,-170.00
2025-12-25 16:52:53.979738,599619696452781592,-172.00
2025-12-25 16:52:53.979738,599619696452781592,-170.00
2025-12-25 16:52:53.979738,599619696452781592,-167.00
2025-12-25 16:52:53.979738,599619696452781592,-165.00
2025-12-25 16:52:53.979738,599619696452781592,-167.00
2025-12-25 16:52:53.979738,599619696452781592,-172.00
2025-12-25 16:52:53.979738,599619696452781592,-165.00
2025-12-25 16:52:53.979738,599619696452781592,-160.00
2025-12-25 16:52:53.979738,599619696452781592,-163.00
2025-12-25 16:52:53.979738,599619696452781592,-163.00
2025-12-25 16:52:53.979738,599619696452781592,-163.00
2025-12-25 16:52:53.979738,599619696452781592,-167.00
2025-12-25 16:52:53.979738,599619696452781592,-165.00
2025-12-25 16:52:53.979738,599619696452781592,-160.00
2025-12-25 16:52:53.979738,599619696452781592,-167.00
2025-12-25 16:52:53.979738,599619696452781592,-177.00
2025-12-25 16:52:53.979738,599619696452781592,-177.00
2025-12-25 16:52:53.979738,599619696452781592,-174.00
2025-12-25 16:52:53.979738,599619696452781592,-172.00
2025-12-25 16:52:53.979738,599619696452781592,-167.00
2025-12-25 16:52:53.979738,599619696452781592,-174.00
2025-12-25 16:52:53.979738,599619696452781592,-179.00
2025-12-25 16:52:53.979738,599619696452781592,-181.00
2025-12-25 16:52:53.979738,599619696452781592,-183.00
2025-12-25 16:52:53.979738,599619696452781592,-183.00
2025-12-25 16:52:53.979738,599619696452781592,-179.00
2025-12-25 16:52:53.979738,599619696452781592,-181.00
2025-12-25 16:52:53.979738,599619696452781592,-183.00
2025-12-25 16:52:53.979738,599619696452781592,-186.00
2025-12-25 16:52:53.979738,599619696452781592,-183.00
2025-12-25 16:52:53.979738,599619696452781592,-179.00
2025-12-25 16:52:53.979738,599619696452781592,-179.00
2025-12-25 16:52:53.979738,599619696452781592,-181.00
2025-12-25 16:52:53.979738,599619696452781592,-179.00
2025-12-25 16:52:53.979738,599619696452781592,-179.00
2025-12-25 16:52:53.979738,599619696452781592,-186.00
2025-12-25 16:52:53.979738,599619696452781592,-186.00
2025-12-25 16:52:53.979738,599619696452781592,-177.00
2025-12-25 16:52:53.979738,599619696452781592,-167.00
2025-12-25 16:52:53.979738,599619696452781592,-158.00
2025-12-25 16:52:53.979738,599619696452781592,-149.00
2025-12-25 16:52:53.979738,599619696452781592,-142.00
2025-12-25 16:52:53.979738,599619696452781592,-154.00
2025-12-25 16:52:53.979738,599619696452781592,-174.00
2025-12-25 16:52:53.979738,599619696452781592,-183.00
2025-12-25 16:52:53.979738,599619696452781592,-186.00
2025-12-25 16:52:53.979738,599619696452781592,-190.00
2025-12-25 16:52:54.431038,599619697013615963,-188.00
2025-12-25 16:52:54.431038,599619697013615963,-186.00
2025-12-25 16:52:54.431038,599619697013615963,-188.00
2025-12-25 16:52:54.431038,599619697013615963,-193.00
2025-12-25 16:52:54.431038,599619697013615963,-193.00
2025-12-25 16:52:54.431038,599619697013615963,-147.00
2025-12-25 16:52:54.431038,599619697013615963,29.00
2025-12-25 16:52:54.431038,599619697013615963,333.00
2025-12-25 16:52:54.431038,599619697013615963,413.00
2025-12-25 16:52:54.431038,599619697013615963,-197.00
2025-12-25 16:52:54.431038,599619697013615963,-1041.00
2025-12-25 16:52:54.431038,599619697013615963,-1059.00
2025-12-25 16:52:54.431038,599619697013615963,-473.00
2025-12-25 16:52:54.431038,599619697013615963,-183.00
2025-12-25 16:52:54.431038,599619697013615963,-160.00
2025-12-25 16:52:54.431038,599619697013615963,-105.00
2025-12-25 16:52:54.431038,599619697013615963,-78.00
2025-12-25 16:52:54.431038,599619697013615963,-96.00
2025-12-25 16:52:54.431038,599619697013615963,-78.00
2025-12-25 16:52:54.431038,599619697013615963,-45.00
2025-12-25 16:52:54.431038,599619697013615963,-48.00
2025-12-25 16:52:54.431038,599619697013615963,-62.00
2025-12-25 16:52:54.431038,599619697013615963,-62.00
2025-12-25 16:52:54.431038,599619697013615963,-50.00
2025-12-25 16:52:54.431038,599619697013615963,-36.00
2025-12-25 16:52:54.431038,599619697013615963,-27.00
2025-12-25 16:52:54.431038,599619697013615963,-32.00
2025-12-25 16:52:54.431038,599619697013615963,-34.00
2025-12-25 16:52:54.431038,599619697013615963,-29.00
2025-12-25 16:52:54.431038,599619697013615963,-22.00
2025-12-25 16:52:54.431038,599619697013615963,-2.00
2025-12-25 16:52:54.431038,599619697013615963,11.00
2025-12-25 16:52:54.431038,599619697013615963,11.00
2025-12-25 16:52:54.431038,599619697013615963,18.00
2025-12-25 16:52:54.431038,599619697013615963,29.00
2025-12-25 16:52:54.431038,599619697013615963,34.00
2025-12-25 16:52:54.431038,599619697013615963,36.00
2025-12-25 16:52:54.431038,599619697013615963,39.00
2025-12-25 16:52:54.431038,599619697013615963,34.00
2025-12-25 16:52:54.431038,599619697013615963,27.00
2025-12-25 16:52:54.431038,599619697013615963,18.00
2025-12-25 16:52:54.431038,599619697013615963,-2.00
2025-12-25 16:52:54.431038,599619697013615963,-29.00
2025-12-25 16:52:54.431038,599619697013615963,-62.00
2025-12-25 16:52:54.431038,599619697013615963,-96.00
2025-12-25 16:52:54.431038,599619697013615963,-137.00
2025-12-25 16:52:54.431038,599619697013615963,-165.00
2025-12-25 16:52:54.431038,599619697013615963,-170.00
2025-12-25 16:52:54.431038,599619697013615963,-172.00
2025-12-25 16:52:54.431038,599619697013615963,-181.00
2025-12-25 16:52:54.431038,599619697013615963,-186.00
2025-12-25 16:52:54.431038,599619697013615963,-186.00
2025-12-25 16:52:54.431038,599619697013615963,-186.00
2025-12-25 16:52:54.431038,599619697013615963,-174.00
2025-12-25 16:52:54.431038,599619697013615963,-165.00
2025-12-25 16:52:54.431038,599619697013615963,-165.00
2025-12-25 16:52:54.431038,599619697013615963,-160.00
2025-12-25 16:52:54.431038,599619697013615963,-160.00
2025-12-25 16:52:54.431038,599619697013615963,-165.00
2025-12-25 16:52:54.431038,599619697013615963,-163.00
2025-12-25 16:52:54.431038,599619697013615963,-156.00
2025-12-25 16:52:54.431038,599619697013615963,-156.00
2025-12-25 16:52:54.431038,599619697013615963,-156.00
2025-12-25 16:52:54.431038,599619697013615963,-158.00
2025-12-25 16:52:54.431038,599619697013615963,-163.00
2025-12-25 16:52:54.431038,599619697013615963,-160.00
2025-12-25 16:52:54.431038,599619697013615963,-158.00
2025-12-25 16:52:54.431038,599619697013615963,-165.00
2025-12-25 16:52:54.431038,599619697013615963,-174.00
2025-12-25 16:52:54.431038,599619697013615963,-177.00
2025-12-25 16:52:54.431038,599619697013615963,-174.00
2025-12-25 16:52:54.431038,599619697013615963,-170.00
2025-12-25 16:52:54.431038,599619697013615963,-172.00
2025-12-25 16:52:54.932426,599619697574470680,-179.00
2025-12-25 16:52:54.932426,599619697574470680,-179.00
2025-12-25 16:52:54.932426,599619697574470680,-170.00
2025-12-25 16:52:54.932426,599619697574470680,-165.00
2025-12-25 16:52:54.932426,599619697574470680,-167.00
2025-12-25 16:52:54.932426,599619697574470680,-170.00
2025-12-25 16:52:54.932426,599619697574470680,-170.00
2025-12-25 16:52:54.932426,599619697574470680,-172.00
2025-12-25 16:52:54.932426,599619697574470680,-167.00
2025-12-25 16:52:54.932426,599619697574470680,-154.00
2025-12-25 16:52:54.932426,599619697574470680,-135.00
2025-12-25 16:52:54.932426,599619697574470680,-119.00
2025-12-25 16:52:54.932426,599619697574470680,-108.00
2025-12-25 16:52:54.932426,599619697574470680,-119.00
2025-12-25 16:52:54.932426,599619697574470680,-147.00
2025-12-25 16:52:54.932426,599619697574470680,-151.00
2025-12-25 16:52:54.932426,599619697574470680,-142.00
2025-12-25 16:52:54.932426,599619697574470680,-144.00
2025-12-25 16:52:54.932426,599619697574470680,-151.00
2025-12-25 16:52:54.932426,599619697574470680,-154.00
2025-12-25 16:52:54.932426,599619697574470680,-156.00
2025-12-25 16:52:54.932426,599619697574470680,-154.00
2025-12-25 16:52:54.932426,599619697574470680,-156.00
2025-12-25 16:52:54.932426,599619697574470680,-137.00
2025-12-25 16:52:54.932426,599619697574470680,-11.00
2025-12-25 16:52:54.932426,599619697574470680,278.00
2025-12-25 16:52:54.932426,599619697574470680,505.00
2025-12-25 16:52:54.932426,599619697574470680,147.00
2025-12-25 16:52:54.932426,599619697574470680,-790.00
2025-12-25 16:52:54.932426,599619697574470680,-1209.00
2025-12-25 16:52:54.932426,599619697574470680,-703.00
2025-12-25 16:52:54.932426,599619697574470680,-262.00
2025-12-25 16:52:54.932426,599619697574470680,-227.00
2025-12-25 16:52:54.932426,599619697574470680,-167.00
2025-12-25 16:52:54.932426,599619697574470680,-101.00
2025-12-25 16:52:54.932426,599619697574470680,-133.00
2025-12-25 16:52:54.932426,599619697574470680,-137.00
2025-12-25 16:52:54.932426,599619697574470680,-108.00
2025-12-25 16:52:54.932426,599619697574470680,-103.00
2025-12-25 16:52:54.932426,599619697574470680,-103.00
2025-12-25 16:52:54.932426,599619697574470680,-96.00
2025-12-25 16:52:54.932426,599619697574470680,-101.00
2025-12-25 16:52:54.932426,599619697574470680,-98.00
2025-12-25 16:52:54.932426,599619697574470680,-89.00
2025-12-25 16:52:54.932426,599619697574470680,-96.00
2025-12-25 16:52:54.932426,599619697574470680,-96.00
2025-12-25 16:52:54.932426,599619697574470680,-80.00
2025-12-25 16:52:54.932426,599619697574470680,-73.00
2025-12-25 16:52:54.932426,599619697574470680,-78.00
2025-12-25 16:52:54.932426,599619697574470680,-75.00
2025-12-25 16:52:54.932426,599619697574470680,-62.00
2025-12-25 16:52:54.932426,599619697574470680,-50.00
2025-12-25 16:52:54.932426,599619697574470680,-45.00
2025-12-25 16:52:54.932426,599619697574470680,-41.00
2025-12-25 16:52:54.932426,599619697574470680,-32.00
2025-12-25 16:52:54.932426,599619697574470680,-27.00
2025-12-25 16:52:54.932426,599619697574470680,-25.00
2025-12-25 16:52:54.932426,599619697574470680,-29.00
2025-12-25 16:52:54.932426,599619697574470680,-41.00
2025-12-25 16:52:54.932426,599619697574470680,-59.00
2025-12-25 16:52:54.932426,599619697574470680,-87.00
2025-12-25 16:52:54.932426,599619697574470680,-126.00
2025-12-25 16:52:54.932426,599619697574470680,-165.00
2025-12-25 16:52:54.932426,599619697574470680,-200.00
2025-12-25 16:52:54.932426,599619697574470680,-223.00
2025-12-25 16:52:54.932426,599619697574470680,-234.00
2025-12-25 16:52:54.932426,599619697574470680,-245.00
2025-12-25 16:52:54.932426,599619697574470680,-248.00
2025-12-25 16:52:54.932426,599619697574470680,-241.00
2025-12-25 16:52:54.932426,599619697574470680,-239.00
2025-12-25 16:52:54.932426,599619697574470680,-232.00
2025-12-25 16:52:54.932426,599619697574470680,-220.00
2025-12-25 16:52:54.932426,599619697574470680,-229.00
2025-12-25 16:52:55.534301,599619698135299967,-229.00
2025-12-25 16:52:55.534301,599619698135299967,-216.00
2025-12-25 16:52:55.534301,599619698135299967,-213.00
2025-12-25 16:52:55.534301,599619698135299967,-218.00
2025-12-25 16:52:55.534301,599619698135299967,-213.00
2025-12-25 16:52:55.534301,599619698135299967,-204.00
2025-12-25 16:52:55.534301,599619698135299967,-197.00
2025-12-25 16:52:55.534301,599619698135299967,-181.00
2025-12-25 16:52:55.534301,599619698135299967,-174.00
2025-12-25 16:52:55.534301,599619698135299967,-181.00
2025-12-25 16:52:55.534301,599619698135299967,-183.00
2025-12-25 16:52:55.534301,599619698135299967,-177.00
2025-12-25 16:52:55.534301,599619698135299967,-170.00
2025-12-25 16:52:55.534301,599619698135299967,-160.00
2025-12-25 16:52:55.534301,599619698135299967,-158.00
2025-12-25 16:52:55.534301,599619698135299967,-163.00
2025-12-25 16:52:55.534301,599619698135299967,-163.00
2025-12-25 16:52:55.534301,599619698135299967,-165.00
2025-12-25 16:52:55.534301,599619698135299967,-167.00
2025-12-25 16:52:55.534301,599619698135299967,-170.00
2025-12-25 16:52:55.534301,599619698135299967,-174.00
2025-12-25 16:52:55.534301,599619698135299967,-172.00
2025-12-25 16:52:55.534301,599619698135299967,-177.00
2025-12-25 16:52:55.534301,599619698135299967,-193.00
2025-12-25 16:52:55.534301,599619698135299967,-188.00
2025-12-25 16:52:55.534301,599619698135299967,-174.00
2025-12-25 16:52:55.534301,599619698135299967,-170.00
2025-12-25 16:52:55.534301,599619698135299967,-154.00
2025-12-25 16:52:55.534301,599619698135299967,-142.00
2025-12-25 16:52:55.534301,599619698135299967,-158.00
2025-12-25 16:52:55.534301,599619698135299967,-177.00
2025-12-25 16:52:55.534301,599619698135299967,-177.00
2025-12-25 16:52:55.534301,599619698135299967,-181.00
2025-12-25 16:52:55.534301,599619698135299967,-188.00
2025-12-25 16:52:55.534301,599619698135299967,-193.00
2025-12-25 16:52:55.534301,599619698135299967,-195.00
2025-12-25 16:52:55.534301,599619698135299967,-195.00
2025-12-25 16:52:55.534301,599619698135299967,-197.00
2025-12-25 16:52:55.534301,599619698135299967,-200.00
2025-12-25 16:52:55.534301,599619698135299967,-144.00
2025-12-25 16:52:55.534301,599619698135299967,64.00
2025-12-25 16:52:55.534301,599619698135299967,416.00
2025-12-25 16:52:55.534301,599619698135299967,501.00
2025-12-25 16:52:55.534301,599619698135299967,-218.00
2025-12-25 16:52:55.534301,599619698135299967,-1174.00
2025-12-25 16:52:55.534301,599619698135299967,-1158.00
2025-12-25 16:52:55.534301,599619698135299967,-510.00
2025-12-25 16:52:55.534301,599619698135299967,-252.00
2025-12-25 16:52:55.534301,599619698135299967,-250.00
2025-12-25 16:52:55.534301,599619698135299967,-167.00
2025-12-25 16:52:55.534301,599619698135299967,-147.00
2025-12-25 16:52:55.534301,599619698135299967,-177.00
2025-12-25 16:52:55.534301,599619698135299967,-158.00
2025-12-25 16:52:55.534301,599619698135299967,-135.00
2025-12-25 16:52:55.534301,599619698135299967,-142.00
2025-12-25 16:52:55.534301,599619698135299967,-142.00
2025-12-25 16:52:55.534301,599619698135299967,-137.00
2025-12-25 16:52:55.534301,599619698135299967,-142.00
2025-12-25 16:52:55.534301,599619698135299967,-140.00
2025-12-25 16:52:55.534301,599619698135299967,-128.00
2025-12-25 16:52:55.534301,599619698135299967,-114.00
2025-12-25 16:52:55.534301,599619698135299967,-105.00
2025-12-25 16:52:55.534301,599619698135299967,-101.00
2025-12-25 16:52:55.534301,599619698135299967,-94.00
2025-12-25 16:52:55.534301,599619698135299967,-85.00
2025-12-25 16:52:55.534301,599619698135299967,-73.00
2025-12-25 16:52:55.534301,599619698135299967,-62.00
2025-12-25 16:52:55.534301,599619698135299967,-55.00
2025-12-25 16:52:55.534301,599619698135299967,-50.00
2025-12-25 16:52:55.534301,599619698135299967,-39.00
2025-12-25 16:52:55.534301,599619698135299967,-36.00
2025-12-25 16:52:55.534301,599619698135299967,-36.00
2025-12-25 16:52:55.534301,599619698135299967,-36.00
2025-12-25 16:52:56.035757,599619698696149598,-48.00
2025-12-25 16:52:56.035757,599619698696149598,-68.00
2025-12-25 16:52:56.035757,599619698696149598,-94.00
2025-12-25 16:52:56.035757,599619698696149598,-131.00
2025-12-25 16:52:56.035757,599619698696149598,-163.00
2025-12-25 16:52:56.035757,599619698696149598,-193.00
2025-12-25 16:52:56.035757,599619698696149598,-229.00
2025-12-25 16:52:56.035757,599619698696149598,-252.00
2025-12-25 16:52:56.035757,599619698696149598,-271.00
2025-12-25 16:52:56.035757,599619698696149598,-280.00
2025-12-25 16:52:56.035757,599619698696149598,-266.00
2025-12-25 16:52:56.035757,599619698696149598,-252.00
2025-12-25 16:52:56.035757,599619698696149598,-259.00
2025-12-25 16:52:56.035757,599619698696149598,-266.00
2025-12-25 16:52:56.035757,599619698696149598,-268.00
2025-12-25 16:52:56.035757,599619698696149598,-268.00
2025-12-25 16:52:56.035757,599619698696149598,-257.00
2025-12-25 16:52:56.035757,599619698696149598,-255.00
2025-12-25 16:52:56.035757,599619698696149598,-259.00
2025-12-25 16:52:56.035757,599619698696149598,-250.00
2025-12-25 16:52:56.035757,599619698696149598,-239.00
2025-12-25 16:52:56.035757,599619698696149598,-234.00
2025-12-25 16:52:56.035757,599619698696149598,-229.00
2025-12-25 16:52:56.035757,599619698696149598,-223.00
2025-12-25 16:52:56.035757,599619698696149598,-218.00
2025-12-25 16:52:56.035757,599619698696149598,-223.00
2025-12-25 16:52:56.035757,599619698696149598,-227.00
2025-12-25 16:52:56.035757,599619698696149598,-227.00
2025-12-25 16:52:56.035757,599619698696149598,-225.00
2025-12-25 16:52:56.035757,599619698696149598,-225.00
2025-12-25 16:52:56.035757,599619698696149598,-227.00
2025-12-25 16:52:56.035757,599619698696149598,-232.00
2025-12-25 16:52:56.035757,599619698696149598,-236.00
2025-12-25 16:52:56.035757,599619698696149598,-236.00
2025-12-25 16:52:56.035757,599619698696149598,-229.00
2025-12-25 16:52:56.035757,599619698696149598,-232.00
2025-12-25 16:52:56.035757,599619698696149598,-236.00
2025-12-25 16:52:56.035757,599619698696149598,-236.00
2025-12-25 16:52:56.035757,599619698696149598,-241.00
2025-12-25 16:52:56.035757,599619698696149598,-252.00
2025-12-25 16:52:56.035757,599619698696149598,-245.00
2025-12-25 16:52:56.035757,599619698696149598,-229.00
2025-12-25 16:52:56.035757,599619698696149598,-220.00
2025-12-25 16:52:56.035757,599619698696149598,-197.00
2025-12-25 16:52:56.035757,599619698696149598,-177.00
2025-12-25 16:52:56.035757,599619698696149598,-190.00
2025-12-25 16:52:56.035757,599619698696149598,-209.00
2025-12-25 16:52:56.035757,599619698696149598,-204.00
2025-12-25 16:52:56.035757,599619698696149598,-211.00
2025-12-25 16:52:56.035757,599619698696149598,-225.00
2025-12-25 16:52:56.035757,599619698696149598,-220.00
2025-12-25 16:52:56.035757,599619698696149598,-216.00
2025-12-25 16:52:56.035757,599619698696149598,-216.00
2025-12-25 16:52:56.035757,599619698696149598,-206.00
2025-12-25 16:52:56.035757,599619698696149598,-195.00
2025-12-25 16:52:56.035757,599619698696149598,-179.00
2025-12-25 16:52:56.035757,599619698696149598,-59.00
2025-12-25 16:52:56.035757,599619698696149598,266.00
2025-12-25 16:52:56.035757,599619698696149598,563.00
2025-12-25 16:52:56.035757,599619698696149598,197.00
2025-12-25 16:52:56.035757,599619698696149598,-846.00
2025-12-25 16:52:56.035757,599619698696149598,-1324.00
2025-12-25 16:52:56.035757,599619698696149598,-733.00
2025-12-25 16:52:56.035757,599619698696149598,-229.00
2025-12-25 16:52:56.035757,599619698696149598,-239.00
2025-12-25 16:52:56.035757,599619698696149598,-206.00
2025-12-25 16:52:56.035757,599619698696149598,-128.00
2025-12-25 16:52:56.035757,599619698696149598,-156.00
2025-12-25 16:52:56.035757,599619698696149598,-160.00
2025-12-25 16:52:56.035757,599619698696149598,-128.00
2025-12-25 16:52:56.035757,599619698696149598,-131.00
2025-12-25 16:52:56.035757,599619698696149598,-140.00
2025-12-25 16:52:56.035757,599619698696149598,-135.00
2025-12-25 16:52:56.637458,599619699256999231,-131.00
2025-12-25 16:52:56.637458,599619699256999231,-128.00
2025-12-25 16:52:56.637458,599619699256999231,-119.00
2025-12-25 16:52:56.637458,599619699256999231,-114.00
2025-12-25 16:52:56.637458,599619699256999231,-114.00
2025-12-25 16:52:56.637458,599619699256999231,-110.00
2025-12-25 16:52:56.637458,599619699256999231,-98.00
2025-12-25 16:52:56.637458,599619699256999231,-80.00
2025-12-25 16:52:56.637458,599619699256999231,-62.00
2025-12-25 16:52:56.637458,599619699256999231,-57.00
2025-12-25 16:52:56.637458,599619699256999231,-50.00
2025-12-25 16:52:56.637458,599619699256999231,-34.00
2025-12-25 16:52:56.637458,599619699256999231,-18.00
2025-12-25 16:52:56.637458,599619699256999231,-13.00
2025-12-25 16:52:56.637458,599619699256999231,-13.00
2025-12-25 16:52:56.637458,599619699256999231,-20.00
2025-12-25 16:52:56.637458,599619699256999231,-29.00
2025-12-25 16:52:56.637458,599619699256999231,-41.00
2025-12-25 16:52:56.637458,599619699256999231,-66.00
2025-12-25 16:52:56.637458,599619699256999231,-103.00
2025-12-25 16:52:56.637458,599619699256999231,-144.00
2025-12-25 16:52:56.637458,599619699256999231,-186.00
2025-12-25 16:52:56.637458,599619699256999231,-225.00
2025-12-25 16:52:56.637458,599619699256999231,-255.00
2025-12-25 16:52:56.637458,599619699256999231,-268.00
2025-12-25 16:52:56.637458,599619699256999231,-271.00
2025-12-25 16:52:56.637458,599619699256999231,-275.00
2025-12-25 16:52:56.637458,599619699256999231,-278.00
2025-12-25 16:52:56.637458,599619699256999231,-280.00
2025-12-25 16:52:56.637458,599619699256999231,-282.00
2025-12-25 16:52:56.637458,599619699256999231,-280.00
2025-12-25 16:52:56.637458,599619699256999231,-278.00
2025-12-25 16:52:56.637458,599619699256999231,-275.00
2025-12-25 16:52:56.637458,599619699256999231,-271.00
2025-12-25 16:52:56.637458,599619699256999231,-264.00
2025-12-25 16:52:56.637458,599619699256999231,-262.00
2025-12-25 16:52:56.637458,599619699256999231,-259.00
2025-12-25 16:52:56.637458,599619699256999231,-252.00
2025-12-25 16:52:56.637458,599619699256999231,-248.00
2025-12-25 16:52:56.637458,599619699256999231,-245.00
2025-12-25 16:52:56.637458,599619699256999231,-243.00
2025-12-25 16:52:56.637458,599619699256999231,-241.00
2025-12-25 16:52:56.637458,599619699256999231,-245.00
2025-12-25 16:52:56.637458,599619699256999231,-245.00
2025-12-25 16:52:56.637458,599619699256999231,-236.00
2025-12-25 16:52:56.637458,599619699256999231,-234.00
2025-12-25 16:52:56.637458,599619699256999231,-232.00
2025-12-25 16:52:56.637458,599619699256999231,-225.00
2025-12-25 16:52:56.637458,599619699256999231,-223.00
2025-12-25 16:52:56.637458,599619699256999231,-223.00
2025-12-25 16:52:56.637458,599619699256999231,-220.00
2025-12-25 16:52:56.637458,599619699256999231,-220.00
2025-12-25 16:52:56.637458,599619699256999231,-225.00
2025-12-25 16:52:56.637458,599619699256999231,-218.00
2025-12-25 16:52:56.637458,599619699256999231,-213.00
2025-12-25 16:52:56.637458,599619699256999231,-223.00
2025-12-25 16:52:56.637458,599619699256999231,-227.00
2025-12-25 16:52:56.637458,599619699256999231,-218.00
2025-12-25 16:52:56.637458,599619699256999231,-216.00
2025-12-25 16:52:56.637458,599619699256999231,-223.00
2025-12-25 16:52:56.637458,599619699256999231,-227.00
2025-12-25 16:52:56.637458,599619699256999231,-225.00
2025-12-25 16:52:56.637458,599619699256999231,-218.00
2025-12-25 16:52:56.637458,599619699256999231,-195.00
2025-12-25 16:52:56.637458,599619699256999231,-170.00
2025-12-25 16:52:56.637458,599619699256999231,-179.00
2025-12-25 16:52:56.637458,599619699256999231,-202.00
2025-12-25 16:52:56.637458,599619699256999231,-202.00
2025-12-25 16:52:56.637458,599619699256999231,-200.00
2025-12-25 16:52:56.637458,599619699256999231,-206.00
2025-12-25 16:52:56.637458,599619699256999231,-197.00
2025-12-25 16:52:56.637458,599619699256999231,-190.00
2025-12-25 16:52:56.637458,599619699256999231,-197.00
2025-12-25 16:52:57.389574,599619699817828516,-200.00
2025-12-25 16:52:57.389574,599619699817828516,-197.00
2025-12-25 16:52:57.389574,599619699817828516,-186.00
2025-12-25 16:52:57.389574,599619699817828516,-91.00
2025-12-25 16:52:57.389574,599619699817828516,197.00
2025-12-25 16:52:57.389574,599619699817828516,558.00
2025-12-25 16:52:57.389574,599619699817828516,400.00
2025-12-25 16:52:57.389574,599619699817828516,-602.00
2025-12-25 16:52:57.389574,599619699817828516,-1358.00
2025-12-25 16:52:57.389574,599619699817828516,-875.00
2025-12-25 16:52:57.389574,599619699817828516,-193.00
2025-12-25 16:52:57.389574,599619699817828516,-163.00
2025-12-25 16:52:57.389574,599619699817828516,-206.00
2025-12-25 16:52:57.389574,599619699817828516,-108.00
2025-12-25 16:52:57.389574,599619699817828516,-110.00
2025-12-25 16:52:57.389574,599619699817828516,-137.00
2025-12-25 16:52:57.389574,599619699817828516,-98.00
2025-12-25 16:52:57.389574,599619699817828516,-85.00
2025-12-25 16:52:57.389574,599619699817828516,-98.00
2025-12-25 16:52:57.389574,599619699817828516,-91.00
2025-12-25 16:52:57.389574,599619699817828516,-87.00
2025-12-25 16:52:57.389574,599619699817828516,-94.00
2025-12-25 16:52:57.389574,599619699817828516,-96.00
2025-12-25 16:52:57.389574,599619699817828516,-87.00
2025-12-25 16:52:57.389574,599619699817828516,-87.00
2025-12-25 16:52:57.389574,599619699817828516,-87.00
2025-12-25 16:52:57.389574,599619699817828516,-78.00
2025-12-25 16:52:57.389574,599619699817828516,-73.00
2025-12-25 16:52:57.389574,599619699817828516,-68.00
2025-12-25 16:52:57.389574,599619699817828516,-57.00
2025-12-25 16:52:57.389574,599619699817828516,-48.00
2025-12-25 16:52:57.389574,599619699817828516,-45.00
2025-12-25 16:52:57.389574,599619699817828516,-43.00
2025-12-25 16:52:57.389574,599619699817828516,-32.00
2025-12-25 16:52:57.389574,599619699817828516,-27.00
2025-12-25 16:52:57.389574,599619699817828516,-32.00
2025-12-25 16:52:57.389574,599619699817828516,-43.00
2025-12-25 16:52:57.389574,599619699817828516,-50.00
2025-12-25 16:52:57.389574,599619699817828516,-64.00
2025-12-25 16:52:57.389574,599619699817828516,-89.00
2025-12-25 16:52:57.389574,599619699817828516,-126.00
2025-12-25 16:52:57.389574,599619699817828516,-172.00
2025-12-25 16:52:57.389574,599619699817828516,-216.00
2025-12-25 16:52:57.389574,599619699817828516,-241.00
2025-12-25 16:52:57.389574,599619699817828516,-257.00
2025-12-25 16:52:57.389574,599619699817828516,-273.00
2025-12-25 16:52:57.389574,599619699817828516,-273.00
2025-12-25 16:52:57.389574,599619699817828516,-268.00
2025-12-25 16:52:57.389574,599619699817828516,-273.00
2025-12-25 16:52:57.389574,599619699817828516,-280.00
2025-12-25 16:52:57.389574,599619699817828516,-278.00
2025-12-25 16:52:57.389574,599619699817828516,-275.00
2025-12-25 16:52:57.389574,599619699817828516,-273.00
2025-12-25 16:52:57.389574,599619699817828516,-271.00
2025-12-25 16:52:57.389574,599619699817828516,-271.00
2025-12-25 16:52:57.389574,599619699817828516,-266.00
2025-12-25 16:52:57.389574,599619699817828516,-262.00
2025-12-25 16:52:57.389574,599619699817828516,-259.00
2025-12-25 16:52:57.389574,599619699817828516,-255.00
2025-12-25 16:52:57.389574,599619699817828516,-257.00
2025-12-25 16:52:57.389574,599619699817828516,-257.00
2025-12-25 16:52:57.389574,599619699817828516,-255.00
2025-12-25 16:52:57.389574,599619699817828516,-252.00
2025-12-25 16:52:57.389574,599619699817828516,-252.00
2025-12-25 16:52:57.389574,599619699817828516,-252.00
2025-12-25 16:52:57.389574,599619699817828516,-257.00
2025-12-25 16:52:57.389574,599619699817828516,-259.00
2025-12-25 16:52:57.389574,599619699817828516,-252.00
2025-12-25 16:52:57.389574,599619699817828516,-248.00
2025-12-25 16:52:57.389574,599619699817828516,-250.00
2025-12-25 16:52:57.389574,599619699817828516,-250.00
2025-12-25 16:52:57.389574,599619699817828516,-252.00
2025-12-25 16:52:57.389574,599619699817828516,-255.00
2025-12-25 16:52:57.740605,599619700378683233,-255.00
2025-12-25 16:52:57.740605,599619700378683233,-248.00
2025-12-25 16:52:57.740605,599619700378683233,-241.00
2025-12-25 16:52:57.740605,599619700378683233,-243.00
2025-12-25 16:52:57.740605,599619700378683233,-250.00
2025-12-25 16:52:57.740605,599619700378683233,-252.00
2025-12-25 16:52:57.740605,599619700378683233,-248.00
2025-12-25 16:52:57.740605,599619700378683233,-239.00
2025-12-25 16:52:57.740605,599619700378683233,-225.00
2025-12-25 16:52:57.740605,599619700378683233,-220.00
2025-12-25 16:52:57.740605,599619700378683233,-229.00
2025-12-25 16:52:57.740605,599619700378683233,-234.00
2025-12-25 16:52:57.740605,599619700378683233,-229.00
2025-12-25 16:52:57.740605,599619700378683233,-225.00
2025-12-25 16:52:57.740605,599619700378683233,-216.00
2025-12-25 16:52:57.740605,599619700378683233,-218.00
2025-12-25 16:52:57.740605,599619700378683233,-220.00
2025-12-25 16:52:57.740605,599619700378683233,-209.00
2025-12-25 16:52:57.740605,599619700378683233,-183.00
2025-12-25 16:52:57.740605,599619700378683233,-151.00
2025-12-25 16:52:57.740605,599619700378683233,-142.00
2025-12-25 16:52:57.740605,599619700378683233,-167.00
2025-12-25 16:52:57.740605,599619700378683233,-183.00
2025-12-25 16:52:57.740605,599619700378683233,-183.00
2025-12-25 16:52:57.740605,599619700378683233,-188.00
2025-12-25 16:52:57.740605,599619700378683233,-186.00
2025-12-25 16:52:57.740605,599619700378683233,-179.00
2025-12-25 16:52:57.740605,599619700378683233,-186.00
2025-12-25 16:52:57.740605,599619700378683233,-195.00
2025-12-25 16:52:57.740605,599619700378683233,-200.00
2025-12-25 16:52:57.740605,599619700378683233,-190.00
2025-12-25 16:52:57.740605,599619700378683233,-89.00
2025-12-25 16:52:57.740605,599619700378683233,218.00
2025-12-25 16:52:57.740605,599619700378683233,563.00
2025-12-25 16:52:57.740605,599619700378683233,337.00
2025-12-25 16:52:57.740605,599619700378683233,-689.00
2025-12-25 16:52:57.740605,599619700378683233,-1365.00
2025-12-25 16:52:57.740605,599619700378683233,-802.00
2025-12-25 16:52:57.740605,599619700378683233,-144.00
2025-12-25 16:52:57.740605,599619700378683233,-179.00
2025-12-25 16:52:57.740605,599619700378683233,-229.00
2025-12-25 16:52:57.740605,599619700378683233,-112.00
2025-12-25 16:52:57.740605,599619700378683233,-124.00
2025-12-25 16:52:57.740605,599619700378683233,-158.00
2025-12-25 16:52:57.740605,599619700378683233,-121.00
2025-12-25 16:52:57.740605,599619700378683233,-119.00
2025-12-25 16:52:57.740605,599619700378683233,-140.00
2025-12-25 16:52:57.740605,599619700378683233,-131.00
2025-12-25 16:52:57.740605,599619700378683233,-119.00
2025-12-25 16:52:57.740605,599619700378683233,-119.00
2025-12-25 16:52:57.740605,599619700378683233,-119.00
2025-12-25 16:52:57.740605,599619700378683233,-119.00
2025-12-25 16:52:57.740605,599619700378683233,-119.00
2025-12-25 16:52:57.740605,599619700378683233,-114.00
2025-12-25 16:52:57.740605,599619700378683233,-110.00
2025-12-25 16:52:57.740605,599619700378683233,-108.00
2025-12-25 16:52:57.740605,599619700378683233,-103.00
2025-12-25 16:52:57.740605,599619700378683233,-94.00
2025-12-25 16:52:57.740605,599619700378683233,-80.00
2025-12-25 16:52:57.740605,599619700378683233,-68.00
2025-12-25 16:52:57.740605,599619700378683233,-59.00
2025-12-25 16:52:57.740605,599619700378683233,-50.00
2025-12-25 16:52:57.740605,599619700378683233,-50.00
2025-12-25 16:52:57.740605,599619700378683233,-59.00
2025-12-25 16:52:57.740605,599619700378683233,-64.00
2025-12-25 16:52:57.740605,599619700378683233,-73.00
2025-12-25 16:52:57.740605,599619700378683233,-94.00
2025-12-25 16:52:57.740605,599619700378683233,-119.00
2025-12-25 16:52:57.740605,599619700378683233,-154.00
2025-12-25 16:52:57.740605,599619700378683233,-195.00
2025-12-25 16:52:57.740605,599619700378683233,-232.00
2025-12-25 16:52:57.740605,599619700378683233,-259.00
2025-12-25 16:52:57.740605,599619700378683233,-278.00
2025-12-25 16:52:58.392356,599619700939517606,-291.00
2025-12-25 16:52:58.392356,599619700939517606,-294.00
2025-12-25 16:52:58.392356,599619700939517606,-298.00
2025-12-25 16:52:58.392356,599619700939517606,-303.00
2025-12-25 16:52:58.392356,599619700939517606,-298.00
2025-12-25 16:52:58.392356,599619700939517606,-289.00
2025-12-25 16:52:58.392356,599619700939517606,-282.00
2025-12-25 16:52:58.392356,599619700939517606,-280.00
2025-12-25 16:52:58.392356,599619700939517606,-282.00
2025-12-25 16:52:58.392356,599619700939517606,-282.00
2025-12-25 16:52:58.392356,599619700939517606,-275.00
2025-12-25 16:52:58.392356,599619700939517606,-257.00
2025-12-25 16:52:58.392356,599619700939517606,-245.00
2025-12-25 16:52:58.392356,599619700939517606,-252.00
2025-12-25 16:52:58.392356,599619700939517606,-255.00
2025-12-25 16:52:58.392356,599619700939517606,-248.00
2025-12-25 16:52:58.392356,599619700939517606,-248.00
2025-12-25 16:52:58.392356,599619700939517606,-252.00
2025-12-25 16:52:58.392356,599619700939517606,-250.00
2025-12-25 16:52:58.392356,599619700939517606,-241.00
2025-12-25 16:52:58.392356,599619700939517606,-236.00
2025-12-25 16:52:58.392356,599619700939517606,-239.00
2025-12-25 16:52:58.392356,599619700939517606,-241.00
2025-12-25 16:52:58.392356,599619700939517606,-236.00
2025-12-25 16:52:58.392356,599619700939517606,-229.00
2025-12-25 16:52:58.392356,599619700939517606,-227.00
2025-12-25 16:52:58.392356,599619700939517606,-229.00
2025-12-25 16:52:58.392356,599619700939517606,-232.00
2025-12-25 16:52:58.392356,599619700939517606,-232.00
2025-12-25 16:52:58.392356,599619700939517606,-227.00
2025-12-25 16:52:58.392356,599619700939517606,-227.00
2025-12-25 16:52:58.392356,599619700939517606,-232.00
2025-12-25 16:52:58.392356,599619700939517606,-232.00
2025-12-25 16:52:58.392356,599619700939517606,-232.00
2025-12-25 16:52:58.392356,599619700939517606,-234.00
2025-12-25 16:52:58.392356,599619700939517606,-234.00
2025-12-25 16:52:58.392356,599619700939517606,-229.00
2025-12-25 16:52:58.392356,599619700939517606,-223.00
2025-12-25 16:52:58.392356,599619700939517606,-225.00
2025-12-25 16:52:58.392356,599619700939517606,-223.00
2025-12-25 16:52:58.392356,599619700939517606,-213.00
2025-12-25 16:52:58.392356,599619700939517606,-213.00
2025-12-25 16:52:58.392356,599619700939517606,-213.00
2025-12-25 16:52:58.392356,599619700939517606,-213.00
2025-12-25 16:52:58.392356,599619700939517606,-216.00
2025-12-25 16:52:58.392356,599619700939517606,-218.00
2025-12-25 16:52:58.392356,599619700939517606,-216.00
2025-12-25 16:52:58.392356,599619700939517606,-216.00
2025-12-25 16:52:58.392356,599619700939517606,-213.00
2025-12-25 16:52:58.392356,599619700939517606,-209.00
2025-12-25 16:52:58.392356,599619700939517606,-211.00
2025-12-25 16:52:58.392356,599619700939517606,-213.00
2025-12-25 16:52:58.392356,599619700939517606,-211.00
2025-12-25 16:52:58.392356,599619700939517606,-197.00
2025-12-25 16:52:58.392356,599619700939517606,-167.00
2025-12-25 16:52:58.392356,599619700939517606,-158.00
2025-12-25 16:52:58.392356,599619700939517606,-190.00
2025-12-25 16:52:58.392356,599619700939517606,-213.00
2025-12-25 16:52:58.392356,599619700939517606,-209.00
2025-12-25 16:52:58.392356,599619700939517606,-209.00
2025-12-25 16:52:58.392356,599619700939517606,-218.00
2025-12-25 16:52:58.392356,599619700939517606,-216.00
2025-12-25 16:52:58.392356,599619700939517606,-216.00
2025-12-25 16:52:58.392356,599619700939517606,-223.00
2025-12-25 16:52:58.392356,599619700939517606,-225.00
2025-12-25 16:52:58.392356,599619700939517606,-223.00
2025-12-25 16:52:58.392356,599619700939517606,-177.00
2025-12-25 16:52:58.392356,599619700939517606,16.00
2025-12-25 16:52:58.392356,599619700939517606,358.00
2025-12-25 16:52:58.392356,599619700939517606,446.00
2025-12-25 16:52:58.392356,599619700939517606,-266.00
2025-12-25 16:52:58.392356,599619700939517606,-1220.00
2025-12-25 16:52:58.392356,599619700939517606,-1151.00
2025-12-25 16:52:58.843772,599619701500362149,-423.00
2025-12-25 16:52:58.843772,599619701500362149,-195.00
2025-12-25 16:52:58.843772,599619701500362149,-273.00
2025-12-25 16:52:58.843772,599619701500362149,-190.00
2025-12-25 16:52:58.843772,599619701500362149,-144.00
2025-12-25 16:52:58.843772,599619701500362149,-183.00
2025-12-25 16:52:58.843772,599619701500362149,-174.00
2025-12-25 16:52:58.843772,599619701500362149,-149.00
2025-12-25 16:52:58.843772,599619701500362149,-149.00
2025-12-25 16:52:58.843772,599619701500362149,-151.00
2025-12-25 16:52:58.843772,599619701500362149,-144.00
2025-12-25 16:52:58.843772,599619701500362149,-140.00
2025-12-25 16:52:58.843772,599619701500362149,-142.00
2025-12-25 16:52:58.843772,599619701500362149,-140.00
2025-12-25 16:52:58.843772,599619701500362149,-124.00
2025-12-25 16:52:58.843772,599619701500362149,-112.00
2025-12-25 16:52:58.843772,599619701500362149,-110.00
2025-12-25 16:52:58.843772,599619701500362149,-94.00
2025-12-25 16:52:58.843772,599619701500362149,-78.00
2025-12-25 16:52:58.843772,599619701500362149,-71.00
2025-12-25 16:52:58.843772,599619701500362149,-52.00
2025-12-25 16:52:58.843772,599619701500362149,-36.00
2025-12-25 16:52:58.843772,599619701500362149,-39.00
2025-12-25 16:52:58.843772,599619701500362149,-34.00
2025-12-25 16:52:58.843772,599619701500362149,-25.00
2025-12-25 16:52:58.843772,599619701500362149,-27.00
2025-12-25 16:52:58.843772,599619701500362149,-32.00
2025-12-25 16:52:58.843772,599619701500362149,-39.00
2025-12-25 16:52:58.843772,599619701500362149,-57.00
2025-12-25 16:52:58.843772,599619701500362149,-78.00
2025-12-25 16:52:58.843772,599619701500362149,-103.00
2025-12-25 16:52:58.843772,599619701500362149,-140.00
2025-12-25 16:52:58.843772,599619701500362149,-179.00
2025-12-25 16:52:58.843772,599619701500362149,-209.00
2025-12-25 16:52:58.843772,599619701500362149,-236.00
2025-12-25 16:52:58.843772,599619701500362149,-255.00
2025-12-25 16:52:58.843772,599619701500362149,-257.00
2025-12-25 16:52:58.843772,599619701500362149,-259.00
2025-12-25 16:52:58.843772,599619701500362149,-266.00
2025-12-25 16:52:58.843772,599619701500362149,-271.00
2025-12-25 16:52:58.843772,599619701500362149,-264.00
2025-12-25 16:52:58.843772,599619701500362149,-255.00
2025-12-25 16:52:58.843772,599619701500362149,-255.00
2025-12-25 16:52:58.843772,599619701500362149,-257.00
2025-12-25 16:52:58.843772,599619701500362149,-255.00
2025-12-25 16:52:58.843772,599619701500362149,-252.00
2025-12-25 16:52:58.843772,599619701500362149,-250.00
2025-12-25 16:52:58.843772,599619701500362149,-248.00
2025-12-25 16:52:58.843772,599619701500362149,-248.00
2025-12-25 16:52:58.843772,599619701500362149,-248.00
2025-12-25 16:52:58.843772,599619701500362149,-248.00
2025-12-25 16:52:58.843772,599619701500362149,-252.00
2025-12-25 16:52:58.843772,599619701500362149,-250.00
2025-12-25 16:52:58.843772,599619701500362149,-243.00
2025-12-25 16:52:58.843772,599619701500362149,-241.00
2025-12-25 16:52:58.843772,599619701500362149,-241.00
2025-12-25 16:52:58.843772,599619701500362149,-241.00
2025-12-25 16:52:58.843772,599619701500362149,-241.00
2025-12-25 16:52:58.843772,599619701500362149,-243.00
2025-12-25 16:52:58.843772,599619701500362149,-241.00
2025-12-25 16:52:58.843772,599619701500362149,-243.00
2025-12-25 16:52:58.843772,599619701500362149,-245.00
2025-12-25 16:52:58.843772,599619701500362149,-245.00
2025-12-25 16:52:58.843772,599619701500362149,-245.00
2025-12-25 16:52:58.843772,599619701500362149,-248.00
2025-12-25 16:52:58.843772,599619701500362149,-248.00
2025-12-25 16:52:58.843772,599619701500362149,-248.00
2025-12-25 16:52:58.843772,599619701500362149,-243.00
2025-12-25 16:52:58.843772,599619701500362149,-245.00
2025-12-25 16:52:58.843772,599619701500362149,-248.00
2025-12-25 16:52:58.843772,599619701500362149,-248.00
2025-12-25 16:52:58.843772,599619701500362149,-245.00
2025-12-25 16:52:58.843772,599619701500362149,-243.00
2025-12-25 16:52:59.445349,599619702061186350,-239.00
2025-12-25 16:52:59.445349,599619702061186350,-236.00
2025-12-25 16:52:59.445349,599619702061186350,-243.00
2025-12-25 16:52:59.445349,599619702061186350,-243.00
2025-12-25 16:52:59.445349,599619702061186350,-243.00
2025-12-25 16:52:59.445349,599619702061186350,-239.00
2025-12-25 16:52:59.445349,599619702061186350,-229.00
2025-12-25 16:52:59.445349,599619702061186350,-227.00
2025-12-25 16:52:59.445349,599619702061186350,-232.00
2025-12-25 16:52:59.445349,599619702061186350,-227.00
2025-12-25 16:52:59.445349,599619702061186350,-218.00
2025-12-25 16:52:59.445349,599619702061186350,-216.00
2025-12-25 16:52:59.445349,599619702061186350,-220.00
2025-12-25 16:52:59.445349,599619702061186350,-220.00
2025-12-25 16:52:59.445349,599619702061186350,-223.00
2025-12-25 16:52:59.445349,599619702061186350,-229.00
2025-12-25 16:52:59.445349,599619702061186350,-227.00
2025-12-25 16:52:59.445349,599619702061186350,-225.00
2025-12-25 16:52:59.445349,599619702061186350,-229.00
2025-12-25 16:52:59.445349,599619702061186350,-232.00
2025-12-25 16:52:59.445349,599619702061186350,-234.00
2025-12-25 16:52:59.445349,599619702061186350,-241.00
2025-12-25 16:52:59.445349,599619702061186350,-239.00
2025-12-25 16:52:59.445349,599619702061186350,-227.00
2025-12-25 16:52:59.445349,599619702061186350,-211.00
2025-12-25 16:52:59.445349,599619702061186350,-195.00
2025-12-25 16:52:59.445349,599619702061186350,-190.00
2025-12-25 16:52:59.445349,599619702061186350,-220.00
2025-12-25 16:52:59.445349,599619702061186350,-245.00
2025-12-25 16:52:59.445349,599619702061186350,-243.00
2025-12-25 16:52:59.445349,599619702061186350,-243.00
2025-12-25 16:52:59.445349,599619702061186350,-248.00
2025-12-25 16:52:59.445349,599619702061186350,-234.00
2025-12-25 16:52:59.445349,599619702061186350,-225.00
2025-12-25 16:52:59.445349,599619702061186350,-227.00
2025-12-25 16:52:59.445349,599619702061186350,-232.00
2025-12-25 16:52:59.445349,599619702061186350,-227.00
2025-12-25 16:52:59.445349,599619702061186350,-163.00
2025-12-25 16:52:59.445349,599619702061186350,48.00
2025-12-25 16:52:59.445349,599619702061186350,356.00
2025-12-25 16:52:59.445349,599619702061186350,303.00
2025-12-25 16:52:59.445349,599619702061186350,-517.00
2025-12-25 16:52:59.445349,599619702061186350,-1303.00
2025-12-25 16:52:59.445349,599619702061186350,-1020.00
2025-12-25 16:52:59.445349,599619702061186350,-374.00
2025-12-25 16:52:59.445349,599619702061186350,-250.00
2025-12-25 16:52:59.445349,599619702061186350,-271.00
2025-12-25 16:52:59.445349,599619702061186350,-188.00
2025-12-25 16:52:59.445349,599619702061186350,-193.00
2025-12-25 16:52:59.445349,599619702061186350,-220.00
2025-12-25 16:52:59.445349,599619702061186350,-190.00
2025-12-25 16:52:59.445349,599619702061186350,-186.00
2025-12-25 16:52:59.445349,599619702061186350,-188.00
2025-12-25 16:52:59.445349,599619702061186350,-160.00
2025-12-25 16:52:59.445349,599619702061186350,-144.00
2025-12-25 16:52:59.445349,599619702061186350,-151.00
2025-12-25 16:52:59.445349,599619702061186350,-142.00
2025-12-25 16:52:59.445349,599619702061186350,-135.00
2025-12-25 16:52:59.445349,599619702061186350,-149.00
2025-12-25 16:52:59.445349,599619702061186350,-144.00
2025-12-25 16:52:59.445349,599619702061186350,-131.00
2025-12-25 16:52:59.445349,599619702061186350,-144.00
2025-12-25 16:52:59.445349,599619702061186350,-149.00
2025-12-25 16:52:59.445349,599619702061186350,-117.00
2025-12-25 16:52:59.445349,599619702061186350,-82.00
2025-12-25 16:52:59.445349,599619702061186350,-87.00
2025-12-25 16:52:59.445349,599619702061186350,-101.00
2025-12-25 16:52:59.445349,599619702061186350,-96.00
2025-12-25 16:52:59.445349,599619702061186350,-87.00
2025-12-25 16:52:59.445349,599619702061186350,-75.00
2025-12-25 16:52:59.445349,599619702061186350,-55.00
2025-12-25 16:52:59.445349,599619702061186350,-55.00
2025-12-25 16:52:59.445349,599619702061186350,-96.00
2025-12-25 16:52:59.976203,599619702622035983,-124.00
2025-12-25 16:52:59.976203,599619702622035983,-119.00
2025-12-25 16:52:59.976203,599619702622035983,-131.00
2025-12-25 16:52:59.976203,599619702622035983,-165.00
2025-12-25 16:52:59.976203,599619702622035983,-193.00
2025-12-25 16:52:59.976203,599619702622035983,-197.00
2025-12-25 16:52:59.976203,599619702622035983,-209.00
2025-12-25 16:52:59.976203,599619702622035983,-239.00
2025-12-25 16:52:59.976203,599619702622035983,-248.00
2025-12-25 16:52:59.976203,599619702622035983,-216.00
2025-12-25 16:52:59.976203,599619702622035983,-193.00
2025-12-25 16:52:59.976203,599619702622035983,-209.00
2025-12-25 16:52:59.976203,599619702622035983,-223.00
2025-12-25 16:52:59.976203,599619702622035983,-218.00
2025-12-25 16:52:59.976203,599619702622035983,-213.00
2025-12-25 16:52:59.976203,599619702622035983,-200.00
2025-12-25 16:52:59.976203,599619702622035983,-179.00
2025-12-25 16:52:59.976203,599619702622035983,-174.00
2025-12-25 16:52:59.976203,599619702622035983,-193.00
2025-12-25 16:52:59.976203,599619702622035983,-209.00
2025-12-25 16:52:59.976203,599619702622035983,-200.00
2025-12-25 16:52:59.976203,599619702622035983,-188.00
2025-12-25 16:52:59.976203,599619702622035983,-209.00
2025-12-25 16:52:59.976203,599619702622035983,-225.00
2025-12-25 16:52:59.976203,599619702622035983,-200.00
2025-12-25 16:52:59.976203,599619702622035983,-179.00
2025-12-25 16:52:59.976203,599619702622035983,-193.00
2025-12-25 16:52:59.976203,599619702622035983,-202.00
2025-12-25 16:52:59.976203,599619702622035983,-204.00
2025-12-25 16:52:59.976203,599619702622035983,-209.00
2025-12-25 16:52:59.976203,599619702622035983,-216.00
2025-12-25 16:52:59.976203,599619702622035983,-225.00
2025-12-25 16:52:59.976203,599619702622035983,-220.00
2025-12-25 16:52:59.976203,599619702622035983,-209.00
2025-12-25 16:52:59.976203,599619702622035983,-218.00
2025-12-25 16:52:59.976203,599619702622035983,-232.00
2025-12-25 16:52:59.976203,599619702622035983,-229.00
2025-12-25 16:52:59.976203,599619702622035983,-223.00
2025-12-25 16:52:59.976203,599619702622035983,-223.00
2025-12-25 16:52:59.976203,599619702622035983,-223.00
2025-12-25 16:52:59.976203,599619702622035983,-223.00
2025-12-25 16:52:59.976203,599619702622035983,-220.00
2025-12-25 16:52:59.976203,599619702622035983,-218.00
2025-12-25 16:52:59.976203,599619702622035983,-218.00
2025-12-25 16:52:59.976203,599619702622035983,-225.00
2025-12-25 16:52:59.976203,599619702622035983,-248.00
2025-12-25 16:52:59.976203,599619702622035983,-264.00
2025-12-25 16:52:59.976203,599619702622035983,-257.00
2025-12-25 16:52:59.976203,599619702622035983,-255.00
2025-12-25 16:52:59.976203,599619702622035983,-273.00
2025-12-25 16:52:59.976203,599619702622035983,-257.00
2025-12-25 16:52:59.976203,599619702622035983,-209.00
2025-12-25 16:52:59.976203,599619702622035983,-204.00
2025-12-25 16:52:59.976203,599619702622035983,-218.00
2025-12-25 16:52:59.976203,599619702622035983,-206.00
2025-12-25 16:52:59.976203,599619702622035983,-206.00
2025-12-25 16:52:59.976203,599619702622035983,-232.00
2025-12-25 16:52:59.976203,599619702622035983,-241.00
2025-12-25 16:52:59.976203,599619702622035983,-223.00
2025-12-25 16:52:59.976203,599619702622035983,-223.00
2025-12-25 16:52:59.976203,599619702622035983,-239.00
2025-12-25 16:52:59.976203,599619702622035983,-229.00
2025-12-25 16:52:59.976203,599619702622035983,-206.00
2025-12-25 16:52:59.976203,599619702622035983,-195.00
2025-12-25 16:52:59.976203,599619702622035983,-206.00
2025-12-25 16:52:59.976203,599619702622035983,-220.00
2025-12-25 16:52:59.976203,599619702622035983,-227.00
2025-12-25 16:52:59.976203,599619702622035983,-211.00
2025-12-25 16:52:59.976203,599619702622035983,-190.00
2025-12-25 16:52:59.976203,599619702622035983,-227.00
2025-12-25 16:52:59.976203,599619702622035983,-268.00
2025-12-25 16:52:59.976203,599619702622035983,-255.00
2025-12-25 16:52:59.976203,599619702622035983,-232.00
2025-12-25 16:53:00.528202,599619703182865268,-206.00
2025-12-25 16:53:00.528202,599619703182865268,-160.00
2025-12-25 16:53:00.528202,599619703182865268,-41.00
2025-12-25 16:53:00.528202,599619703182865268,225.00
2025-12-25 16:53:00.528202,599619703182865268,420.00
2025-12-25 16:53:00.528202,599619703182865268,-4.00
2025-12-25 16:53:00.528202,599619703182865268,-924.00
2025-12-25 16:53:00.528202,599619703182865268,-1223.00
2025-12-25 16:53:00.528202,599619703182865268,-682.00
2025-12-25 16:53:00.528202,599619703182865268,-289.00
2025-12-25 16:53:00.528202,599619703182865268,-259.00
2025-12-25 16:53:00.528202,599619703182865268,-190.00
2025-12-25 16:53:00.528202,599619703182865268,-135.00
2025-12-25 16:53:00.528202,599619703182865268,-149.00
2025-12-25 16:53:00.528202,599619703182865268,-119.00
2025-12-25 16:53:00.528202,599619703182865268,-80.00
2025-12-25 16:53:00.528202,599619703182865268,-94.00
2025-12-25 16:53:00.528202,599619703182865268,-124.00
2025-12-25 16:53:00.528202,599619703182865268,-133.00
2025-12-25 16:53:00.528202,599619703182865268,-114.00
2025-12-25 16:53:00.528202,599619703182865268,-94.00
2025-12-25 16:53:00.528202,599619703182865268,-96.00
2025-12-25 16:53:00.528202,599619703182865268,-85.00
2025-12-25 16:53:00.528202,599619703182865268,-55.00
2025-12-25 16:53:00.528202,599619703182865268,-62.00
2025-12-25 16:53:00.528202,599619703182865268,-98.00
2025-12-25 16:53:00.528202,599619703182865268,-101.00
2025-12-25 16:53:00.528202,599619703182865268,-68.00
2025-12-25 16:53:00.528202,599619703182865268,-52.00
2025-12-25 16:53:00.528202,599619703182865268,-71.00
2025-12-25 16:53:00.528202,599619703182865268,-80.00
2025-12-25 16:53:00.528202,599619703182865268,-45.00
2025-12-25 16:53:00.528202,599619703182865268,-27.00
2025-12-25 16:53:00.528202,599619703182865268,-43.00
2025-12-25 16:53:00.528202,599619703182865268,-50.00
2025-12-25 16:53:00.528202,599619703182865268,-52.00
2025-12-25 16:53:00.528202,599619703182865268,-68.00
2025-12-25 16:53:00.528202,599619703182865268,-91.00
2025-12-25 16:53:00.528202,599619703182865268,-117.00
2025-12-25 16:53:00.528202,599619703182865268,-140.00
2025-12-25 16:53:00.528202,599619703182865268,-160.00
2025-12-25 16:53:00.528202,599619703182865268,-186.00
2025-12-25 16:53:00.528202,599619703182865268,-223.00
2025-12-25 16:53:00.528202,599619703182865268,-243.00
2025-12-25 16:53:00.528202,599619703182865268,-250.00
2025-12-25 16:53:00.528202,599619703182865268,-255.00
2025-12-25 16:53:00.528202,599619703182865268,-255.00
2025-12-25 16:53:00.528202,599619703182865268,-248.00
2025-12-25 16:53:00.528202,599619703182865268,-245.00
2025-12-25 16:53:00.528202,599619703182865268,-241.00
2025-12-25 16:53:00.528202,599619703182865268,-236.00
2025-12-25 16:53:00.528202,599619703182865268,-243.00
2025-12-25 16:53:00.528202,599619703182865268,-255.00
2025-12-25 16:53:00.528202,599619703182865268,-252.00
2025-12-25 16:53:00.528202,599619703182865268,-220.00
2025-12-25 16:53:00.528202,599619703182865268,-209.00
2025-12-25 16:53:00.528202,599619703182865268,-229.00
2025-12-25 16:53:00.528202,599619703182865268,-225.00
2025-12-25 16:53:00.528202,599619703182865268,-216.00
2025-12-25 16:53:00.528202,599619703182865268,-220.00
2025-12-25 16:53:00.528202,599619703182865268,-202.00
2025-12-25 16:53:00.528202,599619703182865268,-179.00
2025-12-25 16:53:00.528202,599619703182865268,-193.00
2025-12-25 16:53:00.528202,599619703182865268,-211.00
2025-12-25 16:53:00.528202,599619703182865268,-211.00
2025-12-25 16:53:00.528202,599619703182865268,-216.00
2025-12-25 16:53:00.528202,599619703182865268,-204.00
2025-12-25 16:53:00.528202,599619703182865268,-177.00
2025-12-25 16:53:00.528202,599619703182865268,-197.00
2025-12-25 16:53:00.528202,599619703182865268,-234.00
2025-12-25 16:53:00.528202,599619703182865268,-218.00
2025-12-25 16:53:00.528202,599619703182865268,-186.00
2025-12-25 16:53:00.528202,599619703182865268,-193.00
2025-12-25 16:53:01.079950,599619703743704727,-202.00
2025-12-25 16:53:01.079950,599619703743704727,-186.00
2025-12-25 16:53:01.079950,599619703743704727,-188.00
2025-12-25 16:53:01.079950,599619703743704727,-211.00
2025-12-25 16:53:01.079950,599619703743704727,-209.00
2025-12-25 16:53:01.079950,599619703743704727,-206.00
2025-12-25 16:53:01.079950,599619703743704727,-225.00
2025-12-25 16:53:01.079950,599619703743704727,-204.00
2025-12-25 16:53:01.079950,599619703743704727,-172.00
2025-12-25 16:53:01.079950,599619703743704727,-174.00
2025-12-25 16:53:01.079950,599619703743704727,-183.00
2025-12-25 16:53:01.079950,599619703743704727,-183.00
2025-12-25 16:53:01.079950,599619703743704727,-183.00
2025-12-25 16:53:01.079950,599619703743704727,-183.00
2025-12-25 16:53:01.079950,599619703743704727,-177.00
2025-12-25 16:53:01.079950,599619703743704727,-163.00
2025-12-25 16:53:01.079950,599619703743704727,-167.00
2025-12-25 16:53:01.079950,599619703743704727,-190.00
2025-12-25 16:53:01.079950,599619703743704727,-206.00
2025-12-25 16:53:01.079950,599619703743704727,-190.00
2025-12-25 16:53:01.079950,599619703743704727,-149.00
2025-12-25 16:53:01.079950,599619703743704727,-151.00
2025-12-25 16:53:01.079950,599619703743704727,-204.00
2025-12-25 16:53:01.079950,599619703743704727,-216.00
2025-12-25 16:53:01.079950,599619703743704727,-193.00
2025-12-25 16:53:01.079950,599619703743704727,-197.00
2025-12-25 16:53:01.079950,599619703743704727,-211.00
2025-12-25 16:53:01.079950,599619703743704727,-211.00
2025-12-25 16:53:01.079950,599619703743704727,-213.00
2025-12-25 16:53:01.079950,599619703743704727,-211.00
2025-12-25 16:53:01.079950,599619703743704727,-202.00
2025-12-25 16:53:01.079950,599619703743704727,-188.00
2025-12-25 16:53:01.079950,599619703743704727,-87.00
2025-12-25 16:53:01.079950,599619703743704727,160.00
2025-12-25 16:53:01.079950,599619703743704727,390.00
2025-12-25 16:53:01.079950,599619703743704727,156.00
2025-12-25 16:53:01.079950,599619703743704727,-648.00
2025-12-25 16:53:01.079950,599619703743704727,-1149.00
2025-12-25 16:53:01.079950,599619703743704727,-795.00
2025-12-25 16:53:01.079950,599619703743704727,-331.00
2025-12-25 16:53:01.079950,599619703743704727,-227.00
2025-12-25 16:53:01.079950,599619703743704727,-195.00
2025-12-25 16:53:01.079950,599619703743704727,-156.00
2025-12-25 16:53:01.079950,599619703743704727,-156.00
2025-12-25 16:53:01.079950,599619703743704727,-128.00
2025-12-25 16:53:01.079950,599619703743704727,-101.00
2025-12-25 16:53:01.079950,599619703743704727,-124.00
2025-12-25 16:53:01.079950,599619703743704727,-128.00
2025-12-25 16:53:01.079950,599619703743704727,-105.00
2025-12-25 16:53:01.079950,599619703743704727,-105.00
2025-12-25 16:53:01.079950,599619703743704727,-108.00
2025-12-25 16:53:01.079950,599619703743704727,-94.00
2025-12-25 16:53:01.079950,599619703743704727,-91.00
2025-12-25 16:53:01.079950,599619703743704727,-87.00
2025-12-25 16:53:01.079950,599619703743704727,-75.00
2025-12-25 16:53:01.079950,599619703743704727,-78.00
2025-12-25 16:53:01.079950,599619703743704727,-80.00
2025-12-25 16:53:01.079950,599619703743704727,-64.00
2025-12-25 16:53:01.079950,599619703743704727,-52.00
2025-12-25 16:53:01.079950,599619703743704727,-55.00
2025-12-25 16:53:01.079950,599619703743704727,-57.00
2025-12-25 16:53:01.079950,599619703743704727,-43.00
2025-12-25 16:53:01.079950,599619703743704727,-32.00
2025-12-25 16:53:01.079950,599619703743704727,-34.00
2025-12-25 16:53:01.079950,599619703743704727,-34.00
2025-12-25 16:53:01.079950,599619703743704727,-34.00
2025-12-25 16:53:01.079950,599619703743704727,-52.00
2025-12-25 16:53:01.079950,599619703743704727,-68.00
2025-12-25 16:53:01.079950,599619703743704727,-73.00
2025-12-25 16:53:01.079950,599619703743704727,-91.00
2025-12-25 16:53:01.079950,599619703743704727,-133.00
2025-12-25 16:53:01.079950,599619703743704727,-170.00
2025-12-25 16:53:01.079950,599619703743704727,-188.00
2025-12-25 16:53:01.683899,599619704304544184,-204.00
2025-12-25 16:53:01.683899,599619704304544184,-220.00
2025-12-25 16:53:01.683899,599619704304544184,-225.00
2025-12-25 16:53:01.683899,599619704304544184,-225.00
2025-12-25 16:53:01.683899,599619704304544184,-232.00
2025-12-25 16:53:01.683899,599619704304544184,-241.00
2025-12-25 16:53:01.683899,599619704304544184,-227.00
2025-12-25 16:53:01.683899,599619704304544184,-206.00
2025-12-25 16:53:01.683899,599619704304544184,-202.00
2025-12-25 16:53:01.683899,599619704304544184,-211.00
2025-12-25 16:53:01.683899,599619704304544184,-216.00
2025-12-25 16:53:01.683899,599619704304544184,-209.00
2025-12-25 16:53:01.683899,599619704304544184,-193.00
2025-12-25 16:53:01.683899,599619704304544184,-195.00
2025-12-25 16:53:01.683899,599619704304544184,-206.00
2025-12-25 16:53:01.683899,599619704304544184,-202.00
2025-12-25 16:53:01.683899,599619704304544184,-197.00
2025-12-25 16:53:01.683899,599619704304544184,-204.00
2025-12-25 16:53:01.683899,599619704304544184,-209.00
2025-12-25 16:53:01.683899,599619704304544184,-204.00
2025-12-25 16:53:01.683899,599619704304544184,-204.00
2025-12-25 16:53:01.683899,599619704304544184,-213.00
2025-12-25 16:53:01.683899,599619704304544184,-220.00
2025-12-25 16:53:01.683899,599619704304544184,-216.00
2025-12-25 16:53:01.683899,599619704304544184,-213.00
2025-12-25 16:53:01.683899,599619704304544184,-218.00
2025-12-25 16:53:01.683899,599619704304544184,-218.00
2025-12-25 16:53:01.683899,599619704304544184,-216.00
2025-12-25 16:53:01.683899,599619704304544184,-213.00
2025-12-25 16:53:01.683899,599619704304544184,-209.00
2025-12-25 16:53:01.683899,599619704304544184,-204.00
2025-12-25 16:53:01.683899,599619704304544184,-216.00
2025-12-25 16:53:01.683899,599619704304544184,-232.00
2025-12-25 16:53:01.683899,599619704304544184,-220.00
2025-12-25 16:53:01.683899,599619704304544184,-202.00
2025-12-25 16:53:01.683899,599619704304544184,-206.00
2025-12-25 16:53:01.683899,599619704304544184,-211.00
2025-12-25 16:53:01.683899,599619704304544184,-216.00
2025-12-25 16:53:01.683899,599619704304544184,-223.00
2025-12-25 16:53:01.683899,599619704304544184,-225.00
2025-12-25 16:53:01.683899,599619704304544184,-223.00
2025-12-25 16:53:01.683899,599619704304544184,-204.00
2025-12-25 16:53:01.683899,599619704304544184,-170.00
2025-12-25 16:53:01.683899,599619704304544184,-167.00
2025-12-25 16:53:01.683899,599619704304544184,-197.00
2025-12-25 16:53:01.683899,599619704304544184,-206.00
2025-12-25 16:53:01.683899,599619704304544184,-190.00
2025-12-25 16:53:01.683899,599619704304544184,-197.00
2025-12-25 16:53:01.683899,599619704304544184,-209.00
2025-12-25 16:53:01.683899,599619704304544184,-204.00
2025-12-25 16:53:01.683899,599619704304544184,-211.00
2025-12-25 16:53:01.683899,599619704304544184,-220.00
2025-12-25 16:53:01.683899,599619704304544184,-213.00
2025-12-25 16:53:01.683899,599619704304544184,-188.00
2025-12-25 16:53:01.683899,599619704304544184,-103.00
2025-12-25 16:53:01.683899,599619704304544184,119.00
2025-12-25 16:53:01.683899,599619704304544184,409.00
2025-12-25 16:53:01.683899,599619704304544184,328.00
2025-12-25 16:53:01.683899,599619704304544184,-468.00
2025-12-25 16:53:01.683899,599619704304544184,-1200.00
2025-12-25 16:53:01.683899,599619704304544184,-951.00
2025-12-25 16:53:01.683899,599619704304544184,-379.00
2025-12-25 16:53:01.683899,599619704304544184,-234.00
2025-12-25 16:53:01.683899,599619704304544184,-213.00
2025-12-25 16:53:01.683899,599619704304544184,-142.00
2025-12-25 16:53:01.683899,599619704304544184,-137.00
2025-12-25 16:53:01.683899,599619704304544184,-133.00
2025-12-25 16:53:01.683899,599619704304544184,-108.00
2025-12-25 16:53:01.683899,599619704304544184,-117.00
2025-12-25 16:53:01.683899,599619704304544184,-117.00
2025-12-25 16:53:01.683899,599619704304544184,-98.00
2025-12-25 16:53:01.683899,599619704304544184,-108.00
2025-12-25 16:53:01.683899,599619704304544184,-112.00
2025-12-25 16:53:02.236423,599619704865373471,-89.00
2025-12-25 16:53:02.236423,599619704865373471,-87.00
2025-12-25 16:53:02.236423,599619704865373471,-101.00
2025-12-25 16:53:02.236423,599619704865373471,-87.00
2025-12-25 16:53:02.236423,599619704865373471,-68.00
2025-12-25 16:53:02.236423,599619704865373471,-75.00
2025-12-25 16:53:02.236423,599619704865373471,-68.00
2025-12-25 16:53:02.236423,599619704865373471,-48.00
2025-12-25 16:53:02.236423,599619704865373471,-43.00
2025-12-25 16:53:02.236423,599619704865373471,-36.00
2025-12-25 16:53:02.236423,599619704865373471,-18.00
2025-12-25 16:53:02.236423,599619704865373471,-4.00
2025-12-25 16:53:02.236423,599619704865373471,-4.00
2025-12-25 16:53:02.236423,599619704865373471,-9.00
2025-12-25 16:53:02.236423,599619704865373471,-4.00
2025-12-25 16:53:02.236423,599619704865373471,0.00
2025-12-25 16:53:02.236423,599619704865373471,-2.00
2025-12-25 16:53:02.236423,599619704865373471,-20.00
2025-12-25 16:53:02.236423,599619704865373471,-52.00
2025-12-25 16:53:02.236423,599619704865373471,-94.00
2025-12-25 16:53:02.236423,599619704865373471,-131.00
2025-12-25 16:53:02.236423,599619704865373471,-144.00
2025-12-25 16:53:02.236423,599619704865373471,-156.00
2025-12-25 16:53:02.236423,599619704865373471,-179.00
2025-12-25 16:53:02.236423,599619704865373471,-197.00
2025-12-25 16:53:02.236423,599619704865373471,-204.00
2025-12-25 16:53:02.236423,599619704865373471,-204.00
2025-12-25 16:53:02.236423,599619704865373471,-202.00
2025-12-25 16:53:02.236423,599619704865373471,-202.00
2025-12-25 16:53:02.236423,599619704865373471,-206.00
2025-12-25 16:53:02.236423,599619704865373471,-204.00
2025-12-25 16:53:02.236423,599619704865373471,-200.00
2025-12-25 16:53:02.236423,599619704865373471,-188.00
2025-12-25 16:53:02.236423,599619704865373471,-190.00
2025-12-25 16:53:02.236423,599619704865373471,-197.00
2025-12-25 16:53:02.236423,599619704865373471,-193.00
2025-12-25 16:53:02.236423,599619704865373471,-190.00
2025-12-25 16:53:02.236423,599619704865373471,-193.00
2025-12-25 16:53:02.236423,599619704865373471,-186.00
2025-12-25 16:53:02.236423,599619704865373471,-177.00
2025-12-25 16:53:02.236423,599619704865373471,-170.00
2025-12-25 16:53:02.236423,599619704865373471,-170.00
2025-12-25 16:53:02.236423,599619704865373471,-179.00
2025-12-25 16:53:02.236423,599619704865373471,-188.00
2025-12-25 16:53:02.236423,599619704865373471,-190.00
2025-12-25 16:53:02.236423,599619704865373471,-190.00
2025-12-25 16:53:02.236423,599619704865373471,-190.00
2025-12-25 16:53:02.236423,599619704865373471,-190.00
2025-12-25 16:53:02.236423,599619704865373471,-188.00
2025-12-25 16:53:02.236423,599619704865373471,-190.00
2025-12-25 16:53:02.236423,599619704865373471,-197.00
2025-12-25 16:53:02.236423,599619704865373471,-197.00
2025-12-25 16:53:02.236423,599619704865373471,-195.00
2025-12-25 16:53:02.236423,599619704865373471,-206.00
2025-12-25 16:53:02.236423,599619704865373471,-204.00
2025-12-25 16:53:02.236423,599619704865373471,-186.00
2025-12-25 16:53:02.236423,599619704865373471,-181.00
2025-12-25 16:53:02.236423,599619704865373471,-195.00
2025-12-25 16:53:02.236423,599619704865373471,-204.00
2025-12-25 16:53:02.236423,599619704865373471,-200.00
2025-12-25 16:53:02.236423,599619704865373471,-197.00
2025-12-25 16:53:02.236423,599619704865373471,-197.00
2025-12-25 16:53:02.236423,599619704865373471,-197.00
2025-12-25 16:53:02.236423,599619704865373471,-195.00
2025-12-25 16:53:02.236423,599619704865373471,-163.00
2025-12-25 16:53:02.236423,599619704865373471,-147.00
2025-12-25 16:53:02.236423,599619704865373471,-165.00
2025-12-25 16:53:02.236423,599619704865373471,-179.00
2025-12-25 16:53:02.236423,599619704865373471,-183.00
2025-12-25 16:53:02.236423,599619704865373471,-200.00
2025-12-25 16:53:02.236423,599619704865373471,-218.00
2025-12-25 16:53:02.236423,599619704865373471,-223.00
2025-12-25 16:53:02.236423,599619704865373471,-213.00
2025-12-25 16:53:02.788225,599619705426192584,-211.00
2025-12-25 16:53:02.788225,599619705426192584,-206.00
2025-12-25 16:53:02.788225,599619705426192584,-186.00
2025-12-25 16:53:02.788225,599619705426192584,-119.00
2025-12-25 16:53:02.788225,599619705426192584,91.00
2025-12-25 16:53:02.788225,599619705426192584,397.00
2025-12-25 16:53:02.788225,599619705426192584,317.00
2025-12-25 16:53:02.788225,599619705426192584,-501.00
2025-12-25 16:53:02.788225,599619705426192584,-1227.00
2025-12-25 16:53:02.788225,599619705426192584,-926.00
2025-12-25 16:53:02.788225,599619705426192584,-303.00
2025-12-25 16:53:02.788225,599619705426192584,-174.00
2025-12-25 16:53:02.788225,599619705426192584,-186.00
2025-12-25 16:53:02.788225,599619705426192584,-101.00
2025-12-25 16:53:02.788225,599619705426192584,-96.00
2025-12-25 16:53:02.788225,599619705426192584,-128.00
2025-12-25 16:53:02.788225,599619705426192584,-101.00
2025-12-25 16:53:02.788225,599619705426192584,-82.00
2025-12-25 16:53:02.788225,599619705426192584,-94.00
2025-12-25 16:53:02.788225,599619705426192584,-87.00
2025-12-25 16:53:02.788225,599619705426192584,-75.00
2025-12-25 16:53:02.788225,599619705426192584,-78.00
2025-12-25 16:53:02.788225,599619705426192584,-80.00
2025-12-25 16:53:02.788225,599619705426192584,-82.00
2025-12-25 16:53:02.788225,599619705426192584,-82.00
2025-12-25 16:53:02.788225,599619705426192584,-73.00
2025-12-25 16:53:02.788225,599619705426192584,-62.00
2025-12-25 16:53:02.788225,599619705426192584,-62.00
2025-12-25 16:53:02.788225,599619705426192584,-62.00
2025-12-25 16:53:02.788225,599619705426192584,-48.00
2025-12-25 16:53:02.788225,599619705426192584,-29.00
2025-12-25 16:53:02.788225,599619705426192584,-18.00
2025-12-25 16:53:02.788225,599619705426192584,-13.00
2025-12-25 16:53:02.788225,599619705426192584,-2.00
2025-12-25 16:53:02.788225,599619705426192584,6.00
2025-12-25 16:53:02.788225,599619705426192584,11.00
2025-12-25 16:53:02.788225,599619705426192584,9.00
2025-12-25 16:53:02.788225,599619705426192584,-2.00
2025-12-25 16:53:02.788225,599619705426192584,-25.00
2025-12-25 16:53:02.788225,599619705426192584,-50.00
2025-12-25 16:53:02.788225,599619705426192584,-78.00
2025-12-25 16:53:02.788225,599619705426192584,-110.00
2025-12-25 16:53:02.788225,599619705426192584,-142.00
2025-12-25 16:53:02.788225,599619705426192584,-167.00
2025-12-25 16:53:02.788225,599619705426192584,-190.00
2025-12-25 16:53:02.788225,599619705426192584,-206.00
2025-12-25 16:53:02.788225,599619705426192584,-204.00
2025-12-25 16:53:02.788225,599619705426192584,-202.00
2025-12-25 16:53:02.788225,599619705426192584,-209.00
2025-12-25 16:53:02.788225,599619705426192584,-213.00
2025-12-25 16:53:02.788225,599619705426192584,-209.00
2025-12-25 16:53:02.788225,599619705426192584,-200.00
2025-12-25 16:53:02.788225,599619705426192584,-195.00
2025-12-25 16:53:02.788225,599619705426192584,-190.00
2025-12-25 16:53:02.788225,599619705426192584,-188.00
2025-12-25 16:53:02.788225,599619705426192584,-190.00
2025-12-25 16:53:02.788225,599619705426192584,-181.00
2025-12-25 16:53:02.788225,599619705426192584,-172.00
2025-12-25 16:53:02.788225,599619705426192584,-177.00
2025-12-25 16:53:02.788225,599619705426192584,-177.00
2025-12-25 16:53:02.788225,599619705426192584,-165.00
2025-12-25 16:53:02.788225,599619705426192584,-156.00
2025-12-25 16:53:02.788225,599619705426192584,-165.00
2025-12-25 16:53:02.788225,599619705426192584,-183.00
2025-12-25 16:53:02.788225,599619705426192584,-186.00
2025-12-25 16:53:02.788225,599619705426192584,-172.00
2025-12-25 16:53:02.788225,599619705426192584,-170.00
2025-12-25 16:53:02.788225,599619705426192584,-183.00
2025-12-25 16:53:02.788225,599619705426192584,-186.00
2025-12-25 16:53:02.788225,599619705426192584,-174.00
2025-12-25 16:53:02.788225,599619705426192584,-181.00
2025-12-25 16:53:02.788225,599619705426192584,-190.00
2025-12-25 16:53:02.788225,599619705426192584,-179.00
2025-12-25 16:53:03.389907,599619705987042217,-179.00
2025-12-25 16:53:03.389907,599619705987042217,-190.00
2025-12-25 16:53:03.389907,599619705987042217,-188.00
2025-12-25 16:53:03.389907,599619705987042217,-186.00
2025-12-25 16:53:03.389907,599619705987042217,-179.00
2025-12-25 16:53:03.389907,599619705987042217,-165.00
2025-12-25 16:53:03.389907,599619705987042217,-174.00
2025-12-25 16:53:03.389907,599619705987042217,-200.00
2025-12-25 16:53:03.389907,599619705987042217,-188.00
2025-12-25 16:53:03.389907,599619705987042217,-149.00
2025-12-25 16:53:03.389907,599619705987042217,-133.00
2025-12-25 16:53:03.389907,599619705987042217,-126.00
2025-12-25 16:53:03.389907,599619705987042217,-108.00
2025-12-25 16:53:03.389907,599619705987042217,-108.00
2025-12-25 16:53:03.389907,599619705987042217,-133.00
2025-12-25 16:53:03.389907,599619705987042217,-158.00
2025-12-25 16:53:03.389907,599619705987042217,-165.00
2025-12-25 16:53:03.389907,599619705987042217,-172.00
2025-12-25 16:53:03.389907,599619705987042217,-188.00
2025-12-25 16:53:03.389907,599619705987042217,-193.00
2025-12-25 16:53:03.389907,599619705987042217,-181.00
2025-12-25 16:53:03.389907,599619705987042217,-179.00
2025-12-25 16:53:03.389907,599619705987042217,-183.00
2025-12-25 16:53:03.389907,599619705987042217,-174.00
2025-12-25 16:53:03.389907,599619705987042217,-121.00
2025-12-25 16:53:03.389907,599619705987042217,75.00
2025-12-25 16:53:03.389907,599619705987042217,409.00
2025-12-25 16:53:03.389907,599619705987042217,432.00
2025-12-25 16:53:03.389907,599619705987042217,-337.00
2025-12-25 16:53:03.389907,599619705987042217,-1204.00
2025-12-25 16:53:03.389907,599619705987042217,-1036.00
2025-12-25 16:53:03.389907,599619705987042217,-344.00
2025-12-25 16:53:03.389907,599619705987042217,-149.00
2025-12-25 16:53:03.389907,599619705987042217,-223.00
2025-12-25 16:53:03.389907,599619705987042217,-160.00
2025-12-25 16:53:03.389907,599619705987042217,-96.00
2025-12-25 16:53:03.389907,599619705987042217,-110.00
2025-12-25 16:53:03.389907,599619705987042217,-149.00
2025-12-25 16:53:03.389907,599619705987042217,-160.00
2025-12-25 16:53:03.389907,599619705987042217,-110.00
2025-12-25 16:53:03.389907,599619705987042217,-80.00
2025-12-25 16:53:03.389907,599619705987042217,-124.00
2025-12-25 16:53:03.389907,599619705987042217,-160.00
2025-12-25 16:53:03.389907,599619705987042217,-128.00
2025-12-25 16:53:03.389907,599619705987042217,-96.00
2025-12-25 16:53:03.389907,599619705987042217,-124.00
2025-12-25 16:53:03.389907,599619705987042217,-140.00
2025-12-25 16:53:03.389907,599619705987042217,-98.00
2025-12-25 16:53:03.389907,599619705987042217,-71.00
2025-12-25 16:53:03.389907,599619705987042217,-82.00
2025-12-25 16:53:03.389907,599619705987042217,-103.00
2025-12-25 16:53:03.389907,599619705987042217,-119.00
2025-12-25 16:53:03.389907,599619705987042217,-96.00
2025-12-25 16:53:03.389907,599619705987042217,-64.00
2025-12-25 16:53:03.389907,599619705987042217,-62.00
2025-12-25 16:53:03.389907,599619705987042217,-66.00
2025-12-25 16:53:03.389907,599619705987042217,-59.00
2025-12-25 16:53:03.389907,599619705987042217,-59.00
2025-12-25 16:53:03.389907,599619705987042217,-73.00
2025-12-25 16:53:03.389907,599619705987042217,-87.00
2025-12-25 16:53:03.389907,599619705987042217,-101.00
2025-12-25 16:53:03.389907,599619705987042217,-149.00
2025-12-25 16:53:03.389907,599619705987042217,-202.00
2025-12-25 16:53:03.389907,599619705987042217,-202.00
2025-12-25 16:53:03.389907,599619705987042217,-200.00
2025-12-25 16:53:03.389907,599619705987042217,-241.00
2025-12-25 16:53:03.389907,599619705987042217,-266.00
2025-12-25 16:53:03.389907,599619705987042217,-259.00
2025-12-25 16:53:03.389907,599619705987042217,-259.00
2025-12-25 16:53:03.389907,599619705987042217,-259.00
2025-12-25 16:53:03.389907,599619705987042217,-245.00
2025-12-25 16:53:03.389907,599619705987042217,-248.00
2025-12-25 16:53:03.389907,599619705987042217,-252.00
2025-12-25 16:53:03.941618,599619706547871502,-241.00
2025-12-25 16:53:03.941618,599619706547871502,-241.00
2025-12-25 16:53:03.941618,599619706547871502,-257.00
2025-12-25 16:53:03.941618,599619706547871502,-250.00
2025-12-25 16:53:03.941618,599619706547871502,-234.00
2025-12-25 16:53:03.941618,599619706547871502,-227.00
2025-12-25 16:53:03.941618,599619706547871502,-225.00
2025-12-25 16:53:03.941618,599619706547871502,-223.00
2025-12-25 16:53:03.941618,599619706547871502,-220.00
2025-12-25 16:53:03.941618,599619706547871502,-211.00
2025-12-25 16:53:03.941618,599619706547871502,-218.00
2025-12-25 16:53:03.941618,599619706547871502,-229.00
2025-12-25 16:53:03.941618,599619706547871502,-220.00
2025-12-25 16:53:03.941618,599619706547871502,-204.00
2025-12-25 16:53:03.941618,599619706547871502,-200.00
2025-12-25 16:53:03.941618,599619706547871502,-195.00
2025-12-25 16:53:03.941618,599619706547871502,-181.00
2025-12-25 16:53:03.941618,599619706547871502,-170.00
2025-12-25 16:53:03.941618,599619706547871502,-158.00
2025-12-25 16:53:03.941618,599619706547871502,-147.00
2025-12-25 16:53:03.941618,599619706547871502,-149.00
2025-12-25 16:53:03.941618,599619706547871502,-154.00
2025-12-25 16:53:03.941618,599619706547871502,-163.00
2025-12-25 16:53:03.941618,599619706547871502,-172.00
2025-12-25 16:53:03.941618,599619706547871502,-163.00
2025-12-25 16:53:03.941618,599619706547871502,-151.00
2025-12-25 16:53:03.941618,599619706547871502,-158.00
2025-12-25 16:53:03.941618,599619706547871502,-154.00
2025-12-25 16:53:03.941618,599619706547871502,-137.00
2025-12-25 16:53:03.941618,599619706547871502,-140.00
2025-12-25 16:53:03.941618,599619706547871502,-142.00
2025-12-25 16:53:03.941618,599619706547871502,-131.00
2025-12-25 16:53:03.941618,599619706547871502,-124.00
2025-12-25 16:53:03.941618,599619706547871502,-128.00
2025-12-25 16:53:03.941618,599619706547871502,-154.00
2025-12-25 16:53:03.941618,599619706547871502,-188.00
2025-12-25 16:53:03.941618,599619706547871502,-190.00
2025-12-25 16:53:03.941618,599619706547871502,-177.00
2025-12-25 16:53:03.941618,599619706547871502,-186.00
2025-12-25 16:53:03.941618,599619706547871502,-200.00
2025-12-25 16:53:03.941618,599619706547871502,-195.00
2025-12-25 16:53:03.941618,599619706547871502,-197.00
2025-12-25 16:53:03.941618,599619706547871502,-206.00
2025-12-25 16:53:03.941618,599619706547871502,-154.00
2025-12-25 16:53:03.941618,599619706547871502,22.00
2025-12-25 16:53:03.941618,599619706547871502,312.00
2025-12-25 16:53:03.941618,599619706547871502,393.00
2025-12-25 16:53:03.941618,599619706547871502,-229.00
2025-12-25 16:53:03.941618,599619706547871502,-1096.00
2025-12-25 16:53:03.941618,599619706547871502,-1096.00
2025-12-25 16:53:03.941618,599619706547871502,-508.00
2025-12-25 16:53:03.941618,599619706547871502,-257.00
2025-12-25 16:53:03.941618,599619706547871502,-232.00
2025-12-25 16:53:03.941618,599619706547871502,-163.00
2025-12-25 16:53:03.941618,599619706547871502,-160.00
2025-12-25 16:53:03.941618,599619706547871502,-174.00
2025-12-25 16:53:03.941618,599619706547871502,-135.00
2025-12-25 16:53:03.941618,599619706547871502,-126.00
2025-12-25 16:53:03.941618,599619706547871502,-151.00
2025-12-25 16:53:03.941618,599619706547871502,-156.00
2025-12-25 16:53:03.941618,599619706547871502,-149.00
2025-12-25 16:53:03.941618,599619706547871502,-135.00
2025-12-25 16:53:03.941618,599619706547871502,-119.00
2025-12-25 16:53:03.941618,599619706547871502,-117.00
2025-12-25 16:53:03.941618,599619706547871502,-124.00
2025-12-25 16:53:03.941618,599619706547871502,-131.00
2025-12-25 16:53:03.941618,599619706547871502,-135.00
2025-12-25 16:53:03.941618,599619706547871502,-133.00
2025-12-25 16:53:03.941618,599619706547871502,-117.00
2025-12-25 16:53:03.941618,599619706547871502,-101.00
2025-12-25 16:53:03.941618,599619706547871502,-101.00
2025-12-25 16:53:03.941618,599619706547871502,-94.00
2025-12-25 16:53:03.941618,599619706547871502,-78.00
2025-12-25 16:53:04.543368,599619707108710961,-82.00
2025-12-25 16:53:04.543368,599619707108710961,-89.00
2025-12-25 16:53:04.543368,599619707108710961,-85.00
2025-12-25 16:53:04.543368,599619707108710961,-87.00
2025-12-25 16:53:04.543368,599619707108710961,-94.00
2025-12-25 16:53:04.543368,599619707108710961,-103.00
2025-12-25 16:53:04.543368,599619707108710961,-121.00
2025-12-25 16:53:04.543368,599619707108710961,-142.00
2025-12-25 16:53:04.543368,599619707108710961,-165.00
2025-12-25 16:53:04.543368,599619707108710961,-200.00
2025-12-25 16:53:04.543368,599619707108710961,-223.00
2025-12-25 16:53:04.543368,599619707108710961,-229.00
2025-12-25 16:53:04.543368,599619707108710961,-239.00
2025-12-25 16:53:04.543368,599619707108710961,-257.00
2025-12-25 16:53:04.543368,599619707108710961,-266.00
2025-12-25 16:53:04.543368,599619707108710961,-255.00
2025-12-25 16:53:04.543368,599619707108710961,-236.00
2025-12-25 16:53:04.543368,599619707108710961,-234.00
2025-12-25 16:53:04.543368,599619707108710961,-241.00
2025-12-25 16:53:04.543368,599619707108710961,-229.00
2025-12-25 16:53:04.543368,599619707108710961,-223.00
2025-12-25 16:53:04.543368,599619707108710961,-229.00
2025-12-25 16:53:04.543368,599619707108710961,-225.00
2025-12-25 16:53:04.543368,599619707108710961,-220.00
2025-12-25 16:53:04.543368,599619707108710961,-223.00
2025-12-25 16:53:04.543368,599619707108710961,-223.00
2025-12-25 16:53:04.543368,599619707108710961,-225.00
2025-12-25 16:53:04.543368,599619707108710961,-223.00
2025-12-25 16:53:04.543368,599619707108710961,-213.00
2025-12-25 16:53:04.543368,599619707108710961,-220.00
2025-12-25 16:53:04.543368,599619707108710961,-234.00
2025-12-25 16:53:04.543368,599619707108710961,-227.00
2025-12-25 16:53:04.543368,599619707108710961,-216.00
2025-12-25 16:53:04.543368,599619707108710961,-218.00
2025-12-25 16:53:04.543368,599619707108710961,-223.00
2025-12-25 16:53:04.543368,599619707108710961,-227.00
2025-12-25 16:53:04.543368,599619707108710961,-229.00
2025-12-25 16:53:04.543368,599619707108710961,-229.00
2025-12-25 16:53:04.543368,599619707108710961,-225.00
2025-12-25 16:53:04.543368,599619707108710961,-223.00
2025-12-25 16:53:04.543368,599619707108710961,-227.00
2025-12-25 16:53:04.543368,599619707108710961,-234.00
2025-12-25 16:53:04.543368,599619707108710961,-234.00
2025-12-25 16:53:04.543368,599619707108710961,-232.00
2025-12-25 16:53:04.543368,599619707108710961,-234.00
2025-12-25 16:53:04.543368,599619707108710961,-234.00
2025-12-25 16:53:04.543368,599619707108710961,-234.00
2025-12-25 16:53:04.543368,599619707108710961,-229.00
2025-12-25 16:53:04.543368,599619707108710961,-209.00
2025-12-25 16:53:04.543368,599619707108710961,-197.00
2025-12-25 16:53:04.543368,599619707108710961,-190.00
2025-12-25 16:53:04.543368,599619707108710961,-172.00
2025-12-25 16:53:04.543368,599619707108710961,-179.00
2025-12-25 16:53:04.543368,599619707108710961,-211.00
2025-12-25 16:53:04.543368,599619707108710961,-225.00
2025-12-25 16:53:04.543368,599619707108710961,-220.00
2025-12-25 16:53:04.543368,599619707108710961,-227.00
2025-12-25 16:53:04.543368,599619707108710961,-227.00
2025-12-25 16:53:04.543368,599619707108710961,-220.00
2025-12-25 16:53:04.543368,599619707108710961,-223.00
2025-12-25 16:53:04.543368,599619707108710961,-234.00
2025-12-25 16:53:04.543368,599619707108710961,-232.00
2025-12-25 16:53:04.543368,599619707108710961,-200.00
2025-12-25 16:53:04.543368,599619707108710961,-73.00
2025-12-25 16:53:04.543368,599619707108710961,206.00
2025-12-25 16:53:04.543368,599619707108710961,420.00
2025-12-25 16:53:04.543368,599619707108710961,27.00
2025-12-25 16:53:04.543368,599619707108710961,-889.00
2025-12-25 16:53:04.543368,599619707108710961,-1236.00
2025-12-25 16:53:04.543368,599619707108710961,-712.00
2025-12-25 16:53:04.543368,599619707108710961,-294.00
2025-12-25 16:53:04.543368,599619707108710961,-266.00
2025-12-25 16:53:04.543368,599619707108710961,-218.00
2025-12-25 16:53:05.044883,599619707669530074,-156.00
2025-12-25 16:53:05.044883,599619707669530074,-167.00
2025-12-25 16:53:05.044883,599619707669530074,-165.00
2025-12-25 16:53:05.044883,599619707669530074,-149.00
2025-12-25 16:53:05.044883,599619707669530074,-154.00
2025-12-25 16:53:05.044883,599619707669530074,-158.00
2025-12-25 16:53:05.044883,599619707669530074,-144.00
2025-12-25 16:53:05.044883,599619707669530074,-126.00
2025-12-25 16:53:05.044883,599619707669530074,-114.00
2025-12-25 16:53:05.044883,599619707669530074,-117.00
2025-12-25 16:53:05.044883,599619707669530074,-121.00
2025-12-25 16:53:05.044883,599619707669530074,-114.00
2025-12-25 16:53:05.044883,599619707669530074,-101.00
2025-12-25 16:53:05.044883,599619707669530074,-94.00
2025-12-25 16:53:05.044883,599619707669530074,-85.00
2025-12-25 16:53:05.044883,599619707669530074,-80.00
2025-12-25 16:53:05.044883,599619707669530074,-78.00
2025-12-25 16:53:05.044883,599619707669530074,-75.00
2025-12-25 16:53:05.044883,599619707669530074,-68.00
2025-12-25 16:53:05.044883,599619707669530074,-66.00
2025-12-25 16:53:05.044883,599619707669530074,-59.00
2025-12-25 16:53:05.044883,599619707669530074,-59.00
2025-12-25 16:53:05.044883,599619707669530074,-68.00
2025-12-25 16:53:05.044883,599619707669530074,-78.00
2025-12-25 16:53:05.044883,599619707669530074,-82.00
2025-12-25 16:53:05.044883,599619707669530074,-96.00
2025-12-25 16:53:05.044883,599619707669530074,-121.00
2025-12-25 16:53:05.044883,599619707669530074,-158.00
2025-12-25 16:53:05.044883,599619707669530074,-202.00
2025-12-25 16:53:05.044883,599619707669530074,-234.00
2025-12-25 16:53:05.044883,599619707669530074,-257.00
2025-12-25 16:53:05.044883,599619707669530074,-275.00
2025-12-25 16:53:05.044883,599619707669530074,-285.00
2025-12-25 16:53:05.044883,599619707669530074,-294.00
2025-12-25 16:53:05.044883,599619707669530074,-303.00
2025-12-25 16:53:05.044883,599619707669530074,-305.00
2025-12-25 16:53:05.044883,599619707669530074,-296.00
2025-12-25 16:53:05.044883,599619707669530074,-291.00
2025-12-25 16:53:05.044883,599619707669530074,-291.00
2025-12-25 16:53:05.044883,599619707669530074,-289.00
2025-12-25 16:53:05.044883,599619707669530074,-285.00
2025-12-25 16:53:05.044883,599619707669530074,-280.00
2025-12-25 16:53:05.044883,599619707669530074,-275.00
2025-12-25 16:53:05.044883,599619707669530074,-275.00
2025-12-25 16:53:05.044883,599619707669530074,-280.00
2025-12-25 16:53:05.044883,599619707669530074,-278.00
2025-12-25 16:53:05.044883,599619707669530074,-275.00
2025-12-25 16:53:05.044883,599619707669530074,-278.00
2025-12-25 16:53:05.044883,599619707669530074,-273.00
2025-12-25 16:53:05.044883,599619707669530074,-268.00
2025-12-25 16:53:05.044883,599619707669530074,-271.00
2025-12-25 16:53:05.044883,599619707669530074,-275.00
2025-12-25 16:53:05.044883,599619707669530074,-275.00
2025-12-25 16:53:05.044883,599619707669530074,-275.00
2025-12-25 16:53:05.044883,599619707669530074,-275.00
2025-12-25 16:53:05.044883,599619707669530074,-275.00
2025-12-25 16:53:05.044883,599619707669530074,-275.00
2025-12-25 16:53:05.044883,599619707669530074,-275.00
2025-12-25 16:53:05.044883,599619707669530074,-280.00
2025-12-25 16:53:05.044883,599619707669530074,-285.00
2025-12-25 16:53:05.044883,599619707669530074,-285.00
2025-12-25 16:53:05.044883,599619707669530074,-282.00
2025-12-25 16:53:05.044883,599619707669530074,-285.00
2025-12-25 16:53:05.044883,599619707669530074,-289.00
2025-12-25 16:53:05.044883,599619707669530074,-282.00
2025-12-25 16:53:05.044883,599619707669530074,-262.00
2025-12-25 16:53:05.044883,599619707669530074,-227.00
2025-12-25 16:53:05.044883,599619707669530074,-206.00
2025-12-25 16:53:05.044883,599619707669530074,-227.00
2025-12-25 16:53:05.044883,599619707669530074,-250.00
2025-12-25 16:53:05.044883,599619707669530074,-248.00
2025-12-25 16:53:05.044883,599619707669530074,-243.00
2025-12-25 16:53:05.044883,599619707669530074,-245.00
2025-12-25 16:53:05.546680,599619708230349187,-239.00
2025-12-25 16:53:05.546680,599619708230349187,-239.00
2025-12-25 16:53:05.546680,599619708230349187,-248.00
2025-12-25 16:53:05.546680,599619708230349187,-255.00
2025-12-25 16:53:05.546680,599619708230349187,-245.00
2025-12-25 16:53:05.546680,599619708230349187,-200.00
2025-12-25 16:53:05.546680,599619708230349187,-62.00
2025-12-25 16:53:05.546680,599619708230349187,223.00
2025-12-25 16:53:05.546680,599619708230349187,432.00
2025-12-25 16:53:05.546680,599619708230349187,4.00
2025-12-25 16:53:05.546680,599619708230349187,-947.00
2025-12-25 16:53:05.546680,599619708230349187,-1250.00
2025-12-25 16:53:05.546680,599619708230349187,-669.00
2025-12-25 16:53:05.546680,599619708230349187,-271.00
2025-12-25 16:53:05.546680,599619708230349187,-268.00
2025-12-25 16:53:05.546680,599619708230349187,-209.00
2025-12-25 16:53:05.546680,599619708230349187,-156.00
2025-12-25 16:53:05.546680,599619708230349187,-183.00
2025-12-25 16:53:05.546680,599619708230349187,-174.00
2025-12-25 16:53:05.546680,599619708230349187,-156.00
2025-12-25 16:53:05.546680,599619708230349187,-170.00
2025-12-25 16:53:05.546680,599619708230349187,-177.00
2025-12-25 16:53:05.546680,599619708230349187,-170.00
2025-12-25 16:53:05.546680,599619708230349187,-165.00
2025-12-25 16:53:05.546680,599619708230349187,-158.00
2025-12-25 16:53:05.546680,599619708230349187,-151.00
2025-12-25 16:53:05.546680,599619708230349187,-160.00
2025-12-25 16:53:05.546680,599619708230349187,-163.00
2025-12-25 16:53:05.546680,599619708230349187,-154.00
2025-12-25 16:53:05.546680,599619708230349187,-140.00
2025-12-25 16:53:05.546680,599619708230349187,-133.00
2025-12-25 16:53:05.546680,599619708230349187,-131.00
2025-12-25 16:53:05.546680,599619708230349187,-128.00
2025-12-25 16:53:05.546680,599619708230349187,-121.00
2025-12-25 16:53:05.546680,599619708230349187,-112.00
2025-12-25 16:53:05.546680,599619708230349187,-103.00
2025-12-25 16:53:05.546680,599619708230349187,-101.00
2025-12-25 16:53:05.546680,599619708230349187,-110.00
2025-12-25 16:53:05.546680,599619708230349187,-117.00
2025-12-25 16:53:05.546680,599619708230349187,-117.00
2025-12-25 16:53:05.546680,599619708230349187,-119.00
2025-12-25 16:53:05.546680,599619708230349187,-135.00
2025-12-25 16:53:05.546680,599619708230349187,-167.00
2025-12-25 16:53:05.546680,599619708230349187,-206.00
2025-12-25 16:53:05.546680,599619708230349187,-248.00
2025-12-25 16:53:05.546680,599619708230349187,-285.00
2025-12-25 16:53:05.546680,599619708230349187,-303.00
2025-12-25 16:53:05.546680,599619708230349187,-305.00
2025-12-25 16:53:05.546680,599619708230349187,-312.00
2025-12-25 16:53:05.546680,599619708230349187,-333.00
2025-12-25 16:53:05.546680,599619708230349187,-349.00
2025-12-25 16:53:05.546680,599619708230349187,-344.00
2025-12-25 16:53:05.546680,599619708230349187,-319.00
2025-12-25 16:53:05.546680,599619708230349187,-305.00
2025-12-25 16:53:05.546680,599619708230349187,-308.00
2025-12-25 16:53:05.546680,599619708230349187,-308.00
2025-12-25 16:53:05.546680,599619708230349187,-308.00
2025-12-25 16:53:05.546680,599619708230349187,-314.00
2025-12-25 16:53:05.546680,599619708230349187,-305.00
2025-12-25 16:53:05.546680,599619708230349187,-296.00
2025-12-25 16:53:05.546680,599619708230349187,-291.00
2025-12-25 16:53:05.546680,599619708230349187,-278.00
2025-12-25 16:53:05.546680,599619708230349187,-264.00
2025-12-25 16:53:05.546680,599619708230349187,-262.00
2025-12-25 16:53:05.546680,599619708230349187,-285.00
2025-12-25 16:53:05.546680,599619708230349187,-312.00
2025-12-25 16:53:05.546680,599619708230349187,-301.00
2025-12-25 16:53:05.546680,599619708230349187,-278.00
2025-12-25 16:53:05.546680,599619708230349187,-271.00
2025-12-25 16:53:05.546680,599619708230349187,-262.00
2025-12-25 16:53:05.546680,599619708230349187,-262.00
2025-12-25 16:53:05.546680,599619708230349187,-275.00
2025-12-25 16:53:05.546680,599619708230349187,-287.00
2025-12-25 16:53:06.098301,599619708791198816,-296.00
2025-12-25 16:53:06.098301,599619708791198816,-310.00
2025-12-25 16:53:06.098301,599619708791198816,-317.00
2025-12-25 16:53:06.098301,599619708791198816,-289.00
2025-12-25 16:53:06.098301,599619708791198816,-255.00
2025-12-25 16:53:06.098301,599619708791198816,-259.00
2025-12-25 16:53:06.098301,599619708791198816,-268.00
2025-12-25 16:53:06.098301,599619708791198816,-252.00
2025-12-25 16:53:06.098301,599619708791198816,-236.00
2025-12-25 16:53:06.098301,599619708791198816,-248.00
2025-12-25 16:53:06.098301,599619708791198816,-264.00
2025-12-25 16:53:06.098301,599619708791198816,-252.00
2025-12-25 16:53:06.098301,599619708791198816,-229.00
2025-12-25 16:53:06.098301,599619708791198816,-218.00
2025-12-25 16:53:06.098301,599619708791198816,-234.00
2025-12-25 16:53:06.098301,599619708791198816,-257.00
2025-12-25 16:53:06.098301,599619708791198816,-252.00
2025-12-25 16:53:06.098301,599619708791198816,-243.00
2025-12-25 16:53:06.098301,599619708791198816,-241.00
2025-12-25 16:53:06.098301,599619708791198816,-245.00
2025-12-25 16:53:06.098301,599619708791198816,-259.00
2025-12-25 16:53:06.098301,599619708791198816,-255.00
2025-12-25 16:53:06.098301,599619708791198816,-236.00
2025-12-25 16:53:06.098301,599619708791198816,-225.00
2025-12-25 16:53:06.098301,599619708791198816,-147.00
2025-12-25 16:53:06.098301,599619708791198816,103.00
2025-12-25 16:53:06.098301,599619708791198816,370.00
2025-12-25 16:53:06.098301,599619708791198816,133.00
2025-12-25 16:53:06.098301,599619708791198816,-737.00
2025-12-25 16:53:06.098301,599619708791198816,-1269.00
2025-12-25 16:53:06.098301,599619708791198816,-848.00
2025-12-25 16:53:06.098301,599619708791198816,-349.00
2025-12-25 16:53:06.098301,599619708791198816,-280.00
2025-12-25 16:53:06.098301,599619708791198816,-257.00
2025-12-25 16:53:06.098301,599619708791198816,-197.00
2025-12-25 16:53:06.098301,599619708791198816,-211.00
2025-12-25 16:53:06.098301,599619708791198816,-220.00
2025-12-25 16:53:06.098301,599619708791198816,-197.00
2025-12-25 16:53:06.098301,599619708791198816,-190.00
2025-12-25 16:53:06.098301,599619708791198816,-190.00
2025-12-25 16:53:06.098301,599619708791198816,-186.00
2025-12-25 16:53:06.098301,599619708791198816,-193.00
2025-12-25 16:53:06.098301,599619708791198816,-202.00
2025-12-25 16:53:06.098301,599619708791198816,-197.00
2025-12-25 16:53:06.098301,599619708791198816,-190.00
2025-12-25 16:53:06.098301,599619708791198816,-188.00
2025-12-25 16:53:06.098301,599619708791198816,-177.00
2025-12-25 16:53:06.098301,599619708791198816,-165.00
2025-12-25 16:53:06.098301,599619708791198816,-163.00
2025-12-25 16:53:06.098301,599619708791198816,-163.00
2025-12-25 16:53:06.098301,599619708791198816,-154.00
2025-12-25 16:53:06.098301,599619708791198816,-135.00
2025-12-25 16:53:06.098301,599619708791198816,-124.00
2025-12-25 16:53:06.098301,599619708791198816,-114.00
2025-12-25 16:53:06.098301,599619708791198816,-108.00
2025-12-25 16:53:06.098301,599619708791198816,-103.00
2025-12-25 16:53:06.098301,599619708791198816,-108.00
2025-12-25 16:53:06.098301,599619708791198816,-119.00
2025-12-25 16:53:06.098301,599619708791198816,-133.00
2025-12-25 16:53:06.098301,599619708791198816,-151.00
2025-12-25 16:53:06.098301,599619708791198816,-172.00
2025-12-25 16:53:06.098301,599619708791198816,-190.00
2025-12-25 16:53:06.098301,599619708791198816,-225.00
2025-12-25 16:53:06.098301,599619708791198816,-268.00
2025-12-25 16:53:06.098301,599619708791198816,-294.00
2025-12-25 16:53:06.098301,599619708791198816,-305.00
2025-12-25 16:53:06.098301,599619708791198816,-314.00
2025-12-25 16:53:06.098301,599619708791198816,-317.00
2025-12-25 16:53:06.098301,599619708791198816,-319.00
2025-12-25 16:53:06.098301,599619708791198816,-326.00
2025-12-25 16:53:06.098301,599619708791198816,-333.00
2025-12-25 16:53:06.098301,599619708791198816,-331.00
2025-12-25 16:53:06.098301,599619708791198816,-314.00
2025-12-25 16:53:06.750057,599619709352017933,-303.00
2025-12-25 16:53:06.750057,599619709352017933,-312.00
2025-12-25 16:53:06.750057,599619709352017933,-317.00
2025-12-25 16:53:06.750057,599619709352017933,-312.00
2025-12-25 16:53:06.750057,599619709352017933,-305.00
2025-12-25 16:53:06.750057,599619709352017933,-294.00
2025-12-25 16:53:06.750057,599619709352017933,-278.00
2025-12-25 16:53:06.750057,599619709352017933,-278.00
2025-12-25 16:53:06.750057,599619709352017933,-285.00
2025-12-25 16:53:06.750057,599619709352017933,-282.00
2025-12-25 16:53:06.750057,599619709352017933,-285.00
2025-12-25 16:53:06.750057,599619709352017933,-287.00
2025-12-25 16:53:06.750057,599619709352017933,-285.00
2025-12-25 16:53:06.750057,599619709352017933,-282.00
2025-12-25 16:53:06.750057,599619709352017933,-282.00
2025-12-25 16:53:06.750057,599619709352017933,-285.00
2025-12-25 16:53:06.750057,599619709352017933,-289.00
2025-12-25 16:53:06.750057,599619709352017933,-291.00
2025-12-25 16:53:06.750057,599619709352017933,-291.00
2025-12-25 16:53:06.750057,599619709352017933,-296.00
2025-12-25 16:53:06.750057,599619709352017933,-289.00
2025-12-25 16:53:06.750057,599619709352017933,-273.00
2025-12-25 16:53:06.750057,599619709352017933,-271.00
2025-12-25 16:53:06.750057,599619709352017933,-273.00
2025-12-25 16:53:06.750057,599619709352017933,-278.00
2025-12-25 16:53:06.750057,599619709352017933,-285.00
2025-12-25 16:53:06.750057,599619709352017933,-278.00
2025-12-25 16:53:06.750057,599619709352017933,-259.00
2025-12-25 16:53:06.750057,599619709352017933,-248.00
2025-12-25 16:53:06.750057,599619709352017933,-234.00
2025-12-25 16:53:06.750057,599619709352017933,-234.00
2025-12-25 16:53:06.750057,599619709352017933,-257.00
2025-12-25 16:53:06.750057,599619709352017933,-278.00
2025-12-25 16:53:06.750057,599619709352017933,-275.00
2025-12-25 16:53:06.750057,599619709352017933,-278.00
2025-12-25 16:53:06.750057,599619709352017933,-280.00
2025-12-25 16:53:06.750057,599619709352017933,-273.00
2025-12-25 16:53:06.750057,599619709352017933,-264.00
2025-12-25 16:53:06.750057,599619709352017933,-266.00
2025-12-25 16:53:06.750057,599619709352017933,-271.00
2025-12-25 16:53:06.750057,599619709352017933,-264.00
2025-12-25 16:53:06.750057,599619709352017933,-197.00
2025-12-25 16:53:06.750057,599619709352017933,6.00
2025-12-25 16:53:06.750057,599619709352017933,331.00
2025-12-25 16:53:06.750057,599619709352017933,383.00
2025-12-25 16:53:06.750057,599619709352017933,-335.00
2025-12-25 16:53:06.750057,599619709352017933,-1204.00
2025-12-25 16:53:06.750057,599619709352017933,-1057.00
2025-12-25 16:53:06.750057,599619709352017933,-381.00
2025-12-25 16:53:06.750057,599619709352017933,-200.00
2025-12-25 16:53:06.750057,599619709352017933,-257.00
2025-12-25 16:53:06.750057,599619709352017933,-186.00
2025-12-25 16:53:06.750057,599619709352017933,-158.00
2025-12-25 16:53:06.750057,599619709352017933,-188.00
2025-12-25 16:53:06.750057,599619709352017933,-174.00
2025-12-25 16:53:06.750057,599619709352017933,-156.00
2025-12-25 16:53:06.750057,599619709352017933,-165.00
2025-12-25 16:53:06.750057,599619709352017933,-163.00
2025-12-25 16:53:06.750057,599619709352017933,-154.00
2025-12-25 16:53:06.750057,599619709352017933,-156.00
2025-12-25 16:53:06.750057,599619709352017933,-151.00
2025-12-25 16:53:06.750057,599619709352017933,-144.00
2025-12-25 16:53:06.750057,599619709352017933,-142.00
2025-12-25 16:53:06.750057,599619709352017933,-142.00
2025-12-25 16:53:06.750057,599619709352017933,-135.00
2025-12-25 16:53:06.750057,599619709352017933,-126.00
2025-12-25 16:53:06.750057,599619709352017933,-121.00
2025-12-25 16:53:06.750057,599619709352017933,-124.00
2025-12-25 16:53:06.750057,599619709352017933,-117.00
2025-12-25 16:53:06.750057,599619709352017933,-103.00
2025-12-25 16:53:06.750057,599619709352017933,-91.00
2025-12-25 16:53:06.750057,599619709352017933,-85.00
2025-12-25 16:53:06.750057,599619709352017933,-85.00
2025-12-25 16:53:07.301612,599619709912867564,-91.00
2025-12-25 16:53:07.301612,599619709912867564,-94.00
2025-12-25 16:53:07.301612,599619709912867564,-94.00
2025-12-25 16:53:07.301612,599619709912867564,-98.00
2025-12-25 16:53:07.301612,599619709912867564,-126.00
2025-12-25 16:53:07.301612,599619709912867564,-167.00
2025-12-25 16:53:07.301612,599619709912867564,-202.00
2025-12-25 16:53:07.301612,599619709912867564,-234.00
2025-12-25 16:53:07.301612,599619709912867564,-262.00
2025-12-25 16:53:07.301612,599619709912867564,-268.00
2025-12-25 16:53:07.301612,599619709912867564,-273.00
2025-12-25 16:53:07.301612,599619709912867564,-278.00
2025-12-25 16:53:07.301612,599619709912867564,-278.00
2025-12-25 16:53:07.301612,599619709912867564,-282.00
2025-12-25 16:53:07.301612,599619709912867564,-278.00
2025-12-25 16:53:07.301612,599619709912867564,-264.00
2025-12-25 16:53:07.301612,599619709912867564,-259.00
2025-12-25 16:53:07.301612,599619709912867564,-271.00
2025-12-25 16:53:07.301612,599619709912867564,-273.00
2025-12-25 16:53:07.301612,599619709912867564,-273.00
2025-12-25 16:53:07.301612,599619709912867564,-271.00
2025-12-25 16:53:07.301612,599619709912867564,-262.00
2025-12-25 16:53:07.301612,599619709912867564,-255.00
2025-12-25 16:53:07.301612,599619709912867564,-252.00
2025-12-25 16:53:07.301612,599619709912867564,-252.00
2025-12-25 16:53:07.301612,599619709912867564,-255.00
2025-12-25 16:53:07.301612,599619709912867564,-255.00
2025-12-25 16:53:07.301612,599619709912867564,-248.00
2025-12-25 16:53:07.301612,599619709912867564,-250.00
2025-12-25 16:53:07.301612,599619709912867564,-262.00
2025-12-25 16:53:07.301612,599619709912867564,-264.00
2025-12-25 16:53:07.301612,599619709912867564,-264.00
2025-12-25 16:53:07.301612,599619709912867564,-264.00
2025-12-25 16:53:07.301612,599619709912867564,-259.00
2025-12-25 16:53:07.301612,599619709912867564,-257.00
2025-12-25 16:53:07.301612,599619709912867564,-255.00
2025-12-25 16:53:07.301612,599619709912867564,-252.00
2025-12-25 16:53:07.301612,599619709912867564,-252.00
2025-12-25 16:53:07.301612,599619709912867564,-245.00
2025-12-25 16:53:07.301612,599619709912867564,-232.00
2025-12-25 16:53:07.301612,599619709912867564,-236.00
2025-12-25 16:53:07.301612,599619709912867564,-245.00
2025-12-25 16:53:07.301612,599619709912867564,-241.00
2025-12-25 16:53:07.301612,599619709912867564,-234.00
2025-12-25 16:53:07.301612,599619709912867564,-229.00
2025-12-25 16:53:07.301612,599619709912867564,-211.00
2025-12-25 16:53:07.301612,599619709912867564,-197.00
2025-12-25 16:53:07.301612,599619709912867564,-220.00
2025-12-25 16:53:07.301612,599619709912867564,-243.00
2025-12-25 16:53:07.301612,599619709912867564,-245.00
2025-12-25 16:53:07.301612,599619709912867564,-243.00
2025-12-25 16:53:07.301612,599619709912867564,-248.00
2025-12-25 16:53:07.301612,599619709912867564,-252.00
2025-12-25 16:53:07.301612,599619709912867564,-255.00
2025-12-25 16:53:07.301612,599619709912867564,-252.00
2025-12-25 16:53:07.301612,599619709912867564,-252.00
2025-12-25 16:53:07.301612,599619709912867564,-250.00
2025-12-25 16:53:07.301612,599619709912867564,-225.00
2025-12-25 16:53:07.301612,599619709912867564,-103.00
2025-12-25 16:53:07.301612,599619709912867564,181.00
2025-12-25 16:53:07.301612,599619709912867564,425.00
2025-12-25 16:53:07.301612,599619709912867564,85.00
2025-12-25 16:53:07.301612,599619709912867564,-841.00
2025-12-25 16:53:07.301612,599619709912867564,-1262.00
2025-12-25 16:53:07.301612,599619709912867564,-760.00
2025-12-25 16:53:07.301612,599619709912867564,-314.00
2025-12-25 16:53:07.301612,599619709912867564,-278.00
2025-12-25 16:53:07.301612,599619709912867564,-220.00
2025-12-25 16:53:07.301612,599619709912867564,-149.00
2025-12-25 16:53:07.301612,599619709912867564,-177.00
2025-12-25 16:53:07.301612,599619709912867564,-186.00
2025-12-25 16:53:07.301612,599619709912867564,-160.00
