Timestamp,Device Timestamp (ns),ECG Value (uV)
2025-12-24 16:32:00.469384,599630750508432949,-168.00
2025-12-24 16:32:00.469384,599630750508432949,-158.00
2025-12-24 16:32:00.469384,599630750508432949,-156.00
2025-12-24 16:32:00.469384,599630750508432949,-158.00
2025-12-24 16:32:00.469384,599630750508432949,-158.00
2025-12-24 16:32:00.469384,599630750508432949,-158.00
2025-12-24 16:32:00.469384,599630750508432949,-161.00
2025-12-24 16:32:00.469384,599630750508432949,-154.00
2025-12-24 16:32:00.469384,599630750508432949,-142.00
2025-12-24 16:32:00.469384,599630750508432949,-140.00
2025-12-24 16:32:00.469384,599630750508432949,-137.00
2025-12-24 16:32:00.469384,599630750508432949,-133.00
2025-12-24 16:32:00.469384,599630750508432949,-128.00
2025-12-24 16:32:00.469384,599630750508432949,-123.00
2025-12-24 16:32:00.469384,599630750508432949,-121.00
2025-12-24 16:32:00.469384,599630750508432949,-126.00
2025-12-24 16:32:00.469384,599630750508432949,-123.00
2025-12-24 16:32:00.469384,599630750508432949,-126.00
2025-12-24 16:32:00.469384,599630750508432949,-126.00
2025-12-24 16:32:00.469384,599630750508432949,-116.00
2025-12-24 16:32:00.469384,599630750508432949,-112.00
2025-12-24 16:32:00.469384,599630750508432949,-109.00
2025-12-24 16:32:00.469384,599630750508432949,-107.00
2025-12-24 16:32:00.469384,599630750508432949,-112.00
2025-12-24 16:32:00.469384,599630750508432949,-112.00
2025-12-24 16:32:00.469384,599630750508432949,-100.00
2025-12-24 16:32:00.469384,599630750508432949,-100.00
2025-12-24 16:32:00.469384,599630750508432949,-112.00
2025-12-24 16:32:00.469384,599630750508432949,-107.00
2025-12-24 16:32:00.469384,599630750508432949,-102.00
2025-12-24 16:32:00.469384,599630750508432949,-109.00
2025-12-24 16:32:00.469384,599630750508432949,-109.00
2025-12-24 16:32:00.469384,599630750508432949,-107.00
2025-12-24 16:32:00.469384,599630750508432949,-109.00
2025-12-24 16:32:00.469384,599630750508432949,-114.00
2025-12-24 16:32:00.469384,599630750508432949,-112.00
2025-12-24 16:32:00.469384,599630750508432949,-114.00
2025-12-24 16:32:00.469384,599630750508432949,-121.00
2025-12-24 16:32:00.469384,599630750508432949,-126.00
2025-12-24 16:32:00.469384,599630750508432949,-121.00
2025-12-24 16:32:00.469384,599630750508432949,-116.00
2025-12-24 16:32:00.469384,599630750508432949,-121.00
2025-12-24 16:32:00.469384,599630750508432949,-126.00
2025-12-24 16:32:00.469384,599630750508432949,-123.00
2025-12-24 16:32:00.469384,599630750508432949,-121.00
2025-12-24 16:32:00.469384,599630750508432949,-126.00
2025-12-24 16:32:00.469384,599630750508432949,-130.00
2025-12-24 16:32:00.469384,599630750508432949,-130.00
2025-12-24 16:32:00.469384,599630750508432949,-133.00
2025-12-24 16:32:00.469384,599630750508432949,-133.00
2025-12-24 16:32:00.469384,599630750508432949,-128.00
2025-12-24 16:32:00.469384,599630750508432949,-121.00
2025-12-24 16:32:00.469384,599630750508432949,-112.00
2025-12-24 16:32:00.469384,599630750508432949,-102.00
2025-12-24 16:32:00.469384,599630750508432949,-107.00
2025-12-24 16:32:00.469384,599630750508432949,-130.00
2025-12-24 16:32:00.469384,599630750508432949,-142.00
2025-12-24 16:32:00.469384,599630750508432949,-140.00
2025-12-24 16:32:00.469384,599630750508432949,-140.00
2025-12-24 16:32:00.469384,599630750508432949,-137.00
2025-12-24 16:32:00.469384,599630750508432949,-135.00
2025-12-24 16:32:00.469384,599630750508432949,-137.00
2025-12-24 16:32:00.469384,599630750508432949,-142.00
2025-12-24 16:32:00.469384,599630750508432949,-144.00
2025-12-24 16:32:00.469384,599630750508432949,-121.00
2025-12-24 16:32:00.469384,599630750508432949,2.00
2025-12-24 16:32:00.469384,599630750508432949,301.00
2025-12-24 16:32:00.469384,599630750508432949,635.00
2025-12-24 16:32:00.469384,599630750508432949,513.00
2025-12-24 16:32:00.469384,599630750508432949,-217.00
2025-12-24 16:32:00.469384,599630750508432949,-689.00
2025-12-24 16:32:00.469384,599630750508432949,-401.00
2025-12-24 16:32:00.469384,599630750508432949,-133.00
2025-12-24 16:32:01.021437,599630751069282580,-196.00
2025-12-24 16:32:01.021437,599630751069282580,-172.00
2025-12-24 16:32:01.021437,599630751069282580,-95.00
2025-12-24 16:32:01.021437,599630751069282580,-114.00
2025-12-24 16:32:01.021437,599630751069282580,-116.00
2025-12-24 16:32:01.021437,599630751069282580,-81.00
2025-12-24 16:32:01.021437,599630751069282580,-81.00
2025-12-24 16:32:01.021437,599630751069282580,-86.00
2025-12-24 16:32:01.021437,599630751069282580,-70.00
2025-12-24 16:32:01.021437,599630751069282580,-63.00
2025-12-24 16:32:01.021437,599630751069282580,-53.00
2025-12-24 16:32:01.021437,599630751069282580,-32.00
2025-12-24 16:32:01.021437,599630751069282580,-23.00
2025-12-24 16:32:01.021437,599630751069282580,-25.00
2025-12-24 16:32:01.021437,599630751069282580,-9.00
2025-12-24 16:32:01.021437,599630751069282580,16.00
2025-12-24 16:32:01.021437,599630751069282580,25.00
2025-12-24 16:32:01.021437,599630751069282580,35.00
2025-12-24 16:32:01.021437,599630751069282580,53.00
2025-12-24 16:32:01.021437,599630751069282580,65.00
2025-12-24 16:32:01.021437,599630751069282580,77.00
2025-12-24 16:32:01.021437,599630751069282580,95.00
2025-12-24 16:32:01.021437,599630751069282580,112.00
2025-12-24 16:32:01.021437,599630751069282580,121.00
2025-12-24 16:32:01.021437,599630751069282580,119.00
2025-12-24 16:32:01.021437,599630751069282580,109.00
2025-12-24 16:32:01.021437,599630751069282580,102.00
2025-12-24 16:32:01.021437,599630751069282580,77.00
2025-12-24 16:32:01.021437,599630751069282580,28.00
2025-12-24 16:32:01.021437,599630751069282580,-37.00
2025-12-24 16:32:01.021437,599630751069282580,-100.00
2025-12-24 16:32:01.021437,599630751069282580,-154.00
2025-12-24 16:32:01.021437,599630751069282580,-198.00
2025-12-24 16:32:01.021437,599630751069282580,-231.00
2025-12-24 16:32:01.021437,599630751069282580,-245.00
2025-12-24 16:32:01.021437,599630751069282580,-252.00
2025-12-24 16:32:01.021437,599630751069282580,-256.00
2025-12-24 16:32:01.021437,599630751069282580,-254.00
2025-12-24 16:32:01.021437,599630751069282580,-249.00
2025-12-24 16:32:01.021437,599630751069282580,-249.00
2025-12-24 16:32:01.021437,599630751069282580,-245.00
2025-12-24 16:32:01.021437,599630751069282580,-242.00
2025-12-24 16:32:01.021437,599630751069282580,-242.00
2025-12-24 16:32:01.021437,599630751069282580,-231.00
2025-12-24 16:32:01.021437,599630751069282580,-214.00
2025-12-24 16:32:01.021437,599630751069282580,-214.00
2025-12-24 16:32:01.021437,599630751069282580,-210.00
2025-12-24 16:32:01.021437,599630751069282580,-198.00
2025-12-24 16:32:01.021437,599630751069282580,-196.00
2025-12-24 16:32:01.021437,599630751069282580,-198.00
2025-12-24 16:32:01.021437,599630751069282580,-193.00
2025-12-24 16:32:01.021437,599630751069282580,-189.00
2025-12-24 16:32:01.021437,599630751069282580,-191.00
2025-12-24 16:32:01.021437,599630751069282580,-189.00
2025-12-24 16:32:01.021437,599630751069282580,-186.00
2025-12-24 16:32:01.021437,599630751069282580,-186.00
2025-12-24 16:32:01.021437,599630751069282580,-186.00
2025-12-24 16:32:01.021437,599630751069282580,-184.00
2025-12-24 16:32:01.021437,599630751069282580,-184.00
2025-12-24 16:32:01.021437,599630751069282580,-182.00
2025-12-24 16:32:01.021437,599630751069282580,-179.00
2025-12-24 16:32:01.021437,599630751069282580,-179.00
2025-12-24 16:32:01.021437,599630751069282580,-179.00
2025-12-24 16:32:01.021437,599630751069282580,-175.00
2025-12-24 16:32:01.021437,599630751069282580,-168.00
2025-12-24 16:32:01.021437,599630751069282580,-163.00
2025-12-24 16:32:01.021437,599630751069282580,-168.00
2025-12-24 16:32:01.021437,599630751069282580,-170.00
2025-12-24 16:32:01.021437,599630751069282580,-158.00
2025-12-24 16:32:01.021437,599630751069282580,-147.00
2025-12-24 16:32:01.021437,599630751069282580,-144.00
2025-12-24 16:32:01.021437,599630751069282580,-147.00
2025-12-24 16:32:01.021437,599630751069282580,-144.00
2025-12-24 16:32:01.673656,599630751630132211,-142.00
2025-12-24 16:32:01.673656,599630751630132211,-140.00
2025-12-24 16:32:01.673656,599630751630132211,-137.00
2025-12-24 16:32:01.673656,599630751630132211,-135.00
2025-12-24 16:32:01.673656,599630751630132211,-135.00
2025-12-24 16:32:01.673656,599630751630132211,-128.00
2025-12-24 16:32:01.673656,599630751630132211,-121.00
2025-12-24 16:32:01.673656,599630751630132211,-114.00
2025-12-24 16:32:01.673656,599630751630132211,-102.00
2025-12-24 16:32:01.673656,599630751630132211,-102.00
2025-12-24 16:32:01.673656,599630751630132211,-112.00
2025-12-24 16:32:01.673656,599630751630132211,-112.00
2025-12-24 16:32:01.673656,599630751630132211,-105.00
2025-12-24 16:32:01.673656,599630751630132211,-95.00
2025-12-24 16:32:01.673656,599630751630132211,-86.00
2025-12-24 16:32:01.673656,599630751630132211,-79.00
2025-12-24 16:32:01.673656,599630751630132211,-72.00
2025-12-24 16:32:01.673656,599630751630132211,-79.00
2025-12-24 16:32:01.673656,599630751630132211,-98.00
2025-12-24 16:32:01.673656,599630751630132211,-102.00
2025-12-24 16:32:01.673656,599630751630132211,-95.00
2025-12-24 16:32:01.673656,599630751630132211,-95.00
2025-12-24 16:32:01.673656,599630751630132211,-98.00
2025-12-24 16:32:01.673656,599630751630132211,-98.00
2025-12-24 16:32:01.673656,599630751630132211,-98.00
2025-12-24 16:32:01.673656,599630751630132211,-95.00
2025-12-24 16:32:01.673656,599630751630132211,-95.00
2025-12-24 16:32:01.673656,599630751630132211,-67.00
2025-12-24 16:32:01.673656,599630751630132211,65.00
2025-12-24 16:32:01.673656,599630751630132211,373.00
2025-12-24 16:32:01.673656,599630751630132211,712.00
2025-12-24 16:32:01.673656,599630751630132211,574.00
2025-12-24 16:32:01.673656,599630751630132211,-168.00
2025-12-24 16:32:01.673656,599630751630132211,-625.00
2025-12-24 16:32:01.673656,599630751630132211,-326.00
2025-12-24 16:32:01.673656,599630751630132211,-81.00
2025-12-24 16:32:01.673656,599630751630132211,-161.00
2025-12-24 16:32:01.673656,599630751630132211,-130.00
2025-12-24 16:32:01.673656,599630751630132211,-60.00
2025-12-24 16:32:01.673656,599630751630132211,-91.00
2025-12-24 16:32:01.673656,599630751630132211,-95.00
2025-12-24 16:32:01.673656,599630751630132211,-51.00
2025-12-24 16:32:01.673656,599630751630132211,-49.00
2025-12-24 16:32:01.673656,599630751630132211,-53.00
2025-12-24 16:32:01.673656,599630751630132211,-37.00
2025-12-24 16:32:01.673656,599630751630132211,-35.00
2025-12-24 16:32:01.673656,599630751630132211,-37.00
2025-12-24 16:32:01.673656,599630751630132211,-25.00
2025-12-24 16:32:01.673656,599630751630132211,-11.00
2025-12-24 16:32:01.673656,599630751630132211,-2.00
2025-12-24 16:32:01.673656,599630751630132211,7.00
2025-12-24 16:32:01.673656,599630751630132211,16.00
2025-12-24 16:32:01.673656,599630751630132211,25.00
2025-12-24 16:32:01.673656,599630751630132211,39.00
2025-12-24 16:32:01.673656,599630751630132211,60.00
2025-12-24 16:32:01.673656,599630751630132211,79.00
2025-12-24 16:32:01.673656,599630751630132211,98.00
2025-12-24 16:32:01.673656,599630751630132211,116.00
2025-12-24 16:32:01.673656,599630751630132211,128.00
2025-12-24 16:32:01.673656,599630751630132211,135.00
2025-12-24 16:32:01.673656,599630751630132211,142.00
2025-12-24 16:32:01.673656,599630751630132211,147.00
2025-12-24 16:32:01.673656,599630751630132211,135.00
2025-12-24 16:32:01.673656,599630751630132211,93.00
2025-12-24 16:32:01.673656,599630751630132211,35.00
2025-12-24 16:32:01.673656,599630751630132211,-25.00
2025-12-24 16:32:01.673656,599630751630132211,-86.00
2025-12-24 16:32:01.673656,599630751630132211,-144.00
2025-12-24 16:32:01.673656,599630751630132211,-179.00
2025-12-24 16:32:01.673656,599630751630132211,-193.00
2025-12-24 16:32:01.673656,599630751630132211,-210.00
2025-12-24 16:32:01.673656,599630751630132211,-224.00
2025-12-24 16:32:01.673656,599630751630132211,-221.00
2025-12-24 16:32:02.175334,599630752190981842,-217.00
2025-12-24 16:32:02.175334,599630752190981842,-217.00
2025-12-24 16:32:02.175334,599630752190981842,-219.00
2025-12-24 16:32:02.175334,599630752190981842,-219.00
2025-12-24 16:32:02.175334,599630752190981842,-212.00
2025-12-24 16:32:02.175334,599630752190981842,-203.00
2025-12-24 16:32:02.175334,599630752190981842,-193.00
2025-12-24 16:32:02.175334,599630752190981842,-189.00
2025-12-24 16:32:02.175334,599630752190981842,-189.00
2025-12-24 16:32:02.175334,599630752190981842,-182.00
2025-12-24 16:32:02.175334,599630752190981842,-170.00
2025-12-24 16:32:02.175334,599630752190981842,-151.00
2025-12-24 16:32:02.175334,599630752190981842,-142.00
2025-12-24 16:32:02.175334,599630752190981842,-149.00
2025-12-24 16:32:02.175334,599630752190981842,-149.00
2025-12-24 16:32:02.175334,599630752190981842,-137.00
2025-12-24 16:32:02.175334,599630752190981842,-128.00
2025-12-24 16:32:02.175334,599630752190981842,-121.00
2025-12-24 16:32:02.175334,599630752190981842,-121.00
2025-12-24 16:32:02.175334,599630752190981842,-123.00
2025-12-24 16:32:02.175334,599630752190981842,-128.00
2025-12-24 16:32:02.175334,599630752190981842,-133.00
2025-12-24 16:32:02.175334,599630752190981842,-130.00
2025-12-24 16:32:02.175334,599630752190981842,-126.00
2025-12-24 16:32:02.175334,599630752190981842,-130.00
2025-12-24 16:32:02.175334,599630752190981842,-140.00
2025-12-24 16:32:02.175334,599630752190981842,-137.00
2025-12-24 16:32:02.175334,599630752190981842,-126.00
2025-12-24 16:32:02.175334,599630752190981842,-121.00
2025-12-24 16:32:02.175334,599630752190981842,-123.00
2025-12-24 16:32:02.175334,599630752190981842,-126.00
2025-12-24 16:32:02.175334,599630752190981842,-126.00
2025-12-24 16:32:02.175334,599630752190981842,-123.00
2025-12-24 16:32:02.175334,599630752190981842,-123.00
2025-12-24 16:32:02.175334,599630752190981842,-123.00
2025-12-24 16:32:02.175334,599630752190981842,-126.00
2025-12-24 16:32:02.175334,599630752190981842,-123.00
2025-12-24 16:32:02.175334,599630752190981842,-116.00
2025-12-24 16:32:02.175334,599630752190981842,-121.00
2025-12-24 16:32:02.175334,599630752190981842,-128.00
2025-12-24 16:32:02.175334,599630752190981842,-123.00
2025-12-24 16:32:02.175334,599630752190981842,-119.00
2025-12-24 16:32:02.175334,599630752190981842,-119.00
2025-12-24 16:32:02.175334,599630752190981842,-121.00
2025-12-24 16:32:02.175334,599630752190981842,-121.00
2025-12-24 16:32:02.175334,599630752190981842,-119.00
2025-12-24 16:32:02.175334,599630752190981842,-119.00
2025-12-24 16:32:02.175334,599630752190981842,-121.00
2025-12-24 16:32:02.175334,599630752190981842,-121.00
2025-12-24 16:32:02.175334,599630752190981842,-123.00
2025-12-24 16:32:02.175334,599630752190981842,-126.00
2025-12-24 16:32:02.175334,599630752190981842,-121.00
2025-12-24 16:32:02.175334,599630752190981842,-116.00
2025-12-24 16:32:02.175334,599630752190981842,-107.00
2025-12-24 16:32:02.175334,599630752190981842,-84.00
2025-12-24 16:32:02.175334,599630752190981842,-70.00
2025-12-24 16:32:02.175334,599630752190981842,-86.00
2025-12-24 16:32:02.175334,599630752190981842,-102.00
2025-12-24 16:32:02.175334,599630752190981842,-107.00
2025-12-24 16:32:02.175334,599630752190981842,-109.00
2025-12-24 16:32:02.175334,599630752190981842,-109.00
2025-12-24 16:32:02.175334,599630752190981842,-107.00
2025-12-24 16:32:02.175334,599630752190981842,-109.00
2025-12-24 16:32:02.175334,599630752190981842,-109.00
2025-12-24 16:32:02.175334,599630752190981842,-105.00
2025-12-24 16:32:02.175334,599630752190981842,-105.00
2025-12-24 16:32:02.175334,599630752190981842,-74.00
2025-12-24 16:32:02.175334,599630752190981842,67.00
2025-12-24 16:32:02.175334,599630752190981842,371.00
2025-12-24 16:32:02.175334,599630752190981842,681.00
2025-12-24 16:32:02.175334,599630752190981842,544.00
2025-12-24 16:32:02.175334,599630752190981842,-158.00
2025-12-24 16:32:02.175334,599630752190981842,-583.00
2025-12-24 16:32:02.726687,599630752751831473,-301.00
2025-12-24 16:32:02.726687,599630752751831473,-79.00
2025-12-24 16:32:02.726687,599630752751831473,-170.00
2025-12-24 16:32:02.726687,599630752751831473,-156.00
2025-12-24 16:32:02.726687,599630752751831473,-91.00
2025-12-24 16:32:02.726687,599630752751831473,-114.00
2025-12-24 16:32:02.726687,599630752751831473,-121.00
2025-12-24 16:32:02.726687,599630752751831473,-88.00
2025-12-24 16:32:02.726687,599630752751831473,-79.00
2025-12-24 16:32:02.726687,599630752751831473,-77.00
2025-12-24 16:32:02.726687,599630752751831473,-63.00
2025-12-24 16:32:02.726687,599630752751831473,-56.00
2025-12-24 16:32:02.726687,599630752751831473,-51.00
2025-12-24 16:32:02.726687,599630752751831473,-35.00
2025-12-24 16:32:02.726687,599630752751831473,-14.00
2025-12-24 16:32:02.726687,599630752751831473,-7.00
2025-12-24 16:32:02.726687,599630752751831473,-4.00
2025-12-24 16:32:02.726687,599630752751831473,4.00
2025-12-24 16:32:02.726687,599630752751831473,23.00
2025-12-24 16:32:02.726687,599630752751831473,42.00
2025-12-24 16:32:02.726687,599630752751831473,58.00
2025-12-24 16:32:02.726687,599630752751831473,72.00
2025-12-24 16:32:02.726687,599630752751831473,86.00
2025-12-24 16:32:02.726687,599630752751831473,102.00
2025-12-24 16:32:02.726687,599630752751831473,119.00
2025-12-24 16:32:02.726687,599630752751831473,130.00
2025-12-24 16:32:02.726687,599630752751831473,130.00
2025-12-24 16:32:02.726687,599630752751831473,126.00
2025-12-24 16:32:02.726687,599630752751831473,116.00
2025-12-24 16:32:02.726687,599630752751831473,95.00
2025-12-24 16:32:02.726687,599630752751831473,51.00
2025-12-24 16:32:02.726687,599630752751831473,-14.00
2025-12-24 16:32:02.726687,599630752751831473,-74.00
2025-12-24 16:32:02.726687,599630752751831473,-123.00
2025-12-24 16:32:02.726687,599630752751831473,-156.00
2025-12-24 16:32:02.726687,599630752751831473,-177.00
2025-12-24 16:32:02.726687,599630752751831473,-193.00
2025-12-24 16:32:02.726687,599630752751831473,-198.00
2025-12-24 16:32:02.726687,599630752751831473,-203.00
2025-12-24 16:32:02.726687,599630752751831473,-207.00
2025-12-24 16:32:02.726687,599630752751831473,-205.00
2025-12-24 16:32:02.726687,599630752751831473,-193.00
2025-12-24 16:32:02.726687,599630752751831473,-189.00
2025-12-24 16:32:02.726687,599630752751831473,-186.00
2025-12-24 16:32:02.726687,599630752751831473,-177.00
2025-12-24 16:32:02.726687,599630752751831473,-172.00
2025-12-24 16:32:02.726687,599630752751831473,-170.00
2025-12-24 16:32:02.726687,599630752751831473,-156.00
2025-12-24 16:32:02.726687,599630752751831473,-147.00
2025-12-24 16:32:02.726687,599630752751831473,-147.00
2025-12-24 16:32:02.726687,599630752751831473,-142.00
2025-12-24 16:32:02.726687,599630752751831473,-137.00
2025-12-24 16:32:02.726687,599630752751831473,-135.00
2025-12-24 16:32:02.726687,599630752751831473,-133.00
2025-12-24 16:32:02.726687,599630752751831473,-128.00
2025-12-24 16:32:02.726687,599630752751831473,-128.00
2025-12-24 16:32:02.726687,599630752751831473,-128.00
2025-12-24 16:32:02.726687,599630752751831473,-128.00
2025-12-24 16:32:02.726687,599630752751831473,-128.00
2025-12-24 16:32:02.726687,599630752751831473,-126.00
2025-12-24 16:32:02.726687,599630752751831473,-123.00
2025-12-24 16:32:02.726687,599630752751831473,-128.00
2025-12-24 16:32:02.726687,599630752751831473,-137.00
2025-12-24 16:32:02.726687,599630752751831473,-137.00
2025-12-24 16:32:02.726687,599630752751831473,-135.00
2025-12-24 16:32:02.726687,599630752751831473,-137.00
2025-12-24 16:32:02.726687,599630752751831473,-140.00
2025-12-24 16:32:02.726687,599630752751831473,-135.00
2025-12-24 16:32:02.726687,599630752751831473,-135.00
2025-12-24 16:32:02.726687,599630752751831473,-137.00
2025-12-24 16:32:02.726687,599630752751831473,-135.00
2025-12-24 16:32:02.726687,599630752751831473,-133.00
2025-12-24 16:32:02.726687,599630752751831473,-130.00
2025-12-24 16:32:03.278307,599630753312681104,-128.00
2025-12-24 16:32:03.278307,599630753312681104,-128.00
2025-12-24 16:32:03.278307,599630753312681104,-135.00
2025-12-24 16:32:03.278307,599630753312681104,-137.00
2025-12-24 16:32:03.278307,599630753312681104,-135.00
2025-12-24 16:32:03.278307,599630753312681104,-126.00
2025-12-24 16:32:03.278307,599630753312681104,-100.00
2025-12-24 16:32:03.278307,599630753312681104,-93.00
2025-12-24 16:32:03.278307,599630753312681104,-107.00
2025-12-24 16:32:03.278307,599630753312681104,-121.00
2025-12-24 16:32:03.278307,599630753312681104,-126.00
2025-12-24 16:32:03.278307,599630753312681104,-112.00
2025-12-24 16:32:03.278307,599630753312681104,-98.00
2025-12-24 16:32:03.278307,599630753312681104,-102.00
2025-12-24 16:32:03.278307,599630753312681104,-112.00
2025-12-24 16:32:03.278307,599630753312681104,-109.00
2025-12-24 16:32:03.278307,599630753312681104,-109.00
2025-12-24 16:32:03.278307,599630753312681104,-98.00
2025-12-24 16:32:03.278307,599630753312681104,-16.00
2025-12-24 16:32:03.278307,599630753312681104,224.00
2025-12-24 16:32:03.278307,599630753312681104,583.00
2025-12-24 16:32:03.278307,599630753312681104,674.00
2025-12-24 16:32:03.278307,599630753312681104,98.00
2025-12-24 16:32:03.278307,599630753312681104,-558.00
2025-12-24 16:32:03.278307,599630753312681104,-462.00
2025-12-24 16:32:03.278307,599630753312681104,-105.00
2025-12-24 16:32:03.278307,599630753312681104,-121.00
2025-12-24 16:32:03.278307,599630753312681104,-179.00
2025-12-24 16:32:03.278307,599630753312681104,-102.00
2025-12-24 16:32:03.278307,599630753312681104,-93.00
2025-12-24 16:32:03.278307,599630753312681104,-121.00
2025-12-24 16:32:03.278307,599630753312681104,-105.00
2025-12-24 16:32:03.278307,599630753312681104,-93.00
2025-12-24 16:32:03.278307,599630753312681104,-93.00
2025-12-24 16:32:03.278307,599630753312681104,-81.00
2025-12-24 16:32:03.278307,599630753312681104,-70.00
2025-12-24 16:32:03.278307,599630753312681104,-67.00
2025-12-24 16:32:03.278307,599630753312681104,-63.00
2025-12-24 16:32:03.278307,599630753312681104,-53.00
2025-12-24 16:32:03.278307,599630753312681104,-32.00
2025-12-24 16:32:03.278307,599630753312681104,-14.00
2025-12-24 16:32:03.278307,599630753312681104,-2.00
2025-12-24 16:32:03.278307,599630753312681104,4.00
2025-12-24 16:32:03.278307,599630753312681104,18.00
2025-12-24 16:32:03.278307,599630753312681104,32.00
2025-12-24 16:32:03.278307,599630753312681104,49.00
2025-12-24 16:32:03.278307,599630753312681104,72.00
2025-12-24 16:32:03.278307,599630753312681104,88.00
2025-12-24 16:32:03.278307,599630753312681104,105.00
2025-12-24 16:32:03.278307,599630753312681104,112.00
2025-12-24 16:32:03.278307,599630753312681104,112.00
2025-12-24 16:32:03.278307,599630753312681104,109.00
2025-12-24 16:32:03.278307,599630753312681104,95.00
2025-12-24 16:32:03.278307,599630753312681104,58.00
2025-12-24 16:32:03.278307,599630753312681104,2.00
2025-12-24 16:32:03.278307,599630753312681104,-56.00
2025-12-24 16:32:03.278307,599630753312681104,-116.00
2025-12-24 16:32:03.278307,599630753312681104,-172.00
2025-12-24 16:32:03.278307,599630753312681104,-207.00
2025-12-24 16:32:03.278307,599630753312681104,-233.00
2025-12-24 16:32:03.278307,599630753312681104,-252.00
2025-12-24 16:32:03.278307,599630753312681104,-254.00
2025-12-24 16:32:03.278307,599630753312681104,-254.00
2025-12-24 16:32:03.278307,599630753312681104,-252.00
2025-12-24 16:32:03.278307,599630753312681104,-240.00
2025-12-24 16:32:03.278307,599630753312681104,-231.00
2025-12-24 16:32:03.278307,599630753312681104,-231.00
2025-12-24 16:32:03.278307,599630753312681104,-224.00
2025-12-24 16:32:03.278307,599630753312681104,-214.00
2025-12-24 16:32:03.278307,599630753312681104,-210.00
2025-12-24 16:32:03.278307,599630753312681104,-203.00
2025-12-24 16:32:03.278307,599630753312681104,-198.00
2025-12-24 16:32:03.278307,599630753312681104,-200.00
2025-12-24 16:32:03.930262,599630753873535823,-193.00
2025-12-24 16:32:03.930262,599630753873535823,-184.00
2025-12-24 16:32:03.930262,599630753873535823,-177.00
2025-12-24 16:32:03.930262,599630753873535823,-168.00
2025-12-24 16:32:03.930262,599630753873535823,-170.00
2025-12-24 16:32:03.930262,599630753873535823,-172.00
2025-12-24 16:32:03.930262,599630753873535823,-170.00
2025-12-24 16:32:03.930262,599630753873535823,-163.00
2025-12-24 16:32:03.930262,599630753873535823,-154.00
2025-12-24 16:32:03.930262,599630753873535823,-140.00
2025-12-24 16:32:03.930262,599630753873535823,-142.00
2025-12-24 16:32:03.930262,599630753873535823,-149.00
2025-12-24 16:32:03.930262,599630753873535823,-147.00
2025-12-24 16:32:03.930262,599630753873535823,-142.00
2025-12-24 16:32:03.930262,599630753873535823,-140.00
2025-12-24 16:32:03.930262,599630753873535823,-135.00
2025-12-24 16:32:03.930262,599630753873535823,-135.00
2025-12-24 16:32:03.930262,599630753873535823,-135.00
2025-12-24 16:32:03.930262,599630753873535823,-135.00
2025-12-24 16:32:03.930262,599630753873535823,-140.00
2025-12-24 16:32:03.930262,599630753873535823,-142.00
2025-12-24 16:32:03.930262,599630753873535823,-137.00
2025-12-24 16:32:03.930262,599630753873535823,-140.00
2025-12-24 16:32:03.930262,599630753873535823,-137.00
2025-12-24 16:32:03.930262,599630753873535823,-119.00
2025-12-24 16:32:03.930262,599630753873535823,-114.00
2025-12-24 16:32:03.930262,599630753873535823,-137.00
2025-12-24 16:32:03.930262,599630753873535823,-158.00
2025-12-24 16:32:03.930262,599630753873535823,-149.00
2025-12-24 16:32:03.930262,599630753873535823,-140.00
2025-12-24 16:32:03.930262,599630753873535823,-147.00
2025-12-24 16:32:03.930262,599630753873535823,-147.00
2025-12-24 16:32:03.930262,599630753873535823,-133.00
2025-12-24 16:32:03.930262,599630753873535823,-121.00
2025-12-24 16:32:03.930262,599630753873535823,-123.00
2025-12-24 16:32:03.930262,599630753873535823,-107.00
2025-12-24 16:32:03.930262,599630753873535823,25.00
2025-12-24 16:32:03.930262,599630753873535823,355.00
2025-12-24 16:32:03.930262,599630753873535823,698.00
2025-12-24 16:32:03.930262,599630753873535823,520.00
2025-12-24 16:32:03.930262,599630753873535823,-254.00
2025-12-24 16:32:03.930262,599630753873535823,-658.00
2025-12-24 16:32:03.930262,599630753873535823,-322.00
2025-12-24 16:32:03.930262,599630753873535823,-107.00
2025-12-24 16:32:03.930262,599630753873535823,-196.00
2025-12-24 16:32:03.930262,599630753873535823,-161.00
2025-12-24 16:32:03.930262,599630753873535823,-100.00
2025-12-24 16:32:03.930262,599630753873535823,-126.00
2025-12-24 16:32:03.930262,599630753873535823,-123.00
2025-12-24 16:32:03.930262,599630753873535823,-98.00
2025-12-24 16:32:03.930262,599630753873535823,-100.00
2025-12-24 16:32:03.930262,599630753873535823,-105.00
2025-12-24 16:32:03.930262,599630753873535823,-93.00
2025-12-24 16:32:03.930262,599630753873535823,-81.00
2025-12-24 16:32:03.930262,599630753873535823,-72.00
2025-12-24 16:32:03.930262,599630753873535823,-60.00
2025-12-24 16:32:03.930262,599630753873535823,-49.00
2025-12-24 16:32:03.930262,599630753873535823,-39.00
2025-12-24 16:32:03.930262,599630753873535823,-30.00
2025-12-24 16:32:03.930262,599630753873535823,-16.00
2025-12-24 16:32:03.930262,599630753873535823,0.00
2025-12-24 16:32:03.930262,599630753873535823,11.00
2025-12-24 16:32:03.930262,599630753873535823,30.00
2025-12-24 16:32:03.930262,599630753873535823,58.00
2025-12-24 16:32:03.930262,599630753873535823,79.00
2025-12-24 16:32:03.930262,599630753873535823,102.00
2025-12-24 16:32:03.930262,599630753873535823,126.00
2025-12-24 16:32:03.930262,599630753873535823,135.00
2025-12-24 16:32:03.930262,599630753873535823,137.00
2025-12-24 16:32:03.930262,599630753873535823,130.00
2025-12-24 16:32:03.930262,599630753873535823,98.00
2025-12-24 16:32:03.930262,599630753873535823,37.00
2025-12-24 16:32:03.930262,599630753873535823,-39.00
2025-12-24 16:32:04.592210,599630754434390540,-121.00
2025-12-24 16:32:04.592210,599630754434390540,-189.00
2025-12-24 16:32:04.592210,599630754434390540,-233.00
2025-12-24 16:32:04.592210,599630754434390540,-263.00
2025-12-24 16:32:04.592210,599630754434390540,-282.00
2025-12-24 16:32:04.592210,599630754434390540,-287.00
2025-12-24 16:32:04.592210,599630754434390540,-282.00
2025-12-24 16:32:04.592210,599630754434390540,-280.00
2025-12-24 16:32:04.592210,599630754434390540,-277.00
2025-12-24 16:32:04.592210,599630754434390540,-275.00
2025-12-24 16:32:04.592210,599630754434390540,-268.00
2025-12-24 16:32:04.592210,599630754434390540,-249.00
2025-12-24 16:32:04.592210,599630754434390540,-228.00
2025-12-24 16:32:04.592210,599630754434390540,-221.00
2025-12-24 16:32:04.592210,599630754434390540,-221.00
2025-12-24 16:32:04.592210,599630754434390540,-214.00
2025-12-24 16:32:04.592210,599630754434390540,-205.00
2025-12-24 16:32:04.592210,599630754434390540,-198.00
2025-12-24 16:32:04.592210,599630754434390540,-186.00
2025-12-24 16:32:04.592210,599630754434390540,-179.00
2025-12-24 16:32:04.592210,599630754434390540,-175.00
2025-12-24 16:32:04.592210,599630754434390540,-165.00
2025-12-24 16:32:04.592210,599630754434390540,-161.00
2025-12-24 16:32:04.592210,599630754434390540,-156.00
2025-12-24 16:32:04.592210,599630754434390540,-144.00
2025-12-24 16:32:04.592210,599630754434390540,-140.00
2025-12-24 16:32:04.592210,599630754434390540,-142.00
2025-12-24 16:32:04.592210,599630754434390540,-144.00
2025-12-24 16:32:04.592210,599630754434390540,-142.00
2025-12-24 16:32:04.592210,599630754434390540,-142.00
2025-12-24 16:32:04.592210,599630754434390540,-144.00
2025-12-24 16:32:04.592210,599630754434390540,-140.00
2025-12-24 16:32:04.592210,599630754434390540,-137.00
2025-12-24 16:32:04.592210,599630754434390540,-135.00
2025-12-24 16:32:04.592210,599630754434390540,-133.00
2025-12-24 16:32:04.592210,599630754434390540,-130.00
2025-12-24 16:32:04.592210,599630754434390540,-130.00
2025-12-24 16:32:04.592210,599630754434390540,-135.00
2025-12-24 16:32:04.592210,599630754434390540,-142.00
2025-12-24 16:32:04.592210,599630754434390540,-135.00
2025-12-24 16:32:04.592210,599630754434390540,-114.00
2025-12-24 16:32:04.592210,599630754434390540,-112.00
2025-12-24 16:32:04.592210,599630754434390540,-133.00
2025-12-24 16:32:04.592210,599630754434390540,-137.00
2025-12-24 16:32:04.592210,599630754434390540,-128.00
2025-12-24 16:32:04.592210,599630754434390540,-123.00
2025-12-24 16:32:04.592210,599630754434390540,-119.00
2025-12-24 16:32:04.592210,599630754434390540,-114.00
2025-12-24 16:32:04.592210,599630754434390540,-116.00
2025-12-24 16:32:04.592210,599630754434390540,-116.00
2025-12-24 16:32:04.592210,599630754434390540,-107.00
2025-12-24 16:32:04.592210,599630754434390540,-49.00
2025-12-24 16:32:04.592210,599630754434390540,149.00
2025-12-24 16:32:04.592210,599630754434390540,520.00
2025-12-24 16:32:04.592210,599630754434390540,714.00
2025-12-24 16:32:04.592210,599630754434390540,186.00
2025-12-24 16:32:04.592210,599630754434390540,-593.00
2025-12-24 16:32:04.592210,599630754434390540,-600.00
2025-12-24 16:32:04.592210,599630754434390540,-177.00
2025-12-24 16:32:04.592210,599630754434390540,-126.00
2025-12-24 16:32:04.592210,599630754434390540,-168.00
2025-12-24 16:32:04.592210,599630754434390540,-67.00
2025-12-24 16:32:04.592210,599630754434390540,-51.00
2025-12-24 16:32:04.592210,599630754434390540,-81.00
2025-12-24 16:32:04.592210,599630754434390540,-58.00
2025-12-24 16:32:04.592210,599630754434390540,-42.00
2025-12-24 16:32:04.592210,599630754434390540,-42.00
2025-12-24 16:32:04.592210,599630754434390540,-28.00
2025-12-24 16:32:04.592210,599630754434390540,-18.00
2025-12-24 16:32:04.592210,599630754434390540,-16.00
2025-12-24 16:32:04.592210,599630754434390540,-9.00
2025-12-24 16:32:04.592210,599630754434390540,-2.00
2025-12-24 16:32:04.592210,599630754434390540,2.00
2025-12-24 16:32:05.000200,599630754995260517,11.00
2025-12-24 16:32:05.000200,599630754995260517,25.00
2025-12-24 16:32:05.000200,599630754995260517,37.00
2025-12-24 16:32:05.000200,599630754995260517,53.00
2025-12-24 16:32:05.000200,599630754995260517,77.00
2025-12-24 16:32:05.000200,599630754995260517,93.00
2025-12-24 16:32:05.000200,599630754995260517,112.00
2025-12-24 16:32:05.000200,599630754995260517,135.00
2025-12-24 16:32:05.000200,599630754995260517,158.00
2025-12-24 16:32:05.000200,599630754995260517,175.00
2025-12-24 16:32:05.000200,599630754995260517,179.00
2025-12-24 16:32:05.000200,599630754995260517,175.00
2025-12-24 16:32:05.000200,599630754995260517,156.00
2025-12-24 16:32:05.000200,599630754995260517,114.00
2025-12-24 16:32:05.000200,599630754995260517,44.00
2025-12-24 16:32:05.000200,599630754995260517,-35.00
2025-12-24 16:32:05.000200,599630754995260517,-107.00
2025-12-24 16:32:05.000200,599630754995260517,-163.00
2025-12-24 16:32:05.000200,599630754995260517,-200.00
2025-12-24 16:32:05.000200,599630754995260517,-224.00
2025-12-24 16:32:05.000200,599630754995260517,-231.00
2025-12-24 16:32:05.000200,599630754995260517,-226.00
2025-12-24 16:32:05.000200,599630754995260517,-224.00
2025-12-24 16:32:05.000200,599630754995260517,-226.00
2025-12-24 16:32:05.000200,599630754995260517,-228.00
2025-12-24 16:32:05.000200,599630754995260517,-224.00
2025-12-24 16:32:05.000200,599630754995260517,-207.00
2025-12-24 16:32:05.000200,599630754995260517,-191.00
2025-12-24 16:32:05.000200,599630754995260517,-189.00
2025-12-24 16:32:05.000200,599630754995260517,-191.00
2025-12-24 16:32:05.000200,599630754995260517,-189.00
2025-12-24 16:32:05.000200,599630754995260517,-179.00
2025-12-24 16:32:05.000200,599630754995260517,-172.00
2025-12-24 16:32:05.000200,599630754995260517,-170.00
2025-12-24 16:32:05.000200,599630754995260517,-170.00
2025-12-24 16:32:05.000200,599630754995260517,-168.00
2025-12-24 16:32:05.000200,599630754995260517,-163.00
2025-12-24 16:32:05.000200,599630754995260517,-161.00
2025-12-24 16:32:05.000200,599630754995260517,-161.00
2025-12-24 16:32:05.000200,599630754995260517,-163.00
2025-12-24 16:32:05.000200,599630754995260517,-165.00
2025-12-24 16:32:05.000200,599630754995260517,-170.00
2025-12-24 16:32:05.000200,599630754995260517,-172.00
2025-12-24 16:32:05.000200,599630754995260517,-175.00
2025-12-24 16:32:05.000200,599630754995260517,-175.00
2025-12-24 16:32:05.000200,599630754995260517,-172.00
2025-12-24 16:32:05.000200,599630754995260517,-170.00
2025-12-24 16:32:05.000200,599630754995260517,-168.00
2025-12-24 16:32:05.000200,599630754995260517,-168.00
2025-12-24 16:32:05.000200,599630754995260517,-170.00
2025-12-24 16:32:05.000200,599630754995260517,-168.00
2025-12-24 16:32:05.000200,599630754995260517,-165.00
2025-12-24 16:32:05.000200,599630754995260517,-170.00
2025-12-24 16:32:05.000200,599630754995260517,-170.00
2025-12-24 16:32:05.000200,599630754995260517,-168.00
2025-12-24 16:32:05.000200,599630754995260517,-163.00
2025-12-24 16:32:05.000200,599630754995260517,-156.00
2025-12-24 16:32:05.000200,599630754995260517,-161.00
2025-12-24 16:32:05.000200,599630754995260517,-168.00
2025-12-24 16:32:05.000200,599630754995260517,-165.00
2025-12-24 16:32:05.000200,599630754995260517,-154.00
2025-12-24 16:32:05.000200,599630754995260517,-140.00
2025-12-24 16:32:05.000200,599630754995260517,-144.00
2025-12-24 16:32:05.000200,599630754995260517,-168.00
2025-12-24 16:32:05.000200,599630754995260517,-177.00
2025-12-24 16:32:05.000200,599630754995260517,-163.00
2025-12-24 16:32:05.000200,599630754995260517,-158.00
2025-12-24 16:32:05.000200,599630754995260517,-168.00
2025-12-24 16:32:05.000200,599630754995260517,-161.00
2025-12-24 16:32:05.000200,599630754995260517,-151.00
2025-12-24 16:32:05.000200,599630754995260517,-156.00
2025-12-24 16:32:05.000200,599630754995260517,-151.00
2025-12-24 16:32:05.000200,599630754995260517,-81.00
2025-12-24 16:32:05.584857,599630755556110148,130.00
2025-12-24 16:32:05.584857,599630755556110148,511.00
2025-12-24 16:32:05.584857,599630755556110148,742.00
2025-12-24 16:32:05.584857,599630755556110148,298.00
2025-12-24 16:32:05.584857,599630755556110148,-488.00
2025-12-24 16:32:05.584857,599630755556110148,-597.00
2025-12-24 16:32:05.584857,599630755556110148,-189.00
2025-12-24 16:32:05.584857,599630755556110148,-114.00
2025-12-24 16:32:05.584857,599630755556110148,-210.00
2025-12-24 16:32:05.584857,599630755556110148,-135.00
2025-12-24 16:32:05.584857,599630755556110148,-95.00
2025-12-24 16:32:05.584857,599630755556110148,-116.00
2025-12-24 16:32:05.584857,599630755556110148,-86.00
2025-12-24 16:32:05.584857,599630755556110148,-58.00
2025-12-24 16:32:05.584857,599630755556110148,-72.00
2025-12-24 16:32:05.584857,599630755556110148,-77.00
2025-12-24 16:32:05.584857,599630755556110148,-63.00
2025-12-24 16:32:05.584857,599630755556110148,-53.00
2025-12-24 16:32:05.584857,599630755556110148,-44.00
2025-12-24 16:32:05.584857,599630755556110148,-32.00
2025-12-24 16:32:05.584857,599630755556110148,-18.00
2025-12-24 16:32:05.584857,599630755556110148,-4.00
2025-12-24 16:32:05.584857,599630755556110148,9.00
2025-12-24 16:32:05.584857,599630755556110148,21.00
2025-12-24 16:32:05.584857,599630755556110148,39.00
2025-12-24 16:32:05.584857,599630755556110148,63.00
2025-12-24 16:32:05.584857,599630755556110148,81.00
2025-12-24 16:32:05.584857,599630755556110148,98.00
2025-12-24 16:32:05.584857,599630755556110148,119.00
2025-12-24 16:32:05.584857,599630755556110148,142.00
2025-12-24 16:32:05.584857,599630755556110148,156.00
2025-12-24 16:32:05.584857,599630755556110148,158.00
2025-12-24 16:32:05.584857,599630755556110148,156.00
2025-12-24 16:32:05.584857,599630755556110148,142.00
2025-12-24 16:32:05.584857,599630755556110148,105.00
2025-12-24 16:32:05.584857,599630755556110148,46.00
2025-12-24 16:32:05.584857,599630755556110148,-25.00
2025-12-24 16:32:05.584857,599630755556110148,-91.00
2025-12-24 16:32:05.584857,599630755556110148,-142.00
2025-12-24 16:32:05.584857,599630755556110148,-179.00
2025-12-24 16:32:05.584857,599630755556110148,-205.00
2025-12-24 16:32:05.584857,599630755556110148,-214.00
2025-12-24 16:32:05.584857,599630755556110148,-212.00
2025-12-24 16:32:05.584857,599630755556110148,-214.00
2025-12-24 16:32:05.584857,599630755556110148,-217.00
2025-12-24 16:32:05.584857,599630755556110148,-217.00
2025-12-24 16:32:05.584857,599630755556110148,-212.00
2025-12-24 16:32:05.584857,599630755556110148,-203.00
2025-12-24 16:32:05.584857,599630755556110148,-196.00
2025-12-24 16:32:05.584857,599630755556110148,-196.00
2025-12-24 16:32:05.584857,599630755556110148,-189.00
2025-12-24 16:32:05.584857,599630755556110148,-179.00
2025-12-24 16:32:05.584857,599630755556110148,-179.00
2025-12-24 16:32:05.584857,599630755556110148,-177.00
2025-12-24 16:32:05.584857,599630755556110148,-170.00
2025-12-24 16:32:05.584857,599630755556110148,-165.00
2025-12-24 16:32:05.584857,599630755556110148,-163.00
2025-12-24 16:32:05.584857,599630755556110148,-161.00
2025-12-24 16:32:05.584857,599630755556110148,-158.00
2025-12-24 16:32:05.584857,599630755556110148,-154.00
2025-12-24 16:32:05.584857,599630755556110148,-147.00
2025-12-24 16:32:05.584857,599630755556110148,-144.00
2025-12-24 16:32:05.584857,599630755556110148,-144.00
2025-12-24 16:32:05.584857,599630755556110148,-147.00
2025-12-24 16:32:05.584857,599630755556110148,-147.00
2025-12-24 16:32:05.584857,599630755556110148,-144.00
2025-12-24 16:32:05.584857,599630755556110148,-140.00
2025-12-24 16:32:05.584857,599630755556110148,-142.00
2025-12-24 16:32:05.584857,599630755556110148,-147.00
2025-12-24 16:32:05.584857,599630755556110148,-144.00
2025-12-24 16:32:05.584857,599630755556110148,-140.00
2025-12-24 16:32:05.584857,599630755556110148,-135.00
2025-12-24 16:32:05.584857,599630755556110148,-137.00
2025-12-24 16:32:06.066703,599630756116985209,-144.00
2025-12-24 16:32:06.066703,599630756116985209,-147.00
2025-12-24 16:32:06.066703,599630756116985209,-142.00
2025-12-24 16:32:06.066703,599630756116985209,-137.00
2025-12-24 16:32:06.066703,599630756116985209,-128.00
2025-12-24 16:32:06.066703,599630756116985209,-123.00
2025-12-24 16:32:06.066703,599630756116985209,-121.00
2025-12-24 16:32:06.066703,599630756116985209,-123.00
2025-12-24 16:32:06.066703,599630756116985209,-116.00
2025-12-24 16:32:06.066703,599630756116985209,-102.00
2025-12-24 16:32:06.066703,599630756116985209,-95.00
2025-12-24 16:32:06.066703,599630756116985209,-102.00
2025-12-24 16:32:06.066703,599630756116985209,-107.00
2025-12-24 16:32:06.066703,599630756116985209,-107.00
2025-12-24 16:32:06.066703,599630756116985209,-93.00
2025-12-24 16:32:06.066703,599630756116985209,-77.00
2025-12-24 16:32:06.066703,599630756116985209,-81.00
2025-12-24 16:32:06.066703,599630756116985209,-100.00
2025-12-24 16:32:06.066703,599630756116985209,-109.00
2025-12-24 16:32:06.066703,599630756116985209,-107.00
2025-12-24 16:32:06.066703,599630756116985209,-105.00
2025-12-24 16:32:06.066703,599630756116985209,-105.00
2025-12-24 16:32:06.066703,599630756116985209,-102.00
2025-12-24 16:32:06.066703,599630756116985209,-102.00
2025-12-24 16:32:06.066703,599630756116985209,-102.00
2025-12-24 16:32:06.066703,599630756116985209,-95.00
2025-12-24 16:32:06.066703,599630756116985209,-35.00
2025-12-24 16:32:06.066703,599630756116985209,161.00
2025-12-24 16:32:06.066703,599630756116985209,527.00
2025-12-24 16:32:06.066703,599630756116985209,773.00
2025-12-24 16:32:06.066703,599630756116985209,369.00
2025-12-24 16:32:06.066703,599630756116985209,-413.00
2025-12-24 16:32:06.066703,599630756116985209,-569.00
2025-12-24 16:32:06.066703,599630756116985209,-172.00
2025-12-24 16:32:06.066703,599630756116985209,-77.00
2025-12-24 16:32:06.066703,599630756116985209,-170.00
2025-12-24 16:32:06.066703,599630756116985209,-107.00
2025-12-24 16:32:06.066703,599630756116985209,-65.00
2025-12-24 16:32:06.066703,599630756116985209,-98.00
2025-12-24 16:32:06.066703,599630756116985209,-88.00
2025-12-24 16:32:06.066703,599630756116985209,-65.00
2025-12-24 16:32:06.066703,599630756116985209,-70.00
2025-12-24 16:32:06.066703,599630756116985209,-70.00
2025-12-24 16:32:06.066703,599630756116985209,-56.00
2025-12-24 16:32:06.066703,599630756116985209,-46.00
2025-12-24 16:32:06.066703,599630756116985209,-37.00
2025-12-24 16:32:06.066703,599630756116985209,-25.00
2025-12-24 16:32:06.066703,599630756116985209,-14.00
2025-12-24 16:32:06.066703,599630756116985209,-7.00
2025-12-24 16:32:06.066703,599630756116985209,7.00
2025-12-24 16:32:06.066703,599630756116985209,23.00
2025-12-24 16:32:06.066703,599630756116985209,35.00
2025-12-24 16:32:06.066703,599630756116985209,44.00
2025-12-24 16:32:06.066703,599630756116985209,60.00
2025-12-24 16:32:06.066703,599630756116985209,77.00
2025-12-24 16:32:06.066703,599630756116985209,95.00
2025-12-24 16:32:06.066703,599630756116985209,119.00
2025-12-24 16:32:06.066703,599630756116985209,130.00
2025-12-24 16:32:06.066703,599630756116985209,130.00
2025-12-24 16:32:06.066703,599630756116985209,130.00
2025-12-24 16:32:06.066703,599630756116985209,123.00
2025-12-24 16:32:06.066703,599630756116985209,98.00
2025-12-24 16:32:06.066703,599630756116985209,49.00
2025-12-24 16:32:06.066703,599630756116985209,-18.00
2025-12-24 16:32:06.066703,599630756116985209,-88.00
2025-12-24 16:32:06.066703,599630756116985209,-140.00
2025-12-24 16:32:06.066703,599630756116985209,-175.00
2025-12-24 16:32:06.066703,599630756116985209,-203.00
2025-12-24 16:32:06.066703,599630756116985209,-212.00
2025-12-24 16:32:06.066703,599630756116985209,-207.00
2025-12-24 16:32:06.066703,599630756116985209,-205.00
2025-12-24 16:32:06.066703,599630756116985209,-205.00
2025-12-24 16:32:06.066703,599630756116985209,-203.00
2025-12-24 16:32:06.614389,599630756677809410,-200.00
2025-12-24 16:32:06.614389,599630756677809410,-191.00
2025-12-24 16:32:06.614389,599630756677809410,-186.00
2025-12-24 16:32:06.614389,599630756677809410,-184.00
2025-12-24 16:32:06.614389,599630756677809410,-179.00
2025-12-24 16:32:06.614389,599630756677809410,-175.00
2025-12-24 16:32:06.614389,599630756677809410,-165.00
2025-12-24 16:32:06.614389,599630756677809410,-154.00
2025-12-24 16:32:06.614389,599630756677809410,-149.00
2025-12-24 16:32:06.614389,599630756677809410,-151.00
2025-12-24 16:32:06.614389,599630756677809410,-147.00
2025-12-24 16:32:06.614389,599630756677809410,-144.00
2025-12-24 16:32:06.614389,599630756677809410,-144.00
2025-12-24 16:32:06.614389,599630756677809410,-147.00
2025-12-24 16:32:06.614389,599630756677809410,-144.00
2025-12-24 16:32:06.614389,599630756677809410,-147.00
2025-12-24 16:32:06.614389,599630756677809410,-151.00
2025-12-24 16:32:06.614389,599630756677809410,-147.00
2025-12-24 16:32:06.614389,599630756677809410,-147.00
2025-12-24 16:32:06.614389,599630756677809410,-151.00
2025-12-24 16:32:06.614389,599630756677809410,-149.00
2025-12-24 16:32:06.614389,599630756677809410,-142.00
2025-12-24 16:32:06.614389,599630756677809410,-147.00
2025-12-24 16:32:06.614389,599630756677809410,-149.00
2025-12-24 16:32:06.614389,599630756677809410,-144.00
2025-12-24 16:32:06.614389,599630756677809410,-144.00
2025-12-24 16:32:06.614389,599630756677809410,-149.00
2025-12-24 16:32:06.614389,599630756677809410,-149.00
2025-12-24 16:32:06.614389,599630756677809410,-149.00
2025-12-24 16:32:06.614389,599630756677809410,-151.00
2025-12-24 16:32:06.614389,599630756677809410,-149.00
2025-12-24 16:32:06.614389,599630756677809410,-144.00
2025-12-24 16:32:06.614389,599630756677809410,-147.00
2025-12-24 16:32:06.614389,599630756677809410,-151.00
2025-12-24 16:32:06.614389,599630756677809410,-151.00
2025-12-24 16:32:06.614389,599630756677809410,-149.00
2025-12-24 16:32:06.614389,599630756677809410,-144.00
2025-12-24 16:32:06.614389,599630756677809410,-142.00
2025-12-24 16:32:06.614389,599630756677809410,-147.00
2025-12-24 16:32:06.614389,599630756677809410,-149.00
2025-12-24 16:32:06.614389,599630756677809410,-144.00
2025-12-24 16:32:06.614389,599630756677809410,-144.00
2025-12-24 16:32:06.614389,599630756677809410,-147.00
2025-12-24 16:32:06.614389,599630756677809410,-147.00
2025-12-24 16:32:06.614389,599630756677809410,-144.00
2025-12-24 16:32:06.614389,599630756677809410,-144.00
2025-12-24 16:32:06.614389,599630756677809410,-144.00
2025-12-24 16:32:06.614389,599630756677809410,-137.00
2025-12-24 16:32:06.614389,599630756677809410,-133.00
2025-12-24 16:32:06.614389,599630756677809410,-135.00
2025-12-24 16:32:06.614389,599630756677809410,-142.00
2025-12-24 16:32:06.614389,599630756677809410,-137.00
2025-12-24 16:32:06.614389,599630756677809410,-128.00
2025-12-24 16:32:06.614389,599630756677809410,-126.00
2025-12-24 16:32:06.614389,599630756677809410,-119.00
2025-12-24 16:32:06.614389,599630756677809410,-107.00
2025-12-24 16:32:06.614389,599630756677809410,-109.00
2025-12-24 16:32:06.614389,599630756677809410,-130.00
2025-12-24 16:32:06.614389,599630756677809410,-142.00
2025-12-24 16:32:06.614389,599630756677809410,-137.00
2025-12-24 16:32:06.614389,599630756677809410,-130.00
2025-12-24 16:32:06.614389,599630756677809410,-128.00
2025-12-24 16:32:06.614389,599630756677809410,-119.00
2025-12-24 16:32:06.614389,599630756677809410,-114.00
2025-12-24 16:32:06.614389,599630756677809410,-114.00
2025-12-24 16:32:06.614389,599630756677809410,-105.00
2025-12-24 16:32:06.614389,599630756677809410,-30.00
2025-12-24 16:32:06.614389,599630756677809410,186.00
2025-12-24 16:32:06.614389,599630756677809410,551.00
2025-12-24 16:32:06.614389,599630756677809410,721.00
2025-12-24 16:32:06.614389,599630756677809410,226.00
2025-12-24 16:32:06.614389,599630756677809410,-485.00
2025-12-24 16:32:06.614389,599630756677809410,-495.00
2025-12-24 16:32:07.249670,599630757238664129,-128.00
2025-12-24 16:32:07.249670,599630757238664129,-102.00
2025-12-24 16:32:07.249670,599630757238664129,-170.00
2025-12-24 16:32:07.249670,599630757238664129,-93.00
2025-12-24 16:32:07.249670,599630757238664129,-65.00
2025-12-24 16:32:07.249670,599630757238664129,-91.00
2025-12-24 16:32:07.249670,599630757238664129,-74.00
2025-12-24 16:32:07.249670,599630757238664129,-58.00
2025-12-24 16:32:07.249670,599630757238664129,-65.00
2025-12-24 16:32:07.249670,599630757238664129,-51.00
2025-12-24 16:32:07.249670,599630757238664129,-32.00
2025-12-24 16:32:07.249670,599630757238664129,-30.00
2025-12-24 16:32:07.249670,599630757238664129,-21.00
2025-12-24 16:32:07.249670,599630757238664129,-4.00
2025-12-24 16:32:07.249670,599630757238664129,2.00
2025-12-24 16:32:07.249670,599630757238664129,14.00
2025-12-24 16:32:07.249670,599630757238664129,28.00
2025-12-24 16:32:07.249670,599630757238664129,39.00
2025-12-24 16:32:07.249670,599630757238664129,46.00
2025-12-24 16:32:07.249670,599630757238664129,60.00
2025-12-24 16:32:07.249670,599630757238664129,79.00
2025-12-24 16:32:07.249670,599630757238664129,93.00
2025-12-24 16:32:07.249670,599630757238664129,105.00
2025-12-24 16:32:07.249670,599630757238664129,119.00
2025-12-24 16:32:07.249670,599630757238664129,130.00
2025-12-24 16:32:07.249670,599630757238664129,135.00
2025-12-24 16:32:07.249670,599630757238664129,135.00
2025-12-24 16:32:07.249670,599630757238664129,126.00
2025-12-24 16:32:07.249670,599630757238664129,100.00
2025-12-24 16:32:07.249670,599630757238664129,63.00
2025-12-24 16:32:07.249670,599630757238664129,7.00
2025-12-24 16:32:07.249670,599630757238664129,-63.00
2025-12-24 16:32:07.249670,599630757238664129,-116.00
2025-12-24 16:32:07.249670,599630757238664129,-142.00
2025-12-24 16:32:07.249670,599630757238664129,-172.00
2025-12-24 16:32:07.249670,599630757238664129,-193.00
2025-12-24 16:32:07.249670,599630757238664129,-200.00
2025-12-24 16:32:07.249670,599630757238664129,-200.00
2025-12-24 16:32:07.249670,599630757238664129,-200.00
2025-12-24 16:32:07.249670,599630757238664129,-193.00
2025-12-24 16:32:07.249670,599630757238664129,-184.00
2025-12-24 16:32:07.249670,599630757238664129,-179.00
2025-12-24 16:32:07.249670,599630757238664129,-179.00
2025-12-24 16:32:07.249670,599630757238664129,-172.00
2025-12-24 16:32:07.249670,599630757238664129,-161.00
2025-12-24 16:32:07.249670,599630757238664129,-154.00
2025-12-24 16:32:07.249670,599630757238664129,-154.00
2025-12-24 16:32:07.249670,599630757238664129,-151.00
2025-12-24 16:32:07.249670,599630757238664129,-142.00
2025-12-24 16:32:07.249670,599630757238664129,-133.00
2025-12-24 16:32:07.249670,599630757238664129,-130.00
2025-12-24 16:32:07.249670,599630757238664129,-133.00
2025-12-24 16:32:07.249670,599630757238664129,-133.00
2025-12-24 16:32:07.249670,599630757238664129,-128.00
2025-12-24 16:32:07.249670,599630757238664129,-123.00
2025-12-24 16:32:07.249670,599630757238664129,-121.00
2025-12-24 16:32:07.249670,599630757238664129,-116.00
2025-12-24 16:32:07.249670,599630757238664129,-116.00
2025-12-24 16:32:07.249670,599630757238664129,-119.00
2025-12-24 16:32:07.249670,599630757238664129,-116.00
2025-12-24 16:32:07.249670,599630757238664129,-119.00
2025-12-24 16:32:07.249670,599630757238664129,-123.00
2025-12-24 16:32:07.249670,599630757238664129,-123.00
2025-12-24 16:32:07.249670,599630757238664129,-121.00
2025-12-24 16:32:07.249670,599630757238664129,-123.00
2025-12-24 16:32:07.249670,599630757238664129,-126.00
2025-12-24 16:32:07.249670,599630757238664129,-128.00
2025-12-24 16:32:07.249670,599630757238664129,-128.00
2025-12-24 16:32:07.249670,599630757238664129,-126.00
2025-12-24 16:32:07.249670,599630757238664129,-123.00
2025-12-24 16:32:07.249670,599630757238664129,-121.00
2025-12-24 16:32:07.249670,599630757238664129,-121.00
2025-12-24 16:32:07.249670,599630757238664129,-123.00
2025-12-24 16:32:07.811003,599630757799539192,-128.00
2025-12-24 16:32:07.811003,599630757799539192,-121.00
2025-12-24 16:32:07.811003,599630757799539192,-109.00
2025-12-24 16:32:07.811003,599630757799539192,-112.00
2025-12-24 16:32:07.811003,599630757799539192,-114.00
2025-12-24 16:32:07.811003,599630757799539192,-109.00
2025-12-24 16:32:07.811003,599630757799539192,-109.00
2025-12-24 16:32:07.811003,599630757799539192,-109.00
2025-12-24 16:32:07.811003,599630757799539192,-107.00
2025-12-24 16:32:07.811003,599630757799539192,-102.00
2025-12-24 16:32:07.811003,599630757799539192,-102.00
2025-12-24 16:32:07.811003,599630757799539192,-107.00
2025-12-24 16:32:07.811003,599630757799539192,-100.00
2025-12-24 16:32:07.811003,599630757799539192,-72.00
2025-12-24 16:32:07.811003,599630757799539192,-65.00
2025-12-24 16:32:07.811003,599630757799539192,-79.00
2025-12-24 16:32:07.811003,599630757799539192,-77.00
2025-12-24 16:32:07.811003,599630757799539192,-70.00
2025-12-24 16:32:07.811003,599630757799539192,-74.00
2025-12-24 16:32:07.811003,599630757799539192,-67.00
2025-12-24 16:32:07.811003,599630757799539192,-58.00
2025-12-24 16:32:07.811003,599630757799539192,-67.00
2025-12-24 16:32:07.811003,599630757799539192,-77.00
2025-12-24 16:32:07.811003,599630757799539192,-81.00
2025-12-24 16:32:07.811003,599630757799539192,-79.00
2025-12-24 16:32:07.811003,599630757799539192,-63.00
2025-12-24 16:32:07.811003,599630757799539192,-49.00
2025-12-24 16:32:07.811003,599630757799539192,-65.00
2025-12-24 16:32:07.811003,599630757799539192,-86.00
2025-12-24 16:32:07.811003,599630757799539192,-84.00
2025-12-24 16:32:07.811003,599630757799539192,-77.00
2025-12-24 16:32:07.811003,599630757799539192,-74.00
2025-12-24 16:32:07.811003,599630757799539192,-72.00
2025-12-24 16:32:07.811003,599630757799539192,-70.00
2025-12-24 16:32:07.811003,599630757799539192,-74.00
2025-12-24 16:32:07.811003,599630757799539192,-72.00
2025-12-24 16:32:07.811003,599630757799539192,-35.00
2025-12-24 16:32:07.811003,599630757799539192,107.00
2025-12-24 16:32:07.811003,599630757799539192,415.00
2025-12-24 16:32:07.811003,599630757799539192,724.00
2025-12-24 16:32:07.811003,599630757799539192,539.00
2025-12-24 16:32:07.811003,599630757799539192,-186.00
2025-12-24 16:32:07.811003,599630757799539192,-560.00
2025-12-24 16:32:07.811003,599630757799539192,-245.00
2025-12-24 16:32:07.811003,599630757799539192,-46.00
2025-12-24 16:32:07.811003,599630757799539192,-144.00
2025-12-24 16:32:07.811003,599630757799539192,-116.00
2025-12-24 16:32:07.811003,599630757799539192,-44.00
2025-12-24 16:32:07.811003,599630757799539192,-70.00
2025-12-24 16:32:07.811003,599630757799539192,-79.00
2025-12-24 16:32:07.811003,599630757799539192,-44.00
2025-12-24 16:32:07.811003,599630757799539192,-39.00
2025-12-24 16:32:07.811003,599630757799539192,-56.00
2025-12-24 16:32:07.811003,599630757799539192,-51.00
2025-12-24 16:32:07.811003,599630757799539192,-32.00
2025-12-24 16:32:07.811003,599630757799539192,-25.00
2025-12-24 16:32:07.811003,599630757799539192,-23.00
2025-12-24 16:32:07.811003,599630757799539192,-21.00
2025-12-24 16:32:07.811003,599630757799539192,-18.00
2025-12-24 16:32:07.811003,599630757799539192,-7.00
2025-12-24 16:32:07.811003,599630757799539192,4.00
2025-12-24 16:32:07.811003,599630757799539192,18.00
2025-12-24 16:32:07.811003,599630757799539192,32.00
2025-12-24 16:32:07.811003,599630757799539192,44.00
2025-12-24 16:32:07.811003,599630757799539192,56.00
2025-12-24 16:32:07.811003,599630757799539192,70.00
2025-12-24 16:32:07.811003,599630757799539192,84.00
2025-12-24 16:32:07.811003,599630757799539192,95.00
2025-12-24 16:32:07.811003,599630757799539192,105.00
2025-12-24 16:32:07.811003,599630757799539192,105.00
2025-12-24 16:32:07.811003,599630757799539192,93.00
2025-12-24 16:32:07.811003,599630757799539192,79.00
2025-12-24 16:32:07.811003,599630757799539192,51.00
2025-12-24 16:32:08.298899,599630758360388823,-7.00
2025-12-24 16:32:08.298899,599630758360388823,-67.00
2025-12-24 16:32:08.298899,599630758360388823,-116.00
2025-12-24 16:32:08.298899,599630758360388823,-161.00
2025-12-24 16:32:08.298899,599630758360388823,-196.00
2025-12-24 16:32:08.298899,599630758360388823,-217.00
2025-12-24 16:32:08.298899,599630758360388823,-226.00
2025-12-24 16:32:08.298899,599630758360388823,-231.00
2025-12-24 16:32:08.298899,599630758360388823,-231.00
2025-12-24 16:32:08.298899,599630758360388823,-221.00
2025-12-24 16:32:08.298899,599630758360388823,-212.00
2025-12-24 16:32:08.298899,599630758360388823,-212.00
2025-12-24 16:32:08.298899,599630758360388823,-212.00
2025-12-24 16:32:08.298899,599630758360388823,-196.00
2025-12-24 16:32:08.298899,599630758360388823,-186.00
2025-12-24 16:32:08.298899,599630758360388823,-191.00
2025-12-24 16:32:08.298899,599630758360388823,-182.00
2025-12-24 16:32:08.298899,599630758360388823,-179.00
2025-12-24 16:32:08.298899,599630758360388823,-182.00
2025-12-24 16:32:08.298899,599630758360388823,-172.00
2025-12-24 16:32:08.298899,599630758360388823,-165.00
2025-12-24 16:32:08.298899,599630758360388823,-172.00
2025-12-24 16:32:08.298899,599630758360388823,-172.00
2025-12-24 16:32:08.298899,599630758360388823,-172.00
2025-12-24 16:32:08.298899,599630758360388823,-170.00
2025-12-24 16:32:08.298899,599630758360388823,-168.00
2025-12-24 16:32:08.298899,599630758360388823,-168.00
2025-12-24 16:32:08.298899,599630758360388823,-165.00
2025-12-24 16:32:08.298899,599630758360388823,-161.00
2025-12-24 16:32:08.298899,599630758360388823,-158.00
2025-12-24 16:32:08.298899,599630758360388823,-161.00
2025-12-24 16:32:08.298899,599630758360388823,-163.00
2025-12-24 16:32:08.298899,599630758360388823,-165.00
2025-12-24 16:32:08.298899,599630758360388823,-163.00
2025-12-24 16:32:08.298899,599630758360388823,-151.00
2025-12-24 16:32:08.298899,599630758360388823,-151.00
2025-12-24 16:32:08.298899,599630758360388823,-163.00
2025-12-24 16:32:08.298899,599630758360388823,-158.00
2025-12-24 16:32:08.298899,599630758360388823,-156.00
2025-12-24 16:32:08.298899,599630758360388823,-156.00
2025-12-24 16:32:08.298899,599630758360388823,-151.00
2025-12-24 16:32:08.298899,599630758360388823,-144.00
2025-12-24 16:32:08.298899,599630758360388823,-144.00
2025-12-24 16:32:08.298899,599630758360388823,-149.00
2025-12-24 16:32:08.298899,599630758360388823,-149.00
2025-12-24 16:32:08.298899,599630758360388823,-142.00
2025-12-24 16:32:08.298899,599630758360388823,-135.00
2025-12-24 16:32:08.298899,599630758360388823,-133.00
2025-12-24 16:32:08.298899,599630758360388823,-130.00
2025-12-24 16:32:08.298899,599630758360388823,-128.00
2025-12-24 16:32:08.298899,599630758360388823,-128.00
2025-12-24 16:32:08.298899,599630758360388823,-130.00
2025-12-24 16:32:08.298899,599630758360388823,-130.00
2025-12-24 16:32:08.298899,599630758360388823,-135.00
2025-12-24 16:32:08.298899,599630758360388823,-142.00
2025-12-24 16:32:08.298899,599630758360388823,-135.00
2025-12-24 16:32:08.298899,599630758360388823,-126.00
2025-12-24 16:32:08.298899,599630758360388823,-126.00
2025-12-24 16:32:08.298899,599630758360388823,-121.00
2025-12-24 16:32:08.298899,599630758360388823,-116.00
2025-12-24 16:32:08.298899,599630758360388823,-121.00
2025-12-24 16:32:08.298899,599630758360388823,-123.00
2025-12-24 16:32:08.298899,599630758360388823,-123.00
2025-12-24 16:32:08.298899,599630758360388823,-119.00
2025-12-24 16:32:08.298899,599630758360388823,-107.00
2025-12-24 16:32:08.298899,599630758360388823,-109.00
2025-12-24 16:32:08.298899,599630758360388823,-133.00
2025-12-24 16:32:08.298899,599630758360388823,-149.00
2025-12-24 16:32:08.298899,599630758360388823,-142.00
2025-12-24 16:32:08.298899,599630758360388823,-133.00
2025-12-24 16:32:08.298899,599630758360388823,-135.00
2025-12-24 16:32:08.298899,599630758360388823,-135.00
2025-12-24 16:32:08.298899,599630758360388823,-130.00
2025-12-24 16:32:08.984444,599630758921238454,-133.00
2025-12-24 16:32:08.984444,599630758921238454,-126.00
2025-12-24 16:32:08.984444,599630758921238454,-60.00
2025-12-24 16:32:08.984444,599630758921238454,128.00
2025-12-24 16:32:08.984444,599630758921238454,455.00
2025-12-24 16:32:08.984444,599630758921238454,632.00
2025-12-24 16:32:08.984444,599630758921238454,193.00
2025-12-24 16:32:08.984444,599630758921238454,-506.00
2025-12-24 16:32:08.984444,599630758921238454,-560.00
2025-12-24 16:32:08.984444,599630758921238454,-182.00
2025-12-24 16:32:08.984444,599630758921238454,-109.00
2025-12-24 16:32:08.984444,599630758921238454,-179.00
2025-12-24 16:32:08.984444,599630758921238454,-119.00
2025-12-24 16:32:08.984444,599630758921238454,-93.00
2025-12-24 16:32:08.984444,599630758921238454,-121.00
2025-12-24 16:32:08.984444,599630758921238454,-107.00
2025-12-24 16:32:08.984444,599630758921238454,-86.00
2025-12-24 16:32:08.984444,599630758921238454,-86.00
2025-12-24 16:32:08.984444,599630758921238454,-81.00
2025-12-24 16:32:08.984444,599630758921238454,-74.00
2025-12-24 16:32:08.984444,599630758921238454,-70.00
2025-12-24 16:32:08.984444,599630758921238454,-58.00
2025-12-24 16:32:08.984444,599630758921238454,-46.00
2025-12-24 16:32:08.984444,599630758921238454,-39.00
2025-12-24 16:32:08.984444,599630758921238454,-32.00
2025-12-24 16:32:08.984444,599630758921238454,-16.00
2025-12-24 16:32:08.984444,599630758921238454,-9.00
2025-12-24 16:32:08.984444,599630758921238454,-4.00
2025-12-24 16:32:08.984444,599630758921238454,7.00
2025-12-24 16:32:08.984444,599630758921238454,21.00
2025-12-24 16:32:08.984444,599630758921238454,35.00
2025-12-24 16:32:08.984444,599630758921238454,51.00
2025-12-24 16:32:08.984444,599630758921238454,67.00
2025-12-24 16:32:08.984444,599630758921238454,77.00
2025-12-24 16:32:08.984444,599630758921238454,79.00
2025-12-24 16:32:08.984444,599630758921238454,77.00
2025-12-24 16:32:08.984444,599630758921238454,67.00
2025-12-24 16:32:08.984444,599630758921238454,46.00
2025-12-24 16:32:08.984444,599630758921238454,4.00
2025-12-24 16:32:08.984444,599630758921238454,-56.00
2025-12-24 16:32:08.984444,599630758921238454,-121.00
2025-12-24 16:32:08.984444,599630758921238454,-182.00
2025-12-24 16:32:08.984444,599630758921238454,-219.00
2025-12-24 16:32:08.984444,599630758921238454,-240.00
2025-12-24 16:32:08.984444,599630758921238454,-259.00
2025-12-24 16:32:08.984444,599630758921238454,-268.00
2025-12-24 16:32:08.984444,599630758921238454,-268.00
2025-12-24 16:32:08.984444,599630758921238454,-268.00
2025-12-24 16:32:08.984444,599630758921238454,-263.00
2025-12-24 16:32:08.984444,599630758921238454,-249.00
2025-12-24 16:32:08.984444,599630758921238454,-242.00
2025-12-24 16:32:08.984444,599630758921238454,-245.00
2025-12-24 16:32:08.984444,599630758921238454,-238.00
2025-12-24 16:32:08.984444,599630758921238454,-231.00
2025-12-24 16:32:08.984444,599630758921238454,-224.00
2025-12-24 16:32:08.984444,599630758921238454,-217.00
2025-12-24 16:32:08.984444,599630758921238454,-212.00
2025-12-24 16:32:08.984444,599630758921238454,-207.00
2025-12-24 16:32:08.984444,599630758921238454,-200.00
2025-12-24 16:32:08.984444,599630758921238454,-200.00
2025-12-24 16:32:08.984444,599630758921238454,-198.00
2025-12-24 16:32:08.984444,599630758921238454,-189.00
2025-12-24 16:32:08.984444,599630758921238454,-189.00
2025-12-24 16:32:08.984444,599630758921238454,-189.00
2025-12-24 16:32:08.984444,599630758921238454,-191.00
2025-12-24 16:32:08.984444,599630758921238454,-184.00
2025-12-24 16:32:08.984444,599630758921238454,-175.00
2025-12-24 16:32:08.984444,599630758921238454,-175.00
2025-12-24 16:32:08.984444,599630758921238454,-175.00
2025-12-24 16:32:08.984444,599630758921238454,-175.00
2025-12-24 16:32:08.984444,599630758921238454,-175.00
2025-12-24 16:32:08.984444,599630758921238454,-177.00
2025-12-24 16:32:08.984444,599630758921238454,-172.00
2025-12-24 16:32:09.516287,599630759482088085,-168.00
2025-12-24 16:32:09.516287,599630759482088085,-170.00
2025-12-24 16:32:09.516287,599630759482088085,-175.00
2025-12-24 16:32:09.516287,599630759482088085,-172.00
2025-12-24 16:32:09.516287,599630759482088085,-168.00
2025-12-24 16:32:09.516287,599630759482088085,-161.00
2025-12-24 16:32:09.516287,599630759482088085,-156.00
2025-12-24 16:32:09.516287,599630759482088085,-158.00
2025-12-24 16:32:09.516287,599630759482088085,-161.00
2025-12-24 16:32:09.516287,599630759482088085,-151.00
2025-12-24 16:32:09.516287,599630759482088085,-140.00
2025-12-24 16:32:09.516287,599630759482088085,-133.00
2025-12-24 16:32:09.516287,599630759482088085,-142.00
2025-12-24 16:32:09.516287,599630759482088085,-142.00
2025-12-24 16:32:09.516287,599630759482088085,-135.00
2025-12-24 16:32:09.516287,599630759482088085,-133.00
2025-12-24 16:32:09.516287,599630759482088085,-133.00
2025-12-24 16:32:09.516287,599630759482088085,-123.00
2025-12-24 16:32:09.516287,599630759482088085,-119.00
2025-12-24 16:32:09.516287,599630759482088085,-121.00
2025-12-24 16:32:09.516287,599630759482088085,-121.00
2025-12-24 16:32:09.516287,599630759482088085,-121.00
2025-12-24 16:32:09.516287,599630759482088085,-121.00
2025-12-24 16:32:09.516287,599630759482088085,-121.00
2025-12-24 16:32:09.516287,599630759482088085,-114.00
2025-12-24 16:32:09.516287,599630759482088085,-105.00
2025-12-24 16:32:09.516287,599630759482088085,-105.00
2025-12-24 16:32:09.516287,599630759482088085,-100.00
2025-12-24 16:32:09.516287,599630759482088085,-93.00
2025-12-24 16:32:09.516287,599630759482088085,-107.00
2025-12-24 16:32:09.516287,599630759482088085,-130.00
2025-12-24 16:32:09.516287,599630759482088085,-140.00
2025-12-24 16:32:09.516287,599630759482088085,-133.00
2025-12-24 16:32:09.516287,599630759482088085,-130.00
2025-12-24 16:32:09.516287,599630759482088085,-133.00
2025-12-24 16:32:09.516287,599630759482088085,-133.00
2025-12-24 16:32:09.516287,599630759482088085,-130.00
2025-12-24 16:32:09.516287,599630759482088085,-123.00
2025-12-24 16:32:09.516287,599630759482088085,-60.00
2025-12-24 16:32:09.516287,599630759482088085,142.00
2025-12-24 16:32:09.516287,599630759482088085,485.00
2025-12-24 16:32:09.516287,599630759482088085,635.00
2025-12-24 16:32:09.516287,599630759482088085,144.00
2025-12-24 16:32:09.516287,599630759482088085,-541.00
2025-12-24 16:32:09.516287,599630759482088085,-546.00
2025-12-24 16:32:09.516287,599630759482088085,-177.00
2025-12-24 16:32:09.516287,599630759482088085,-121.00
2025-12-24 16:32:09.516287,599630759482088085,-168.00
2025-12-24 16:32:09.516287,599630759482088085,-102.00
2025-12-24 16:32:09.516287,599630759482088085,-84.00
2025-12-24 16:32:09.516287,599630759482088085,-107.00
2025-12-24 16:32:09.516287,599630759482088085,-86.00
2025-12-24 16:32:09.516287,599630759482088085,-70.00
2025-12-24 16:32:09.516287,599630759482088085,-77.00
2025-12-24 16:32:09.516287,599630759482088085,-72.00
2025-12-24 16:32:09.516287,599630759482088085,-56.00
2025-12-24 16:32:09.516287,599630759482088085,-46.00
2025-12-24 16:32:09.516287,599630759482088085,-37.00
2025-12-24 16:32:09.516287,599630759482088085,-28.00
2025-12-24 16:32:09.516287,599630759482088085,-16.00
2025-12-24 16:32:09.516287,599630759482088085,-2.00
2025-12-24 16:32:09.516287,599630759482088085,7.00
2025-12-24 16:32:09.516287,599630759482088085,11.00
2025-12-24 16:32:09.516287,599630759482088085,25.00
2025-12-24 16:32:09.516287,599630759482088085,42.00
2025-12-24 16:32:09.516287,599630759482088085,58.00
2025-12-24 16:32:09.516287,599630759482088085,72.00
2025-12-24 16:32:09.516287,599630759482088085,88.00
2025-12-24 16:32:09.516287,599630759482088085,100.00
2025-12-24 16:32:09.516287,599630759482088085,112.00
2025-12-24 16:32:09.516287,599630759482088085,116.00
2025-12-24 16:32:09.516287,599630759482088085,112.00
2025-12-24 16:32:09.516287,599630759482088085,102.00
2025-12-24 16:32:10.073767,599630760042937716,88.00
2025-12-24 16:32:10.073767,599630760042937716,49.00
2025-12-24 16:32:10.073767,599630760042937716,-11.00
2025-12-24 16:32:10.073767,599630760042937716,-74.00
2025-12-24 16:32:10.073767,599630760042937716,-119.00
2025-12-24 16:32:10.073767,599630760042937716,-151.00
2025-12-24 16:32:10.073767,599630760042937716,-177.00
2025-12-24 16:32:10.073767,599630760042937716,-189.00
2025-12-24 16:32:10.073767,599630760042937716,-184.00
2025-12-24 16:32:10.073767,599630760042937716,-179.00
2025-12-24 16:32:10.073767,599630760042937716,-179.00
2025-12-24 16:32:10.073767,599630760042937716,-175.00
2025-12-24 16:32:10.073767,599630760042937716,-170.00
2025-12-24 16:32:10.073767,599630760042937716,-161.00
2025-12-24 16:32:10.073767,599630760042937716,-142.00
2025-12-24 16:32:10.073767,599630760042937716,-133.00
2025-12-24 16:32:10.073767,599630760042937716,-135.00
2025-12-24 16:32:10.073767,599630760042937716,-121.00
2025-12-24 16:32:10.073767,599630760042937716,-105.00
2025-12-24 16:32:10.073767,599630760042937716,-102.00
2025-12-24 16:32:10.073767,599630760042937716,-98.00
2025-12-24 16:32:10.073767,599630760042937716,-88.00
2025-12-24 16:32:10.073767,599630760042937716,-84.00
2025-12-24 16:32:10.073767,599630760042937716,-77.00
2025-12-24 16:32:10.073767,599630760042937716,-72.00
2025-12-24 16:32:10.073767,599630760042937716,-72.00
2025-12-24 16:32:10.073767,599630760042937716,-77.00
2025-12-24 16:32:10.073767,599630760042937716,-77.00
2025-12-24 16:32:10.073767,599630760042937716,-74.00
2025-12-24 16:32:10.073767,599630760042937716,-70.00
2025-12-24 16:32:10.073767,599630760042937716,-74.00
2025-12-24 16:32:10.073767,599630760042937716,-74.00
2025-12-24 16:32:10.073767,599630760042937716,-67.00
2025-12-24 16:32:10.073767,599630760042937716,-70.00
2025-12-24 16:32:10.073767,599630760042937716,-74.00
2025-12-24 16:32:10.073767,599630760042937716,-74.00
2025-12-24 16:32:10.073767,599630760042937716,-70.00
2025-12-24 16:32:10.073767,599630760042937716,-65.00
2025-12-24 16:32:10.073767,599630760042937716,-67.00
2025-12-24 16:32:10.073767,599630760042937716,-70.00
2025-12-24 16:32:10.073767,599630760042937716,-67.00
2025-12-24 16:32:10.073767,599630760042937716,-63.00
2025-12-24 16:32:10.073767,599630760042937716,-63.00
2025-12-24 16:32:10.073767,599630760042937716,-63.00
2025-12-24 16:32:10.073767,599630760042937716,-65.00
2025-12-24 16:32:10.073767,599630760042937716,-65.00
2025-12-24 16:32:10.073767,599630760042937716,-58.00
2025-12-24 16:32:10.073767,599630760042937716,-56.00
2025-12-24 16:32:10.073767,599630760042937716,-58.00
2025-12-24 16:32:10.073767,599630760042937716,-60.00
2025-12-24 16:32:10.073767,599630760042937716,-58.00
2025-12-24 16:32:10.073767,599630760042937716,-60.00
2025-12-24 16:32:10.073767,599630760042937716,-63.00
2025-12-24 16:32:10.073767,599630760042937716,-53.00
2025-12-24 16:32:10.073767,599630760042937716,-44.00
2025-12-24 16:32:10.073767,599630760042937716,-58.00
2025-12-24 16:32:10.073767,599630760042937716,-70.00
2025-12-24 16:32:10.073767,599630760042937716,-72.00
2025-12-24 16:32:10.073767,599630760042937716,-72.00
2025-12-24 16:32:10.073767,599630760042937716,-70.00
2025-12-24 16:32:10.073767,599630760042937716,-70.00
2025-12-24 16:32:10.073767,599630760042937716,-74.00
2025-12-24 16:32:10.073767,599630760042937716,-77.00
2025-12-24 16:32:10.073767,599630760042937716,-65.00
2025-12-24 16:32:10.073767,599630760042937716,-2.00
2025-12-24 16:32:10.073767,599630760042937716,193.00
2025-12-24 16:32:10.073767,599630760042937716,546.00
2025-12-24 16:32:10.073767,599630760042937716,735.00
2025-12-24 16:32:10.073767,599630760042937716,226.00
2025-12-24 16:32:10.073767,599630760042937716,-558.00
2025-12-24 16:32:10.073767,599630760042937716,-595.00
2025-12-24 16:32:10.073767,599630760042937716,-168.00
2025-12-24 16:32:10.073767,599630760042937716,-95.00
2025-12-24 16:32:10.636926,599630760603792435,-142.00
2025-12-24 16:32:10.636926,599630760603792435,-44.00
2025-12-24 16:32:10.636926,599630760603792435,-18.00
2025-12-24 16:32:10.636926,599630760603792435,-53.00
2025-12-24 16:32:10.636926,599630760603792435,-32.00
2025-12-24 16:32:10.636926,599630760603792435,-4.00
2025-12-24 16:32:10.636926,599630760603792435,-4.00
2025-12-24 16:32:10.636926,599630760603792435,-2.00
2025-12-24 16:32:10.636926,599630760603792435,2.00
2025-12-24 16:32:10.636926,599630760603792435,11.00
2025-12-24 16:32:10.636926,599630760603792435,32.00
2025-12-24 16:32:10.636926,599630760603792435,53.00
2025-12-24 16:32:10.636926,599630760603792435,60.00
2025-12-24 16:32:10.636926,599630760603792435,60.00
2025-12-24 16:32:10.636926,599630760603792435,70.00
2025-12-24 16:32:10.636926,599630760603792435,88.00
2025-12-24 16:32:10.636926,599630760603792435,100.00
2025-12-24 16:32:10.636926,599630760603792435,107.00
2025-12-24 16:32:10.636926,599630760603792435,123.00
2025-12-24 16:32:10.636926,599630760603792435,142.00
2025-12-24 16:32:10.636926,599630760603792435,154.00
2025-12-24 16:32:10.636926,599630760603792435,163.00
2025-12-24 16:32:10.636926,599630760603792435,175.00
2025-12-24 16:32:10.636926,599630760603792435,182.00
2025-12-24 16:32:10.636926,599630760603792435,172.00
2025-12-24 16:32:10.636926,599630760603792435,149.00
2025-12-24 16:32:10.636926,599630760603792435,114.00
2025-12-24 16:32:10.636926,599630760603792435,60.00
2025-12-24 16:32:10.636926,599630760603792435,-11.00
2025-12-24 16:32:10.636926,599630760603792435,-86.00
2025-12-24 16:32:10.636926,599630760603792435,-147.00
2025-12-24 16:32:10.636926,599630760603792435,-186.00
2025-12-24 16:32:10.636926,599630760603792435,-214.00
2025-12-24 16:32:10.636926,599630760603792435,-233.00
2025-12-24 16:32:10.636926,599630760603792435,-238.00
2025-12-24 16:32:10.636926,599630760603792435,-238.00
2025-12-24 16:32:10.636926,599630760603792435,-235.00
2025-12-24 16:32:10.636926,599630760603792435,-233.00
2025-12-24 16:32:10.636926,599630760603792435,-231.00
2025-12-24 16:32:10.636926,599630760603792435,-226.00
2025-12-24 16:32:10.636926,599630760603792435,-221.00
2025-12-24 16:32:10.636926,599630760603792435,-217.00
2025-12-24 16:32:10.636926,599630760603792435,-210.00
2025-12-24 16:32:10.636926,599630760603792435,-205.00
2025-12-24 16:32:10.636926,599630760603792435,-198.00
2025-12-24 16:32:10.636926,599630760603792435,-186.00
2025-12-24 16:32:10.636926,599630760603792435,-179.00
2025-12-24 16:32:10.636926,599630760603792435,-179.00
2025-12-24 16:32:10.636926,599630760603792435,-177.00
2025-12-24 16:32:10.636926,599630760603792435,-172.00
2025-12-24 16:32:10.636926,599630760603792435,-170.00
2025-12-24 16:32:10.636926,599630760603792435,-168.00
2025-12-24 16:32:10.636926,599630760603792435,-165.00
2025-12-24 16:32:10.636926,599630760603792435,-163.00
2025-12-24 16:32:10.636926,599630760603792435,-158.00
2025-12-24 16:32:10.636926,599630760603792435,-158.00
2025-12-24 16:32:10.636926,599630760603792435,-165.00
2025-12-24 16:32:10.636926,599630760603792435,-165.00
2025-12-24 16:32:10.636926,599630760603792435,-158.00
2025-12-24 16:32:10.636926,599630760603792435,-156.00
2025-12-24 16:32:10.636926,599630760603792435,-158.00
2025-12-24 16:32:10.636926,599630760603792435,-156.00
2025-12-24 16:32:10.636926,599630760603792435,-151.00
2025-12-24 16:32:10.636926,599630760603792435,-149.00
2025-12-24 16:32:10.636926,599630760603792435,-144.00
2025-12-24 16:32:10.636926,599630760603792435,-140.00
2025-12-24 16:32:10.636926,599630760603792435,-142.00
2025-12-24 16:32:10.636926,599630760603792435,-144.00
2025-12-24 16:32:10.636926,599630760603792435,-144.00
2025-12-24 16:32:10.636926,599630760603792435,-144.00
2025-12-24 16:32:10.636926,599630760603792435,-135.00
2025-12-24 16:32:10.636926,599630760603792435,-114.00
2025-12-24 16:32:10.636926,599630760603792435,-123.00
2025-12-24 16:32:11.225641,599630761164647152,-151.00
2025-12-24 16:32:11.225641,599630761164647152,-156.00
2025-12-24 16:32:11.225641,599630761164647152,-144.00
2025-12-24 16:32:11.225641,599630761164647152,-140.00
2025-12-24 16:32:11.225641,599630761164647152,-135.00
2025-12-24 16:32:11.225641,599630761164647152,-135.00
2025-12-24 16:32:11.225641,599630761164647152,-140.00
2025-12-24 16:32:11.225641,599630761164647152,-142.00
2025-12-24 16:32:11.225641,599630761164647152,-114.00
2025-12-24 16:32:11.225641,599630761164647152,9.00
2025-12-24 16:32:11.225641,599630761164647152,305.00
2025-12-24 16:32:11.225641,599630761164647152,651.00
2025-12-24 16:32:11.225641,599630761164647152,520.00
2025-12-24 16:32:11.225641,599630761164647152,-259.00
2025-12-24 16:32:11.225641,599630761164647152,-735.00
2025-12-24 16:32:11.225641,599630761164647152,-399.00
2025-12-24 16:32:11.225641,599630761164647152,-126.00
2025-12-24 16:32:11.225641,599630761164647152,-200.00
2025-12-24 16:32:11.225641,599630761164647152,-161.00
2025-12-24 16:32:11.225641,599630761164647152,-74.00
2025-12-24 16:32:11.225641,599630761164647152,-95.00
2025-12-24 16:32:11.225641,599630761164647152,-93.00
2025-12-24 16:32:11.225641,599630761164647152,-65.00
2025-12-24 16:32:11.225641,599630761164647152,-70.00
2025-12-24 16:32:11.225641,599630761164647152,-67.00
2025-12-24 16:32:11.225641,599630761164647152,-46.00
2025-12-24 16:32:11.225641,599630761164647152,-39.00
2025-12-24 16:32:11.225641,599630761164647152,-42.00
2025-12-24 16:32:11.225641,599630761164647152,-35.00
2025-12-24 16:32:11.225641,599630761164647152,-25.00
2025-12-24 16:32:11.225641,599630761164647152,-14.00
2025-12-24 16:32:11.225641,599630761164647152,0.00
2025-12-24 16:32:11.225641,599630761164647152,16.00
2025-12-24 16:32:11.225641,599630761164647152,23.00
2025-12-24 16:32:11.225641,599630761164647152,37.00
2025-12-24 16:32:11.225641,599630761164647152,58.00
2025-12-24 16:32:11.225641,599630761164647152,77.00
2025-12-24 16:32:11.225641,599630761164647152,91.00
2025-12-24 16:32:11.225641,599630761164647152,109.00
2025-12-24 16:32:11.225641,599630761164647152,123.00
2025-12-24 16:32:11.225641,599630761164647152,123.00
2025-12-24 16:32:11.225641,599630761164647152,123.00
2025-12-24 16:32:11.225641,599630761164647152,114.00
2025-12-24 16:32:11.225641,599630761164647152,81.00
2025-12-24 16:32:11.225641,599630761164647152,25.00
2025-12-24 16:32:11.225641,599630761164647152,-44.00
2025-12-24 16:32:11.225641,599630761164647152,-116.00
2025-12-24 16:32:11.225641,599630761164647152,-179.00
2025-12-24 16:32:11.225641,599630761164647152,-224.00
2025-12-24 16:32:11.225641,599630761164647152,-252.00
2025-12-24 16:32:11.225641,599630761164647152,-263.00
2025-12-24 16:32:11.225641,599630761164647152,-266.00
2025-12-24 16:32:11.225641,599630761164647152,-273.00
2025-12-24 16:32:11.225641,599630761164647152,-273.00
2025-12-24 16:32:11.225641,599630761164647152,-263.00
2025-12-24 16:32:11.225641,599630761164647152,-256.00
2025-12-24 16:32:11.225641,599630761164647152,-249.00
2025-12-24 16:32:11.225641,599630761164647152,-245.00
2025-12-24 16:32:11.225641,599630761164647152,-238.00
2025-12-24 16:32:11.225641,599630761164647152,-231.00
2025-12-24 16:32:11.225641,599630761164647152,-228.00
2025-12-24 16:32:11.225641,599630761164647152,-221.00
2025-12-24 16:32:11.225641,599630761164647152,-212.00
2025-12-24 16:32:11.225641,599630761164647152,-205.00
2025-12-24 16:32:11.225641,599630761164647152,-198.00
2025-12-24 16:32:11.225641,599630761164647152,-191.00
2025-12-24 16:32:11.225641,599630761164647152,-184.00
2025-12-24 16:32:11.225641,599630761164647152,-182.00
2025-12-24 16:32:11.225641,599630761164647152,-179.00
2025-12-24 16:32:11.225641,599630761164647152,-170.00
2025-12-24 16:32:11.225641,599630761164647152,-165.00
2025-12-24 16:32:11.225641,599630761164647152,-170.00
2025-12-24 16:32:11.225641,599630761164647152,-170.00
2025-12-24 16:32:11.869535,599630761725517129,-163.00
2025-12-24 16:32:11.869535,599630761725517129,-158.00
2025-12-24 16:32:11.869535,599630761725517129,-158.00
2025-12-24 16:32:11.869535,599630761725517129,-163.00
2025-12-24 16:32:11.869535,599630761725517129,-161.00
2025-12-24 16:32:11.869535,599630761725517129,-154.00
2025-12-24 16:32:11.869535,599630761725517129,-149.00
2025-12-24 16:32:11.869535,599630761725517129,-144.00
2025-12-24 16:32:11.869535,599630761725517129,-144.00
2025-12-24 16:32:11.869535,599630761725517129,-154.00
2025-12-24 16:32:11.869535,599630761725517129,-151.00
2025-12-24 16:32:11.869535,599630761725517129,-135.00
2025-12-24 16:32:11.869535,599630761725517129,-126.00
2025-12-24 16:32:11.869535,599630761725517129,-116.00
2025-12-24 16:32:11.869535,599630761725517129,-93.00
2025-12-24 16:32:11.869535,599630761725517129,-98.00
2025-12-24 16:32:11.869535,599630761725517129,-121.00
2025-12-24 16:32:11.869535,599630761725517129,-116.00
2025-12-24 16:32:11.869535,599630761725517129,-102.00
2025-12-24 16:32:11.869535,599630761725517129,-107.00
2025-12-24 16:32:11.869535,599630761725517129,-107.00
2025-12-24 16:32:11.869535,599630761725517129,-102.00
2025-12-24 16:32:11.869535,599630761725517129,-107.00
2025-12-24 16:32:11.869535,599630761725517129,-112.00
2025-12-24 16:32:11.869535,599630761725517129,-91.00
2025-12-24 16:32:11.869535,599630761725517129,7.00
2025-12-24 16:32:11.869535,599630761725517129,268.00
2025-12-24 16:32:11.869535,599630761725517129,649.00
2025-12-24 16:32:11.869535,599630761725517129,691.00
2025-12-24 16:32:11.869535,599630761725517129,25.00
2025-12-24 16:32:11.869535,599630761725517129,-616.00
2025-12-24 16:32:11.869535,599630761725517129,-443.00
2025-12-24 16:32:11.869535,599630761725517129,-98.00
2025-12-24 16:32:11.869535,599630761725517129,-130.00
2025-12-24 16:32:11.869535,599630761725517129,-149.00
2025-12-24 16:32:11.869535,599630761725517129,-63.00
2025-12-24 16:32:11.869535,599630761725517129,-67.00
2025-12-24 16:32:11.869535,599630761725517129,-81.00
2025-12-24 16:32:11.869535,599630761725517129,-49.00
2025-12-24 16:32:11.869535,599630761725517129,-42.00
2025-12-24 16:32:11.869535,599630761725517129,-44.00
2025-12-24 16:32:11.869535,599630761725517129,-32.00
2025-12-24 16:32:11.869535,599630761725517129,-28.00
2025-12-24 16:32:11.869535,599630761725517129,-30.00
2025-12-24 16:32:11.869535,599630761725517129,-18.00
2025-12-24 16:32:11.869535,599630761725517129,-9.00
2025-12-24 16:32:11.869535,599630761725517129,-2.00
2025-12-24 16:32:11.869535,599630761725517129,9.00
2025-12-24 16:32:11.869535,599630761725517129,18.00
2025-12-24 16:32:11.869535,599630761725517129,35.00
2025-12-24 16:32:11.869535,599630761725517129,53.00
2025-12-24 16:32:11.869535,599630761725517129,67.00
2025-12-24 16:32:11.869535,599630761725517129,81.00
2025-12-24 16:32:11.869535,599630761725517129,107.00
2025-12-24 16:32:11.869535,599630761725517129,123.00
2025-12-24 16:32:11.869535,599630761725517129,135.00
2025-12-24 16:32:11.869535,599630761725517129,142.00
2025-12-24 16:32:11.869535,599630761725517129,142.00
2025-12-24 16:32:11.869535,599630761725517129,133.00
2025-12-24 16:32:11.869535,599630761725517129,105.00
2025-12-24 16:32:11.869535,599630761725517129,53.00
2025-12-24 16:32:11.869535,599630761725517129,-21.00
2025-12-24 16:32:11.869535,599630761725517129,-93.00
2025-12-24 16:32:11.869535,599630761725517129,-147.00
2025-12-24 16:32:11.869535,599630761725517129,-191.00
2025-12-24 16:32:11.869535,599630761725517129,-226.00
2025-12-24 16:32:11.869535,599630761725517129,-240.00
2025-12-24 16:32:11.869535,599630761725517129,-247.00
2025-12-24 16:32:11.869535,599630761725517129,-252.00
2025-12-24 16:32:11.869535,599630761725517129,-247.00
2025-12-24 16:32:11.869535,599630761725517129,-238.00
2025-12-24 16:32:11.869535,599630761725517129,-233.00
2025-12-24 16:32:11.869535,599630761725517129,-231.00
2025-12-24 16:32:12.331149,599630762286366760,-231.00
2025-12-24 16:32:12.331149,599630762286366760,-228.00
2025-12-24 16:32:12.331149,599630762286366760,-224.00
2025-12-24 16:32:12.331149,599630762286366760,-217.00
2025-12-24 16:32:12.331149,599630762286366760,-207.00
2025-12-24 16:32:12.331149,599630762286366760,-200.00
2025-12-24 16:32:12.331149,599630762286366760,-193.00
2025-12-24 16:32:12.331149,599630762286366760,-189.00
2025-12-24 16:32:12.331149,599630762286366760,-177.00
2025-12-24 16:32:12.331149,599630762286366760,-163.00
2025-12-24 16:32:12.331149,599630762286366760,-163.00
2025-12-24 16:32:12.331149,599630762286366760,-168.00
2025-12-24 16:32:12.331149,599630762286366760,-165.00
2025-12-24 16:32:12.331149,599630762286366760,-163.00
2025-12-24 16:32:12.331149,599630762286366760,-163.00
2025-12-24 16:32:12.331149,599630762286366760,-163.00
2025-12-24 16:32:12.331149,599630762286366760,-163.00
2025-12-24 16:32:12.331149,599630762286366760,-165.00
2025-12-24 16:32:12.331149,599630762286366760,-168.00
2025-12-24 16:32:12.331149,599630762286366760,-163.00
2025-12-24 16:32:12.331149,599630762286366760,-156.00
2025-12-24 16:32:12.331149,599630762286366760,-149.00
2025-12-24 16:32:12.331149,599630762286366760,-151.00
2025-12-24 16:32:12.331149,599630762286366760,-158.00
2025-12-24 16:32:12.331149,599630762286366760,-156.00
2025-12-24 16:32:12.331149,599630762286366760,-151.00
2025-12-24 16:32:12.331149,599630762286366760,-142.00
2025-12-24 16:32:12.331149,599630762286366760,-137.00
2025-12-24 16:32:12.331149,599630762286366760,-133.00
2025-12-24 16:32:12.331149,599630762286366760,-130.00
2025-12-24 16:32:12.331149,599630762286366760,-130.00
2025-12-24 16:32:12.331149,599630762286366760,-126.00
2025-12-24 16:32:12.331149,599630762286366760,-102.00
2025-12-24 16:32:12.331149,599630762286366760,-100.00
2025-12-24 16:32:12.331149,599630762286366760,-130.00
2025-12-24 16:32:12.331149,599630762286366760,-149.00
2025-12-24 16:32:12.331149,599630762286366760,-142.00
2025-12-24 16:32:12.331149,599630762286366760,-137.00
2025-12-24 16:32:12.331149,599630762286366760,-140.00
2025-12-24 16:32:12.331149,599630762286366760,-137.00
2025-12-24 16:32:12.331149,599630762286366760,-135.00
2025-12-24 16:32:12.331149,599630762286366760,-140.00
2025-12-24 16:32:12.331149,599630762286366760,-137.00
2025-12-24 16:32:12.331149,599630762286366760,-79.00
2025-12-24 16:32:12.331149,599630762286366760,114.00
2025-12-24 16:32:12.331149,599630762286366760,478.00
2025-12-24 16:32:12.331149,599630762286366760,714.00
2025-12-24 16:32:12.331149,599630762286366760,301.00
2025-12-24 16:32:12.331149,599630762286366760,-474.00
2025-12-24 16:32:12.331149,599630762286366760,-618.00
2025-12-24 16:32:12.331149,599630762286366760,-224.00
2025-12-24 16:32:12.331149,599630762286366760,-128.00
2025-12-24 16:32:12.331149,599630762286366760,-212.00
2025-12-24 16:32:12.331149,599630762286366760,-140.00
2025-12-24 16:32:12.331149,599630762286366760,-98.00
2025-12-24 16:32:12.331149,599630762286366760,-123.00
2025-12-24 16:32:12.331149,599630762286366760,-105.00
2025-12-24 16:32:12.331149,599630762286366760,-79.00
2025-12-24 16:32:12.331149,599630762286366760,-86.00
2025-12-24 16:32:12.331149,599630762286366760,-81.00
2025-12-24 16:32:12.331149,599630762286366760,-60.00
2025-12-24 16:32:12.331149,599630762286366760,-53.00
2025-12-24 16:32:12.331149,599630762286366760,-49.00
2025-12-24 16:32:12.331149,599630762286366760,-37.00
2025-12-24 16:32:12.331149,599630762286366760,-30.00
2025-12-24 16:32:12.331149,599630762286366760,-23.00
2025-12-24 16:32:12.331149,599630762286366760,-7.00
2025-12-24 16:32:12.331149,599630762286366760,9.00
2025-12-24 16:32:12.331149,599630762286366760,25.00
2025-12-24 16:32:12.331149,599630762286366760,42.00
2025-12-24 16:32:12.331149,599630762286366760,63.00
2025-12-24 16:32:12.331149,599630762286366760,86.00
2025-12-24 16:32:12.331149,599630762286366760,109.00
2025-12-24 16:32:13.085324,599630762847216391,123.00
2025-12-24 16:32:13.085324,599630762847216391,133.00
2025-12-24 16:32:13.085324,599630762847216391,144.00
2025-12-24 16:32:13.085324,599630762847216391,142.00
2025-12-24 16:32:13.085324,599630762847216391,121.00
2025-12-24 16:32:13.085324,599630762847216391,86.00
2025-12-24 16:32:13.085324,599630762847216391,35.00
2025-12-24 16:32:13.085324,599630762847216391,-44.00
2025-12-24 16:32:13.085324,599630762847216391,-119.00
2025-12-24 16:32:13.085324,599630762847216391,-165.00
2025-12-24 16:32:13.085324,599630762847216391,-200.00
2025-12-24 16:32:13.085324,599630762847216391,-217.00
2025-12-24 16:32:13.085324,599630762847216391,-217.00
2025-12-24 16:32:13.085324,599630762847216391,-214.00
2025-12-24 16:32:13.085324,599630762847216391,-219.00
2025-12-24 16:32:13.085324,599630762847216391,-219.00
2025-12-24 16:32:13.085324,599630762847216391,-210.00
2025-12-24 16:32:13.085324,599630762847216391,-205.00
2025-12-24 16:32:13.085324,599630762847216391,-203.00
2025-12-24 16:32:13.085324,599630762847216391,-198.00
2025-12-24 16:32:13.085324,599630762847216391,-191.00
2025-12-24 16:32:13.085324,599630762847216391,-186.00
2025-12-24 16:32:13.085324,599630762847216391,-186.00
2025-12-24 16:32:13.085324,599630762847216391,-177.00
2025-12-24 16:32:13.085324,599630762847216391,-165.00
2025-12-24 16:32:13.085324,599630762847216391,-165.00
2025-12-24 16:32:13.085324,599630762847216391,-165.00
2025-12-24 16:32:13.085324,599630762847216391,-158.00
2025-12-24 16:32:13.085324,599630762847216391,-154.00
2025-12-24 16:32:13.085324,599630762847216391,-154.00
2025-12-24 16:32:13.085324,599630762847216391,-147.00
2025-12-24 16:32:13.085324,599630762847216391,-144.00
2025-12-24 16:32:13.085324,599630762847216391,-147.00
2025-12-24 16:32:13.085324,599630762847216391,-149.00
2025-12-24 16:32:13.085324,599630762847216391,-147.00
2025-12-24 16:32:13.085324,599630762847216391,-142.00
2025-12-24 16:32:13.085324,599630762847216391,-142.00
2025-12-24 16:32:13.085324,599630762847216391,-147.00
2025-12-24 16:32:13.085324,599630762847216391,-147.00
2025-12-24 16:32:13.085324,599630762847216391,-144.00
2025-12-24 16:32:13.085324,599630762847216391,-144.00
2025-12-24 16:32:13.085324,599630762847216391,-142.00
2025-12-24 16:32:13.085324,599630762847216391,-140.00
2025-12-24 16:32:13.085324,599630762847216391,-140.00
2025-12-24 16:32:13.085324,599630762847216391,-140.00
2025-12-24 16:32:13.085324,599630762847216391,-137.00
2025-12-24 16:32:13.085324,599630762847216391,-137.00
2025-12-24 16:32:13.085324,599630762847216391,-133.00
2025-12-24 16:32:13.085324,599630762847216391,-126.00
2025-12-24 16:32:13.085324,599630762847216391,-121.00
2025-12-24 16:32:13.085324,599630762847216391,-119.00
2025-12-24 16:32:13.085324,599630762847216391,-109.00
2025-12-24 16:32:13.085324,599630762847216391,-107.00
2025-12-24 16:32:13.085324,599630762847216391,-107.00
2025-12-24 16:32:13.085324,599630762847216391,-102.00
2025-12-24 16:32:13.085324,599630762847216391,-100.00
2025-12-24 16:32:13.085324,599630762847216391,-105.00
2025-12-24 16:32:13.085324,599630762847216391,-109.00
2025-12-24 16:32:13.085324,599630762847216391,-107.00
2025-12-24 16:32:13.085324,599630762847216391,-102.00
2025-12-24 16:32:13.085324,599630762847216391,-100.00
2025-12-24 16:32:13.085324,599630762847216391,-91.00
2025-12-24 16:32:13.085324,599630762847216391,-81.00
2025-12-24 16:32:13.085324,599630762847216391,-88.00
2025-12-24 16:32:13.085324,599630762847216391,-105.00
2025-12-24 16:32:13.085324,599630762847216391,-107.00
2025-12-24 16:32:13.085324,599630762847216391,-105.00
2025-12-24 16:32:13.085324,599630762847216391,-107.00
2025-12-24 16:32:13.085324,599630762847216391,-107.00
2025-12-24 16:32:13.085324,599630762847216391,-102.00
2025-12-24 16:32:13.085324,599630762847216391,-100.00
2025-12-24 16:32:13.085324,599630762847216391,-102.00
2025-12-24 16:32:13.085324,599630762847216391,-74.00
2025-12-24 16:32:13.394972,599630763408096538,51.00
2025-12-24 16:32:13.394972,599630763408096538,348.00
2025-12-24 16:32:13.394972,599630763408096538,700.00
2025-12-24 16:32:13.394972,599630763408096538,604.00
2025-12-24 16:32:13.394972,599630763408096538,-130.00
2025-12-24 16:32:13.394972,599630763408096538,-621.00
2025-12-24 16:32:13.394972,599630763408096538,-331.00
2025-12-24 16:32:13.394972,599630763408096538,-67.00
2025-12-24 16:32:13.394972,599630763408096538,-151.00
2025-12-24 16:32:13.394972,599630763408096538,-142.00
2025-12-24 16:32:13.394972,599630763408096538,-70.00
2025-12-24 16:32:13.394972,599630763408096538,-88.00
2025-12-24 16:32:13.394972,599630763408096538,-98.00
2025-12-24 16:32:13.394972,599630763408096538,-70.00
2025-12-24 16:32:13.394972,599630763408096538,-63.00
2025-12-24 16:32:13.394972,599630763408096538,-51.00
2025-12-24 16:32:13.394972,599630763408096538,-25.00
2025-12-24 16:32:13.394972,599630763408096538,-21.00
2025-12-24 16:32:13.394972,599630763408096538,-23.00
2025-12-24 16:32:13.394972,599630763408096538,-14.00
2025-12-24 16:32:13.394972,599630763408096538,-4.00
2025-12-24 16:32:13.394972,599630763408096538,4.00
2025-12-24 16:32:13.394972,599630763408096538,18.00
2025-12-24 16:32:13.394972,599630763408096538,28.00
2025-12-24 16:32:13.394972,599630763408096538,32.00
2025-12-24 16:32:13.394972,599630763408096538,49.00
2025-12-24 16:32:13.394972,599630763408096538,74.00
2025-12-24 16:32:13.394972,599630763408096538,98.00
2025-12-24 16:32:13.394972,599630763408096538,116.00
2025-12-24 16:32:13.394972,599630763408096538,128.00
2025-12-24 16:32:13.394972,599630763408096538,140.00
2025-12-24 16:32:13.394972,599630763408096538,156.00
2025-12-24 16:32:13.394972,599630763408096538,172.00
2025-12-24 16:32:13.394972,599630763408096538,175.00
2025-12-24 16:32:13.394972,599630763408096538,147.00
2025-12-24 16:32:13.394972,599630763408096538,98.00
2025-12-24 16:32:13.394972,599630763408096538,32.00
2025-12-24 16:32:13.394972,599630763408096538,-37.00
2025-12-24 16:32:13.394972,599630763408096538,-95.00
2025-12-24 16:32:13.394972,599630763408096538,-137.00
2025-12-24 16:32:13.394972,599630763408096538,-168.00
2025-12-24 16:32:13.394972,599630763408096538,-177.00
2025-12-24 16:32:13.394972,599630763408096538,-177.00
2025-12-24 16:32:13.394972,599630763408096538,-184.00
2025-12-24 16:32:13.394972,599630763408096538,-189.00
2025-12-24 16:32:13.394972,599630763408096538,-184.00
2025-12-24 16:32:13.394972,599630763408096538,-182.00
2025-12-24 16:32:13.394972,599630763408096538,-179.00
2025-12-24 16:32:13.394972,599630763408096538,-177.00
2025-12-24 16:32:13.394972,599630763408096538,-172.00
2025-12-24 16:32:13.394972,599630763408096538,-158.00
2025-12-24 16:32:13.394972,599630763408096538,-151.00
2025-12-24 16:32:13.394972,599630763408096538,-156.00
2025-12-24 16:32:13.394972,599630763408096538,-156.00
2025-12-24 16:32:13.394972,599630763408096538,-147.00
2025-12-24 16:32:13.394972,599630763408096538,-147.00
2025-12-24 16:32:13.394972,599630763408096538,-149.00
2025-12-24 16:32:13.394972,599630763408096538,-144.00
2025-12-24 16:32:13.394972,599630763408096538,-140.00
2025-12-24 16:32:13.394972,599630763408096538,-140.00
2025-12-24 16:32:13.394972,599630763408096538,-137.00
2025-12-24 16:32:13.394972,599630763408096538,-135.00
2025-12-24 16:32:13.394972,599630763408096538,-137.00
2025-12-24 16:32:13.394972,599630763408096538,-142.00
2025-12-24 16:32:13.394972,599630763408096538,-140.00
2025-12-24 16:32:13.394972,599630763408096538,-137.00
2025-12-24 16:32:13.394972,599630763408096538,-142.00
2025-12-24 16:32:13.394972,599630763408096538,-144.00
2025-12-24 16:32:13.394972,599630763408096538,-144.00
2025-12-24 16:32:13.394972,599630763408096538,-149.00
2025-12-24 16:32:13.394972,599630763408096538,-154.00
2025-12-24 16:32:13.394972,599630763408096538,-151.00
2025-12-24 16:32:13.394972,599630763408096538,-154.00
2025-12-24 16:32:14.004235,599630763968946173,-154.00
2025-12-24 16:32:14.004235,599630763968946173,-147.00
2025-12-24 16:32:14.004235,599630763968946173,-144.00
2025-12-24 16:32:14.004235,599630763968946173,-147.00
2025-12-24 16:32:14.004235,599630763968946173,-147.00
2025-12-24 16:32:14.004235,599630763968946173,-147.00
2025-12-24 16:32:14.004235,599630763968946173,-140.00
2025-12-24 16:32:14.004235,599630763968946173,-130.00
2025-12-24 16:32:14.004235,599630763968946173,-130.00
2025-12-24 16:32:14.004235,599630763968946173,-130.00
2025-12-24 16:32:14.004235,599630763968946173,-133.00
2025-12-24 16:32:14.004235,599630763968946173,-135.00
2025-12-24 16:32:14.004235,599630763968946173,-133.00
2025-12-24 16:32:14.004235,599630763968946173,-128.00
2025-12-24 16:32:14.004235,599630763968946173,-128.00
2025-12-24 16:32:14.004235,599630763968946173,-130.00
2025-12-24 16:32:14.004235,599630763968946173,-130.00
2025-12-24 16:32:14.004235,599630763968946173,-130.00
2025-12-24 16:32:14.004235,599630763968946173,-123.00
2025-12-24 16:32:14.004235,599630763968946173,-123.00
2025-12-24 16:32:14.004235,599630763968946173,-128.00
2025-12-24 16:32:14.004235,599630763968946173,-128.00
2025-12-24 16:32:14.004235,599630763968946173,-123.00
2025-12-24 16:32:14.004235,599630763968946173,-119.00
2025-12-24 16:32:14.004235,599630763968946173,-109.00
2025-12-24 16:32:14.004235,599630763968946173,-107.00
2025-12-24 16:32:14.004235,599630763968946173,-128.00
2025-12-24 16:32:14.004235,599630763968946173,-140.00
2025-12-24 16:32:14.004235,599630763968946173,-135.00
2025-12-24 16:32:14.004235,599630763968946173,-133.00
2025-12-24 16:32:14.004235,599630763968946173,-133.00
2025-12-24 16:32:14.004235,599630763968946173,-130.00
2025-12-24 16:32:14.004235,599630763968946173,-133.00
2025-12-24 16:32:14.004235,599630763968946173,-128.00
2025-12-24 16:32:14.004235,599630763968946173,-95.00
2025-12-24 16:32:14.004235,599630763968946173,18.00
2025-12-24 16:32:14.004235,599630763968946173,294.00
2025-12-24 16:32:14.004235,599630763968946173,653.00
2025-12-24 16:32:14.004235,599630763968946173,635.00
2025-12-24 16:32:14.004235,599630763968946173,-51.00
2025-12-24 16:32:14.004235,599630763968946173,-621.00
2025-12-24 16:32:14.004235,599630763968946173,-394.00
2025-12-24 16:32:14.004235,599630763968946173,-88.00
2025-12-24 16:32:14.004235,599630763968946173,-154.00
2025-12-24 16:32:14.004235,599630763968946173,-168.00
2025-12-24 16:32:14.004235,599630763968946173,-84.00
2025-12-24 16:32:14.004235,599630763968946173,-91.00
2025-12-24 16:32:14.004235,599630763968946173,-112.00
2025-12-24 16:32:14.004235,599630763968946173,-86.00
2025-12-24 16:32:14.004235,599630763968946173,-74.00
2025-12-24 16:32:14.004235,599630763968946173,-77.00
2025-12-24 16:32:14.004235,599630763968946173,-67.00
2025-12-24 16:32:14.004235,599630763968946173,-60.00
2025-12-24 16:32:14.004235,599630763968946173,-58.00
2025-12-24 16:32:14.004235,599630763968946173,-49.00
2025-12-24 16:32:14.004235,599630763968946173,-42.00
2025-12-24 16:32:14.004235,599630763968946173,-30.00
2025-12-24 16:32:14.004235,599630763968946173,-14.00
2025-12-24 16:32:14.004235,599630763968946173,-2.00
2025-12-24 16:32:14.004235,599630763968946173,14.00
2025-12-24 16:32:14.004235,599630763968946173,32.00
2025-12-24 16:32:14.004235,599630763968946173,51.00
2025-12-24 16:32:14.004235,599630763968946173,70.00
2025-12-24 16:32:14.004235,599630763968946173,86.00
2025-12-24 16:32:14.004235,599630763968946173,100.00
2025-12-24 16:32:14.004235,599630763968946173,116.00
2025-12-24 16:32:14.004235,599630763968946173,133.00
2025-12-24 16:32:14.004235,599630763968946173,135.00
2025-12-24 16:32:14.004235,599630763968946173,126.00
2025-12-24 16:32:14.004235,599630763968946173,105.00
2025-12-24 16:32:14.004235,599630763968946173,67.00
2025-12-24 16:32:14.004235,599630763968946173,4.00
2025-12-24 16:32:14.004235,599630763968946173,-67.00
2025-12-24 16:32:14.752745,599630764529805976,-130.00
2025-12-24 16:32:14.752745,599630764529805976,-179.00
2025-12-24 16:32:14.752745,599630764529805976,-214.00
2025-12-24 16:32:14.752745,599630764529805976,-235.00
2025-12-24 16:32:14.752745,599630764529805976,-242.00
2025-12-24 16:32:14.752745,599630764529805976,-247.00
2025-12-24 16:32:14.752745,599630764529805976,-252.00
2025-12-24 16:32:14.752745,599630764529805976,-247.00
2025-12-24 16:32:14.752745,599630764529805976,-235.00
2025-12-24 16:32:14.752745,599630764529805976,-228.00
2025-12-24 16:32:14.752745,599630764529805976,-214.00
2025-12-24 16:32:14.752745,599630764529805976,-203.00
2025-12-24 16:32:14.752745,599630764529805976,-203.00
2025-12-24 16:32:14.752745,599630764529805976,-198.00
2025-12-24 16:32:14.752745,599630764529805976,-191.00
2025-12-24 16:32:14.752745,599630764529805976,-182.00
2025-12-24 16:32:14.752745,599630764529805976,-170.00
2025-12-24 16:32:14.752745,599630764529805976,-170.00
2025-12-24 16:32:14.752745,599630764529805976,-170.00
2025-12-24 16:32:14.752745,599630764529805976,-165.00
2025-12-24 16:32:14.752745,599630764529805976,-163.00
2025-12-24 16:32:14.752745,599630764529805976,-161.00
2025-12-24 16:32:14.752745,599630764529805976,-158.00
2025-12-24 16:32:14.752745,599630764529805976,-158.00
2025-12-24 16:32:14.752745,599630764529805976,-156.00
2025-12-24 16:32:14.752745,599630764529805976,-149.00
2025-12-24 16:32:14.752745,599630764529805976,-144.00
2025-12-24 16:32:14.752745,599630764529805976,-137.00
2025-12-24 16:32:14.752745,599630764529805976,-140.00
2025-12-24 16:32:14.752745,599630764529805976,-144.00
2025-12-24 16:32:14.752745,599630764529805976,-144.00
2025-12-24 16:32:14.752745,599630764529805976,-149.00
2025-12-24 16:32:14.752745,599630764529805976,-149.00
2025-12-24 16:32:14.752745,599630764529805976,-147.00
2025-12-24 16:32:14.752745,599630764529805976,-147.00
2025-12-24 16:32:14.752745,599630764529805976,-149.00
2025-12-24 16:32:14.752745,599630764529805976,-149.00
2025-12-24 16:32:14.752745,599630764529805976,-156.00
2025-12-24 16:32:14.752745,599630764529805976,-154.00
2025-12-24 16:32:14.752745,599630764529805976,-144.00
2025-12-24 16:32:14.752745,599630764529805976,-144.00
2025-12-24 16:32:14.752745,599630764529805976,-149.00
2025-12-24 16:32:14.752745,599630764529805976,-149.00
2025-12-24 16:32:14.752745,599630764529805976,-144.00
2025-12-24 16:32:14.752745,599630764529805976,-142.00
2025-12-24 16:32:14.752745,599630764529805976,-142.00
2025-12-24 16:32:14.752745,599630764529805976,-144.00
2025-12-24 16:32:14.752745,599630764529805976,-142.00
2025-12-24 16:32:14.752745,599630764529805976,-142.00
2025-12-24 16:32:14.752745,599630764529805976,-144.00
2025-12-24 16:32:14.752745,599630764529805976,-144.00
2025-12-24 16:32:14.752745,599630764529805976,-144.00
2025-12-24 16:32:14.752745,599630764529805976,-147.00
2025-12-24 16:32:14.752745,599630764529805976,-144.00
2025-12-24 16:32:14.752745,599630764529805976,-140.00
2025-12-24 16:32:14.752745,599630764529805976,-135.00
2025-12-24 16:32:14.752745,599630764529805976,-133.00
2025-12-24 16:32:14.752745,599630764529805976,-130.00
2025-12-24 16:32:14.752745,599630764529805976,-137.00
2025-12-24 16:32:14.752745,599630764529805976,-142.00
2025-12-24 16:32:14.752745,599630764529805976,-121.00
2025-12-24 16:32:14.752745,599630764529805976,-107.00
2025-12-24 16:32:14.752745,599630764529805976,-116.00
2025-12-24 16:32:14.752745,599630764529805976,-130.00
2025-12-24 16:32:14.752745,599630764529805976,-137.00
2025-12-24 16:32:14.752745,599630764529805976,-137.00
2025-12-24 16:32:14.752745,599630764529805976,-133.00
2025-12-24 16:32:14.752745,599630764529805976,-126.00
2025-12-24 16:32:14.752745,599630764529805976,-119.00
2025-12-24 16:32:14.752745,599630764529805976,-121.00
2025-12-24 16:32:14.752745,599630764529805976,-121.00
2025-12-24 16:32:14.752745,599630764529805976,-56.00
2025-12-24 16:32:14.752745,599630764529805976,156.00
2025-12-24 16:32:15.092685,599630765090660693,527.00
2025-12-24 16:32:15.092685,599630765090660693,712.00
2025-12-24 16:32:15.092685,599630765090660693,196.00
2025-12-24 16:32:15.092685,599630765090660693,-581.00
2025-12-24 16:32:15.092685,599630765090660693,-609.00
2025-12-24 16:32:15.092685,599630765090660693,-184.00
2025-12-24 16:32:15.092685,599630765090660693,-123.00
2025-12-24 16:32:15.092685,599630765090660693,-182.00
2025-12-24 16:32:15.092685,599630765090660693,-88.00
2025-12-24 16:32:15.092685,599630765090660693,-67.00
2025-12-24 16:32:15.092685,599630765090660693,-100.00
2025-12-24 16:32:15.092685,599630765090660693,-74.00
2025-12-24 16:32:15.092685,599630765090660693,-49.00
2025-12-24 16:32:15.092685,599630765090660693,-49.00
2025-12-24 16:32:15.092685,599630765090660693,-44.00
2025-12-24 16:32:15.092685,599630765090660693,-32.00
2025-12-24 16:32:15.092685,599630765090660693,-23.00
2025-12-24 16:32:15.092685,599630765090660693,-16.00
2025-12-24 16:32:15.092685,599630765090660693,-9.00
2025-12-24 16:32:15.092685,599630765090660693,4.00
2025-12-24 16:32:15.092685,599630765090660693,21.00
2025-12-24 16:32:15.092685,599630765090660693,30.00
2025-12-24 16:32:15.092685,599630765090660693,37.00
2025-12-24 16:32:15.092685,599630765090660693,49.00
2025-12-24 16:32:15.092685,599630765090660693,77.00
2025-12-24 16:32:15.092685,599630765090660693,107.00
2025-12-24 16:32:15.092685,599630765090660693,119.00
2025-12-24 16:32:15.092685,599630765090660693,126.00
2025-12-24 16:32:15.092685,599630765090660693,149.00
2025-12-24 16:32:15.092685,599630765090660693,168.00
2025-12-24 16:32:15.092685,599630765090660693,175.00
2025-12-24 16:32:15.092685,599630765090660693,172.00
2025-12-24 16:32:15.092685,599630765090660693,154.00
2025-12-24 16:32:15.092685,599630765090660693,119.00
2025-12-24 16:32:15.092685,599630765090660693,60.00
2025-12-24 16:32:15.092685,599630765090660693,-16.00
2025-12-24 16:32:15.092685,599630765090660693,-84.00
2025-12-24 16:32:15.092685,599630765090660693,-135.00
2025-12-24 16:32:15.092685,599630765090660693,-179.00
2025-12-24 16:32:15.092685,599630765090660693,-212.00
2025-12-24 16:32:15.092685,599630765090660693,-228.00
2025-12-24 16:32:15.092685,599630765090660693,-233.00
2025-12-24 16:32:15.092685,599630765090660693,-235.00
2025-12-24 16:32:15.092685,599630765090660693,-235.00
2025-12-24 16:32:15.092685,599630765090660693,-235.00
2025-12-24 16:32:15.092685,599630765090660693,-235.00
2025-12-24 16:32:15.092685,599630765090660693,-231.00
2025-12-24 16:32:15.092685,599630765090660693,-224.00
2025-12-24 16:32:15.092685,599630765090660693,-214.00
2025-12-24 16:32:15.092685,599630765090660693,-207.00
2025-12-24 16:32:15.092685,599630765090660693,-203.00
2025-12-24 16:32:15.092685,599630765090660693,-198.00
2025-12-24 16:32:15.092685,599630765090660693,-191.00
2025-12-24 16:32:15.092685,599630765090660693,-184.00
2025-12-24 16:32:15.092685,599630765090660693,-179.00
2025-12-24 16:32:15.092685,599630765090660693,-172.00
2025-12-24 16:32:15.092685,599630765090660693,-168.00
2025-12-24 16:32:15.092685,599630765090660693,-168.00
2025-12-24 16:32:15.092685,599630765090660693,-170.00
2025-12-24 16:32:15.092685,599630765090660693,-168.00
2025-12-24 16:32:15.092685,599630765090660693,-161.00
2025-12-24 16:32:15.092685,599630765090660693,-161.00
2025-12-24 16:32:15.092685,599630765090660693,-168.00
2025-12-24 16:32:15.092685,599630765090660693,-170.00
2025-12-24 16:32:15.092685,599630765090660693,-172.00
2025-12-24 16:32:15.092685,599630765090660693,-170.00
2025-12-24 16:32:15.092685,599630765090660693,-168.00
2025-12-24 16:32:15.092685,599630765090660693,-168.00
2025-12-24 16:32:15.092685,599630765090660693,-170.00
2025-12-24 16:32:15.092685,599630765090660693,-170.00
2025-12-24 16:32:15.092685,599630765090660693,-165.00
2025-12-24 16:32:15.092685,599630765090660693,-165.00
2025-12-24 16:32:15.092685,599630765090660693,-165.00
2025-12-24 16:32:15.599059,599630765651515410,-163.00
2025-12-24 16:32:15.599059,599630765651515410,-161.00
2025-12-24 16:32:15.599059,599630765651515410,-161.00
2025-12-24 16:32:15.599059,599630765651515410,-156.00
2025-12-24 16:32:15.599059,599630765651515410,-151.00
2025-12-24 16:32:15.599059,599630765651515410,-154.00
2025-12-24 16:32:15.599059,599630765651515410,-151.00
2025-12-24 16:32:15.599059,599630765651515410,-140.00
2025-12-24 16:32:15.599059,599630765651515410,-137.00
2025-12-24 16:32:15.599059,599630765651515410,-135.00
2025-12-24 16:32:15.599059,599630765651515410,-119.00
2025-12-24 16:32:15.599059,599630765651515410,-105.00
2025-12-24 16:32:15.599059,599630765651515410,-109.00
2025-12-24 16:32:15.599059,599630765651515410,-119.00
2025-12-24 16:32:15.599059,599630765651515410,-116.00
2025-12-24 16:32:15.599059,599630765651515410,-107.00
2025-12-24 16:32:15.599059,599630765651515410,-95.00
2025-12-24 16:32:15.599059,599630765651515410,-86.00
2025-12-24 16:32:15.599059,599630765651515410,-91.00
2025-12-24 16:32:15.599059,599630765651515410,-109.00
2025-12-24 16:32:15.599059,599630765651515410,-119.00
2025-12-24 16:32:15.599059,599630765651515410,-112.00
2025-12-24 16:32:15.599059,599630765651515410,-102.00
2025-12-24 16:32:15.599059,599630765651515410,-100.00
2025-12-24 16:32:15.599059,599630765651515410,-102.00
2025-12-24 16:32:15.599059,599630765651515410,-100.00
2025-12-24 16:32:15.599059,599630765651515410,-95.00
2025-12-24 16:32:15.599059,599630765651515410,-32.00
2025-12-24 16:32:15.599059,599630765651515410,179.00
2025-12-24 16:32:15.599059,599630765651515410,553.00
2025-12-24 16:32:15.599059,599630765651515410,763.00
2025-12-24 16:32:15.599059,599630765651515410,298.00
2025-12-24 16:32:15.599059,599630765651515410,-483.00
2025-12-24 16:32:15.599059,599630765651515410,-569.00
2025-12-24 16:32:15.599059,599630765651515410,-165.00
2025-12-24 16:32:15.599059,599630765651515410,-102.00
2025-12-24 16:32:15.599059,599630765651515410,-186.00
2025-12-24 16:32:15.599059,599630765651515410,-107.00
2025-12-24 16:32:15.599059,599630765651515410,-72.00
2025-12-24 16:32:15.599059,599630765651515410,-102.00
2025-12-24 16:32:15.599059,599630765651515410,-86.00
2025-12-24 16:32:15.599059,599630765651515410,-65.00
2025-12-24 16:32:15.599059,599630765651515410,-74.00
2025-12-24 16:32:15.599059,599630765651515410,-70.00
2025-12-24 16:32:15.599059,599630765651515410,-58.00
2025-12-24 16:32:15.599059,599630765651515410,-56.00
2025-12-24 16:32:15.599059,599630765651515410,-46.00
2025-12-24 16:32:15.599059,599630765651515410,-39.00
2025-12-24 16:32:15.599059,599630765651515410,-35.00
2025-12-24 16:32:15.599059,599630765651515410,-23.00
2025-12-24 16:32:15.599059,599630765651515410,-9.00
2025-12-24 16:32:15.599059,599630765651515410,4.00
2025-12-24 16:32:15.599059,599630765651515410,18.00
2025-12-24 16:32:15.599059,599630765651515410,32.00
2025-12-24 16:32:15.599059,599630765651515410,49.00
2025-12-24 16:32:15.599059,599630765651515410,70.00
2025-12-24 16:32:15.599059,599630765651515410,88.00
2025-12-24 16:32:15.599059,599630765651515410,109.00
2025-12-24 16:32:15.599059,599630765651515410,121.00
2025-12-24 16:32:15.599059,599630765651515410,123.00
2025-12-24 16:32:15.599059,599630765651515410,123.00
2025-12-24 16:32:15.599059,599630765651515410,109.00
2025-12-24 16:32:15.599059,599630765651515410,67.00
2025-12-24 16:32:15.599059,599630765651515410,4.00
2025-12-24 16:32:15.599059,599630765651515410,-74.00
2025-12-24 16:32:15.599059,599630765651515410,-151.00
2025-12-24 16:32:15.599059,599630765651515410,-205.00
2025-12-24 16:32:15.599059,599630765651515410,-240.00
2025-12-24 16:32:15.599059,599630765651515410,-266.00
2025-12-24 16:32:15.599059,599630765651515410,-277.00
2025-12-24 16:32:15.599059,599630765651515410,-277.00
2025-12-24 16:32:15.599059,599630765651515410,-275.00
2025-12-24 16:32:15.599059,599630765651515410,-266.00
2025-12-24 16:32:16.174225,599630766212375215,-261.00
2025-12-24 16:32:16.174225,599630766212375215,-261.00
2025-12-24 16:32:16.174225,599630766212375215,-259.00
2025-12-24 16:32:16.174225,599630766212375215,-249.00
2025-12-24 16:32:16.174225,599630766212375215,-238.00
2025-12-24 16:32:16.174225,599630766212375215,-224.00
2025-12-24 16:32:16.174225,599630766212375215,-219.00
2025-12-24 16:32:16.174225,599630766212375215,-207.00
2025-12-24 16:32:16.174225,599630766212375215,-189.00
2025-12-24 16:32:16.174225,599630766212375215,-182.00
2025-12-24 16:32:16.174225,599630766212375215,-182.00
2025-12-24 16:32:16.174225,599630766212375215,-175.00
2025-12-24 16:32:16.174225,599630766212375215,-170.00
2025-12-24 16:32:16.174225,599630766212375215,-163.00
2025-12-24 16:32:16.174225,599630766212375215,-158.00
2025-12-24 16:32:16.174225,599630766212375215,-161.00
2025-12-24 16:32:16.174225,599630766212375215,-161.00
2025-12-24 16:32:16.174225,599630766212375215,-161.00
2025-12-24 16:32:16.174225,599630766212375215,-163.00
2025-12-24 16:32:16.174225,599630766212375215,-165.00
2025-12-24 16:32:16.174225,599630766212375215,-163.00
2025-12-24 16:32:16.174225,599630766212375215,-161.00
2025-12-24 16:32:16.174225,599630766212375215,-158.00
2025-12-24 16:32:16.174225,599630766212375215,-158.00
2025-12-24 16:32:16.174225,599630766212375215,-156.00
2025-12-24 16:32:16.174225,599630766212375215,-154.00
2025-12-24 16:32:16.174225,599630766212375215,-158.00
2025-12-24 16:32:16.174225,599630766212375215,-161.00
2025-12-24 16:32:16.174225,599630766212375215,-156.00
2025-12-24 16:32:16.174225,599630766212375215,-154.00
2025-12-24 16:32:16.174225,599630766212375215,-151.00
2025-12-24 16:32:16.174225,599630766212375215,-149.00
2025-12-24 16:32:16.174225,599630766212375215,-149.00
2025-12-24 16:32:16.174225,599630766212375215,-151.00
2025-12-24 16:32:16.174225,599630766212375215,-151.00
2025-12-24 16:32:16.174225,599630766212375215,-149.00
2025-12-24 16:32:16.174225,599630766212375215,-144.00
2025-12-24 16:32:16.174225,599630766212375215,-140.00
2025-12-24 16:32:16.174225,599630766212375215,-135.00
2025-12-24 16:32:16.174225,599630766212375215,-133.00
2025-12-24 16:32:16.174225,599630766212375215,-130.00
2025-12-24 16:32:16.174225,599630766212375215,-128.00
2025-12-24 16:32:16.174225,599630766212375215,-121.00
2025-12-24 16:32:16.174225,599630766212375215,-119.00
2025-12-24 16:32:16.174225,599630766212375215,-128.00
2025-12-24 16:32:16.174225,599630766212375215,-130.00
2025-12-24 16:32:16.174225,599630766212375215,-128.00
2025-12-24 16:32:16.174225,599630766212375215,-128.00
2025-12-24 16:32:16.174225,599630766212375215,-116.00
2025-12-24 16:32:16.174225,599630766212375215,-100.00
2025-12-24 16:32:16.174225,599630766212375215,-102.00
2025-12-24 16:32:16.174225,599630766212375215,-121.00
2025-12-24 16:32:16.174225,599630766212375215,-133.00
2025-12-24 16:32:16.174225,599630766212375215,-133.00
2025-12-24 16:32:16.174225,599630766212375215,-128.00
2025-12-24 16:32:16.174225,599630766212375215,-126.00
2025-12-24 16:32:16.174225,599630766212375215,-126.00
2025-12-24 16:32:16.174225,599630766212375215,-128.00
2025-12-24 16:32:16.174225,599630766212375215,-128.00
2025-12-24 16:32:16.174225,599630766212375215,-102.00
2025-12-24 16:32:16.174225,599630766212375215,28.00
2025-12-24 16:32:16.174225,599630766212375215,340.00
2025-12-24 16:32:16.174225,599630766212375215,691.00
2025-12-24 16:32:16.174225,599630766212375215,593.00
2025-12-24 16:32:16.174225,599630766212375215,-137.00
2025-12-24 16:32:16.174225,599630766212375215,-628.00
2025-12-24 16:32:16.174225,599630766212375215,-340.00
2025-12-24 16:32:16.174225,599630766212375215,-79.00
2025-12-24 16:32:16.174225,599630766212375215,-172.00
2025-12-24 16:32:16.174225,599630766212375215,-168.00
2025-12-24 16:32:16.174225,599630766212375215,-84.00
2025-12-24 16:32:16.174225,599630766212375215,-100.00
2025-12-24 16:32:16.174225,599630766212375215,-112.00
2025-12-24 16:32:16.757413,599630766773224846,-81.00
2025-12-24 16:32:16.757413,599630766773224846,-79.00
2025-12-24 16:32:16.757413,599630766773224846,-84.00
2025-12-24 16:32:16.757413,599630766773224846,-67.00
2025-12-24 16:32:16.757413,599630766773224846,-51.00
2025-12-24 16:32:16.757413,599630766773224846,-35.00
2025-12-24 16:32:16.757413,599630766773224846,-25.00
2025-12-24 16:32:16.757413,599630766773224846,-25.00
2025-12-24 16:32:16.757413,599630766773224846,-21.00
2025-12-24 16:32:16.757413,599630766773224846,-11.00
2025-12-24 16:32:16.757413,599630766773224846,2.00
2025-12-24 16:32:16.757413,599630766773224846,18.00
2025-12-24 16:32:16.757413,599630766773224846,28.00
2025-12-24 16:32:16.757413,599630766773224846,44.00
2025-12-24 16:32:16.757413,599630766773224846,67.00
2025-12-24 16:32:16.757413,599630766773224846,88.00
2025-12-24 16:32:16.757413,599630766773224846,102.00
2025-12-24 16:32:16.757413,599630766773224846,116.00
2025-12-24 16:32:16.757413,599630766773224846,126.00
2025-12-24 16:32:16.757413,599630766773224846,126.00
2025-12-24 16:32:16.757413,599630766773224846,116.00
2025-12-24 16:32:16.757413,599630766773224846,100.00
2025-12-24 16:32:16.757413,599630766773224846,60.00
2025-12-24 16:32:16.757413,599630766773224846,-9.00
2025-12-24 16:32:16.757413,599630766773224846,-95.00
2025-12-24 16:32:16.757413,599630766773224846,-161.00
2025-12-24 16:32:16.757413,599630766773224846,-200.00
2025-12-24 16:32:16.757413,599630766773224846,-231.00
2025-12-24 16:32:16.757413,599630766773224846,-249.00
2025-12-24 16:32:16.757413,599630766773224846,-256.00
2025-12-24 16:32:16.757413,599630766773224846,-259.00
2025-12-24 16:32:16.757413,599630766773224846,-259.00
2025-12-24 16:32:16.757413,599630766773224846,-256.00
2025-12-24 16:32:16.757413,599630766773224846,-254.00
2025-12-24 16:32:16.757413,599630766773224846,-252.00
2025-12-24 16:32:16.757413,599630766773224846,-245.00
2025-12-24 16:32:16.757413,599630766773224846,-238.00
2025-12-24 16:32:16.757413,599630766773224846,-231.00
2025-12-24 16:32:16.757413,599630766773224846,-224.00
2025-12-24 16:32:16.757413,599630766773224846,-217.00
2025-12-24 16:32:16.757413,599630766773224846,-207.00
2025-12-24 16:32:16.757413,599630766773224846,-200.00
2025-12-24 16:32:16.757413,599630766773224846,-200.00
2025-12-24 16:32:16.757413,599630766773224846,-198.00
2025-12-24 16:32:16.757413,599630766773224846,-189.00
2025-12-24 16:32:16.757413,599630766773224846,-184.00
2025-12-24 16:32:16.757413,599630766773224846,-184.00
2025-12-24 16:32:16.757413,599630766773224846,-179.00
2025-12-24 16:32:16.757413,599630766773224846,-175.00
2025-12-24 16:32:16.757413,599630766773224846,-170.00
2025-12-24 16:32:16.757413,599630766773224846,-165.00
2025-12-24 16:32:16.757413,599630766773224846,-158.00
2025-12-24 16:32:16.757413,599630766773224846,-156.00
2025-12-24 16:32:16.757413,599630766773224846,-154.00
2025-12-24 16:32:16.757413,599630766773224846,-149.00
2025-12-24 16:32:16.757413,599630766773224846,-149.00
2025-12-24 16:32:16.757413,599630766773224846,-151.00
2025-12-24 16:32:16.757413,599630766773224846,-147.00
2025-12-24 16:32:16.757413,599630766773224846,-144.00
2025-12-24 16:32:16.757413,599630766773224846,-147.00
2025-12-24 16:32:16.757413,599630766773224846,-149.00
2025-12-24 16:32:16.757413,599630766773224846,-140.00
2025-12-24 16:32:16.757413,599630766773224846,-133.00
2025-12-24 16:32:16.757413,599630766773224846,-126.00
2025-12-24 16:32:16.757413,599630766773224846,-123.00
2025-12-24 16:32:16.757413,599630766773224846,-123.00
2025-12-24 16:32:16.757413,599630766773224846,-121.00
2025-12-24 16:32:16.757413,599630766773224846,-114.00
2025-12-24 16:32:16.757413,599630766773224846,-109.00
2025-12-24 16:32:16.757413,599630766773224846,-105.00
2025-12-24 16:32:16.757413,599630766773224846,-105.00
2025-12-24 16:32:16.757413,599630766773224846,-105.00
2025-12-24 16:32:16.757413,599630766773224846,-102.00
2025-12-24 16:32:17.357734,599630767334079565,-100.00
2025-12-24 16:32:17.357734,599630767334079565,-98.00
2025-12-24 16:32:17.357734,599630767334079565,-95.00
2025-12-24 16:32:17.357734,599630767334079565,-95.00
2025-12-24 16:32:17.357734,599630767334079565,-95.00
2025-12-24 16:32:17.357734,599630767334079565,-91.00
2025-12-24 16:32:17.357734,599630767334079565,-93.00
2025-12-24 16:32:17.357734,599630767334079565,-84.00
2025-12-24 16:32:17.357734,599630767334079565,-70.00
