Timestamp,Device Timestamp (ns),ECG Value (uV)
2025-12-24 17:01:14.636066,599632504494486965,-37.00
2025-12-24 17:01:14.636066,599632504494486965,-39.00
2025-12-24 17:01:14.636066,599632504494486965,-42.00
2025-12-24 17:01:14.636066,599632504494486965,-39.00
2025-12-24 17:01:14.636066,599632504494486965,-37.00
2025-12-24 17:01:14.636066,599632504494486965,-21.00
2025-12-24 17:01:14.636066,599632504494486965,65.00
2025-12-24 17:01:14.636066,599632504494486965,303.00
2025-12-24 17:01:14.636066,599632504494486965,651.00
2025-12-24 17:01:14.636066,599632504494486965,749.00
2025-12-24 17:01:14.636066,599632504494486965,228.00
2025-12-24 17:01:14.636066,599632504494486965,-404.00
2025-12-24 17:01:14.636066,599632504494486965,-338.00
2025-12-24 17:01:14.636066,599632504494486965,0.00
2025-12-24 17:01:14.636066,599632504494486965,-18.00
2025-12-24 17:01:14.636066,599632504494486965,-86.00
2025-12-24 17:01:14.636066,599632504494486965,-18.00
2025-12-24 17:01:14.636066,599632504494486965,-7.00
2025-12-24 17:01:14.636066,599632504494486965,-35.00
2025-12-24 17:01:14.636066,599632504494486965,-16.00
2025-12-24 17:01:14.636066,599632504494486965,-2.00
2025-12-24 17:01:14.636066,599632504494486965,-7.00
2025-12-24 17:01:14.636066,599632504494486965,0.00
2025-12-24 17:01:14.636066,599632504494486965,11.00
2025-12-24 17:01:14.636066,599632504494486965,21.00
2025-12-24 17:01:14.636066,599632504494486965,28.00
2025-12-24 17:01:14.636066,599632504494486965,39.00
2025-12-24 17:01:14.636066,599632504494486965,51.00
2025-12-24 17:01:14.636066,599632504494486965,63.00
2025-12-24 17:01:14.636066,599632504494486965,72.00
2025-12-24 17:01:14.636066,599632504494486965,81.00
2025-12-24 17:01:14.636066,599632504494486965,95.00
2025-12-24 17:01:14.636066,599632504494486965,114.00
2025-12-24 17:01:14.636066,599632504494486965,130.00
2025-12-24 17:01:14.636066,599632504494486965,142.00
2025-12-24 17:01:14.636066,599632504494486965,156.00
2025-12-24 17:01:14.636066,599632504494486965,168.00
2025-12-24 17:01:14.636066,599632504494486965,165.00
2025-12-24 17:01:14.636066,599632504494486965,154.00
2025-12-24 17:01:14.636066,599632504494486965,128.00
2025-12-24 17:01:14.636066,599632504494486965,84.00
2025-12-24 17:01:14.636066,599632504494486965,18.00
2025-12-24 17:01:14.636066,599632504494486965,-51.00
2025-12-24 17:01:14.636066,599632504494486965,-109.00
2025-12-24 17:01:14.636066,599632504494486965,-144.00
2025-12-24 17:01:14.636066,599632504494486965,-168.00
2025-12-24 17:01:14.636066,599632504494486965,-179.00
2025-12-24 17:01:14.636066,599632504494486965,-189.00
2025-12-24 17:01:14.636066,599632504494486965,-191.00
2025-12-24 17:01:14.636066,599632504494486965,-186.00
2025-12-24 17:01:14.636066,599632504494486965,-179.00
2025-12-24 17:01:14.636066,599632504494486965,-175.00
2025-12-24 17:01:14.636066,599632504494486965,-170.00
2025-12-24 17:01:14.636066,599632504494486965,-161.00
2025-12-24 17:01:14.636066,599632504494486965,-149.00
2025-12-24 17:01:14.636066,599632504494486965,-142.00
2025-12-24 17:01:14.636066,599632504494486965,-137.00
2025-12-24 17:01:14.636066,599632504494486965,-128.00
2025-12-24 17:01:14.636066,599632504494486965,-119.00
2025-12-24 17:01:14.636066,599632504494486965,-114.00
2025-12-24 17:01:14.636066,599632504494486965,-109.00
2025-12-24 17:01:14.636066,599632504494486965,-100.00
2025-12-24 17:01:14.636066,599632504494486965,-95.00
2025-12-24 17:01:14.636066,599632504494486965,-91.00
2025-12-24 17:01:14.636066,599632504494486965,-86.00
2025-12-24 17:01:14.636066,599632504494486965,-81.00
2025-12-24 17:01:14.636066,599632504494486965,-79.00
2025-12-24 17:01:14.636066,599632504494486965,-77.00
2025-12-24 17:01:14.636066,599632504494486965,-74.00
2025-12-24 17:01:14.636066,599632504494486965,-74.00
2025-12-24 17:01:14.636066,599632504494486965,-77.00
2025-12-24 17:01:14.636066,599632504494486965,-74.00
2025-12-24 17:01:14.636066,599632504494486965,-72.00
2025-12-24 17:01:14.937153,599632505055372200,-74.00
2025-12-24 17:01:14.937153,599632505055372200,-77.00
2025-12-24 17:01:14.937153,599632505055372200,-79.00
2025-12-24 17:01:14.937153,599632505055372200,-79.00
2025-12-24 17:01:14.937153,599632505055372200,-79.00
2025-12-24 17:01:14.937153,599632505055372200,-77.00
2025-12-24 17:01:14.937153,599632505055372200,-72.00
2025-12-24 17:01:14.937153,599632505055372200,-60.00
2025-12-24 17:01:14.937153,599632505055372200,-63.00
2025-12-24 17:01:14.937153,599632505055372200,-67.00
2025-12-24 17:01:14.937153,599632505055372200,-67.00
2025-12-24 17:01:14.937153,599632505055372200,-65.00
2025-12-24 17:01:14.937153,599632505055372200,-67.00
2025-12-24 17:01:14.937153,599632505055372200,-67.00
2025-12-24 17:01:14.937153,599632505055372200,-67.00
2025-12-24 17:01:14.937153,599632505055372200,-70.00
2025-12-24 17:01:14.937153,599632505055372200,-67.00
2025-12-24 17:01:14.937153,599632505055372200,-65.00
2025-12-24 17:01:14.937153,599632505055372200,-67.00
2025-12-24 17:01:14.937153,599632505055372200,-67.00
2025-12-24 17:01:14.937153,599632505055372200,-67.00
2025-12-24 17:01:14.937153,599632505055372200,-70.00
2025-12-24 17:01:14.937153,599632505055372200,-72.00
2025-12-24 17:01:14.937153,599632505055372200,-74.00
2025-12-24 17:01:14.937153,599632505055372200,-70.00
2025-12-24 17:01:14.937153,599632505055372200,-70.00
2025-12-24 17:01:14.937153,599632505055372200,-74.00
2025-12-24 17:01:14.937153,599632505055372200,-74.00
2025-12-24 17:01:14.937153,599632505055372200,-74.00
2025-12-24 17:01:14.937153,599632505055372200,-74.00
2025-12-24 17:01:14.937153,599632505055372200,-77.00
2025-12-24 17:01:14.937153,599632505055372200,-81.00
2025-12-24 17:01:14.937153,599632505055372200,-81.00
2025-12-24 17:01:14.937153,599632505055372200,-79.00
2025-12-24 17:01:14.937153,599632505055372200,-74.00
2025-12-24 17:01:14.937153,599632505055372200,-77.00
2025-12-24 17:01:14.937153,599632505055372200,-79.00
2025-12-24 17:01:14.937153,599632505055372200,-79.00
2025-12-24 17:01:14.937153,599632505055372200,-79.00
2025-12-24 17:01:14.937153,599632505055372200,-84.00
2025-12-24 17:01:14.937153,599632505055372200,-67.00
2025-12-24 17:01:14.937153,599632505055372200,-49.00
2025-12-24 17:01:14.937153,599632505055372200,-60.00
2025-12-24 17:01:14.937153,599632505055372200,-86.00
2025-12-24 17:01:14.937153,599632505055372200,-93.00
2025-12-24 17:01:14.937153,599632505055372200,-84.00
2025-12-24 17:01:14.937153,599632505055372200,-77.00
2025-12-24 17:01:14.937153,599632505055372200,-70.00
2025-12-24 17:01:14.937153,599632505055372200,-70.00
2025-12-24 17:01:14.937153,599632505055372200,-67.00
2025-12-24 17:01:14.937153,599632505055372200,-70.00
2025-12-24 17:01:14.937153,599632505055372200,-72.00
2025-12-24 17:01:14.937153,599632505055372200,-28.00
2025-12-24 17:01:14.937153,599632505055372200,140.00
2025-12-24 17:01:14.937153,599632505055372200,462.00
2025-12-24 17:01:14.937153,599632505055372200,710.00
2025-12-24 17:01:14.937153,599632505055372200,429.00
2025-12-24 17:01:14.937153,599632505055372200,-273.00
2025-12-24 17:01:14.937153,599632505055372200,-523.00
2025-12-24 17:01:14.937153,599632505055372200,-172.00
2025-12-24 17:01:14.937153,599632505055372200,-21.00
2025-12-24 17:01:14.937153,599632505055372200,-123.00
2025-12-24 17:01:14.937153,599632505055372200,-91.00
2025-12-24 17:01:14.937153,599632505055372200,-37.00
2025-12-24 17:01:14.937153,599632505055372200,-65.00
2025-12-24 17:01:14.937153,599632505055372200,-63.00
2025-12-24 17:01:14.937153,599632505055372200,-37.00
2025-12-24 17:01:14.937153,599632505055372200,-44.00
2025-12-24 17:01:14.937153,599632505055372200,-46.00
2025-12-24 17:01:14.937153,599632505055372200,-28.00
2025-12-24 17:01:14.937153,599632505055372200,-16.00
2025-12-24 17:01:14.937153,599632505055372200,-14.00
2025-12-24 17:01:14.937153,599632505055372200,-7.00
2025-12-24 17:01:15.589388,599632505616252353,2.00
2025-12-24 17:01:15.589388,599632505616252353,11.00
2025-12-24 17:01:15.589388,599632505616252353,28.00
2025-12-24 17:01:15.589388,599632505616252353,56.00
2025-12-24 17:01:15.589388,599632505616252353,84.00
2025-12-24 17:01:15.589388,599632505616252353,95.00
2025-12-24 17:01:15.589388,599632505616252353,109.00
2025-12-24 17:01:15.589388,599632505616252353,130.00
2025-12-24 17:01:15.589388,599632505616252353,147.00
2025-12-24 17:01:15.589388,599632505616252353,156.00
2025-12-24 17:01:15.589388,599632505616252353,163.00
2025-12-24 17:01:15.589388,599632505616252353,156.00
2025-12-24 17:01:15.589388,599632505616252353,135.00
2025-12-24 17:01:15.589388,599632505616252353,98.00
2025-12-24 17:01:15.589388,599632505616252353,42.00
2025-12-24 17:01:15.589388,599632505616252353,-25.00
2025-12-24 17:01:15.589388,599632505616252353,-88.00
2025-12-24 17:01:15.589388,599632505616252353,-133.00
2025-12-24 17:01:15.589388,599632505616252353,-165.00
2025-12-24 17:01:15.589388,599632505616252353,-189.00
2025-12-24 17:01:15.589388,599632505616252353,-191.00
2025-12-24 17:01:15.589388,599632505616252353,-191.00
2025-12-24 17:01:15.589388,599632505616252353,-191.00
2025-12-24 17:01:15.589388,599632505616252353,-191.00
2025-12-24 17:01:15.589388,599632505616252353,-189.00
2025-12-24 17:01:15.589388,599632505616252353,-184.00
2025-12-24 17:01:15.589388,599632505616252353,-177.00
2025-12-24 17:01:15.589388,599632505616252353,-170.00
2025-12-24 17:01:15.589388,599632505616252353,-163.00
2025-12-24 17:01:15.589388,599632505616252353,-156.00
2025-12-24 17:01:15.589388,599632505616252353,-151.00
2025-12-24 17:01:15.589388,599632505616252353,-151.00
2025-12-24 17:01:15.589388,599632505616252353,-147.00
2025-12-24 17:01:15.589388,599632505616252353,-135.00
2025-12-24 17:01:15.589388,599632505616252353,-130.00
2025-12-24 17:01:15.589388,599632505616252353,-130.00
2025-12-24 17:01:15.589388,599632505616252353,-126.00
2025-12-24 17:01:15.589388,599632505616252353,-121.00
2025-12-24 17:01:15.589388,599632505616252353,-116.00
2025-12-24 17:01:15.589388,599632505616252353,-105.00
2025-12-24 17:01:15.589388,599632505616252353,-98.00
2025-12-24 17:01:15.589388,599632505616252353,-98.00
2025-12-24 17:01:15.589388,599632505616252353,-98.00
2025-12-24 17:01:15.589388,599632505616252353,-95.00
2025-12-24 17:01:15.589388,599632505616252353,-93.00
2025-12-24 17:01:15.589388,599632505616252353,-91.00
2025-12-24 17:01:15.589388,599632505616252353,-93.00
2025-12-24 17:01:15.589388,599632505616252353,-100.00
2025-12-24 17:01:15.589388,599632505616252353,-98.00
2025-12-24 17:01:15.589388,599632505616252353,-93.00
2025-12-24 17:01:15.589388,599632505616252353,-93.00
2025-12-24 17:01:15.589388,599632505616252353,-91.00
2025-12-24 17:01:15.589388,599632505616252353,-91.00
2025-12-24 17:01:15.589388,599632505616252353,-93.00
2025-12-24 17:01:15.589388,599632505616252353,-95.00
2025-12-24 17:01:15.589388,599632505616252353,-93.00
2025-12-24 17:01:15.589388,599632505616252353,-88.00
2025-12-24 17:01:15.589388,599632505616252353,-86.00
2025-12-24 17:01:15.589388,599632505616252353,-88.00
2025-12-24 17:01:15.589388,599632505616252353,-91.00
2025-12-24 17:01:15.589388,599632505616252353,-91.00
2025-12-24 17:01:15.589388,599632505616252353,-91.00
2025-12-24 17:01:15.589388,599632505616252353,-88.00
2025-12-24 17:01:15.589388,599632505616252353,-84.00
2025-12-24 17:01:15.589388,599632505616252353,-84.00
2025-12-24 17:01:15.589388,599632505616252353,-86.00
2025-12-24 17:01:15.589388,599632505616252353,-91.00
2025-12-24 17:01:15.589388,599632505616252353,-91.00
2025-12-24 17:01:15.589388,599632505616252353,-86.00
2025-12-24 17:01:15.589388,599632505616252353,-79.00
2025-12-24 17:01:15.589388,599632505616252353,-74.00
2025-12-24 17:01:15.589388,599632505616252353,-74.00
2025-12-24 17:01:15.589388,599632505616252353,-72.00
2025-12-24 17:01:16.140918,599632506177142674,-74.00
2025-12-24 17:01:16.140918,599632506177142674,-79.00
2025-12-24 17:01:16.140918,599632506177142674,-72.00
2025-12-24 17:01:16.140918,599632506177142674,-53.00
2025-12-24 17:01:16.140918,599632506177142674,-53.00
2025-12-24 17:01:16.140918,599632506177142674,-77.00
2025-12-24 17:01:16.140918,599632506177142674,-91.00
2025-12-24 17:01:16.140918,599632506177142674,-79.00
2025-12-24 17:01:16.140918,599632506177142674,-72.00
2025-12-24 17:01:16.140918,599632506177142674,-77.00
2025-12-24 17:01:16.140918,599632506177142674,-77.00
2025-12-24 17:01:16.140918,599632506177142674,-72.00
2025-12-24 17:01:16.140918,599632506177142674,-63.00
2025-12-24 17:01:16.140918,599632506177142674,-53.00
2025-12-24 17:01:16.140918,599632506177142674,-14.00
2025-12-24 17:01:16.140918,599632506177142674,133.00
2025-12-24 17:01:16.140918,599632506177142674,457.00
2025-12-24 17:01:16.140918,599632506177142674,738.00
2025-12-24 17:01:16.140918,599632506177142674,469.00
2025-12-24 17:01:16.140918,599632506177142674,-282.00
2025-12-24 17:01:16.140918,599632506177142674,-567.00
2025-12-24 17:01:16.140918,599632506177142674,-193.00
2025-12-24 17:01:16.140918,599632506177142674,-16.00
2025-12-24 17:01:16.140918,599632506177142674,-109.00
2025-12-24 17:01:16.140918,599632506177142674,-60.00
2025-12-24 17:01:16.140918,599632506177142674,-2.00
2025-12-24 17:01:16.140918,599632506177142674,-32.00
2025-12-24 17:01:16.140918,599632506177142674,-28.00
2025-12-24 17:01:16.140918,599632506177142674,-4.00
2025-12-24 17:01:16.140918,599632506177142674,-9.00
2025-12-24 17:01:16.140918,599632506177142674,-2.00
2025-12-24 17:01:16.140918,599632506177142674,23.00
2025-12-24 17:01:16.140918,599632506177142674,32.00
2025-12-24 17:01:16.140918,599632506177142674,37.00
2025-12-24 17:01:16.140918,599632506177142674,44.00
2025-12-24 17:01:16.140918,599632506177142674,53.00
2025-12-24 17:01:16.140918,599632506177142674,63.00
2025-12-24 17:01:16.140918,599632506177142674,74.00
2025-12-24 17:01:16.140918,599632506177142674,93.00
2025-12-24 17:01:16.140918,599632506177142674,112.00
2025-12-24 17:01:16.140918,599632506177142674,126.00
2025-12-24 17:01:16.140918,599632506177142674,140.00
2025-12-24 17:01:16.140918,599632506177142674,161.00
2025-12-24 17:01:16.140918,599632506177142674,177.00
2025-12-24 17:01:16.140918,599632506177142674,186.00
2025-12-24 17:01:16.140918,599632506177142674,193.00
2025-12-24 17:01:16.140918,599632506177142674,186.00
2025-12-24 17:01:16.140918,599632506177142674,165.00
2025-12-24 17:01:16.140918,599632506177142674,128.00
2025-12-24 17:01:16.140918,599632506177142674,67.00
2025-12-24 17:01:16.140918,599632506177142674,-7.00
2025-12-24 17:01:16.140918,599632506177142674,-74.00
2025-12-24 17:01:16.140918,599632506177142674,-123.00
2025-12-24 17:01:16.140918,599632506177142674,-156.00
2025-12-24 17:01:16.140918,599632506177142674,-172.00
2025-12-24 17:01:16.140918,599632506177142674,-175.00
2025-12-24 17:01:16.140918,599632506177142674,-175.00
2025-12-24 17:01:16.140918,599632506177142674,-172.00
2025-12-24 17:01:16.140918,599632506177142674,-170.00
2025-12-24 17:01:16.140918,599632506177142674,-165.00
2025-12-24 17:01:16.140918,599632506177142674,-158.00
2025-12-24 17:01:16.140918,599632506177142674,-151.00
2025-12-24 17:01:16.140918,599632506177142674,-144.00
2025-12-24 17:01:16.140918,599632506177142674,-135.00
2025-12-24 17:01:16.140918,599632506177142674,-130.00
2025-12-24 17:01:16.140918,599632506177142674,-126.00
2025-12-24 17:01:16.140918,599632506177142674,-116.00
2025-12-24 17:01:16.140918,599632506177142674,-112.00
2025-12-24 17:01:16.140918,599632506177142674,-107.00
2025-12-24 17:01:16.140918,599632506177142674,-102.00
2025-12-24 17:01:16.140918,599632506177142674,-102.00
2025-12-24 17:01:16.140918,599632506177142674,-100.00
2025-12-24 17:01:16.140918,599632506177142674,-88.00
2025-12-24 17:01:16.642110,599632506738027909,-81.00
2025-12-24 17:01:16.642110,599632506738027909,-81.00
2025-12-24 17:01:16.642110,599632506738027909,-79.00
2025-12-24 17:01:16.642110,599632506738027909,-79.00
2025-12-24 17:01:16.642110,599632506738027909,-79.00
2025-12-24 17:01:16.642110,599632506738027909,-79.00
2025-12-24 17:01:16.642110,599632506738027909,-77.00
2025-12-24 17:01:16.642110,599632506738027909,-74.00
2025-12-24 17:01:16.642110,599632506738027909,-74.00
2025-12-24 17:01:16.642110,599632506738027909,-72.00
2025-12-24 17:01:16.642110,599632506738027909,-58.00
2025-12-24 17:01:16.642110,599632506738027909,-51.00
2025-12-24 17:01:16.642110,599632506738027909,-56.00
2025-12-24 17:01:16.642110,599632506738027909,-56.00
2025-12-24 17:01:16.642110,599632506738027909,-56.00
2025-12-24 17:01:16.642110,599632506738027909,-58.00
2025-12-24 17:01:16.642110,599632506738027909,-56.00
2025-12-24 17:01:16.642110,599632506738027909,-53.00
2025-12-24 17:01:16.642110,599632506738027909,-58.00
2025-12-24 17:01:16.642110,599632506738027909,-58.00
2025-12-24 17:01:16.642110,599632506738027909,-53.00
2025-12-24 17:01:16.642110,599632506738027909,-51.00
2025-12-24 17:01:16.642110,599632506738027909,-53.00
2025-12-24 17:01:16.642110,599632506738027909,-49.00
2025-12-24 17:01:16.642110,599632506738027909,-39.00
2025-12-24 17:01:16.642110,599632506738027909,-35.00
2025-12-24 17:01:16.642110,599632506738027909,-35.00
2025-12-24 17:01:16.642110,599632506738027909,-32.00
2025-12-24 17:01:16.642110,599632506738027909,-32.00
2025-12-24 17:01:16.642110,599632506738027909,-39.00
2025-12-24 17:01:16.642110,599632506738027909,-44.00
2025-12-24 17:01:16.642110,599632506738027909,-44.00
2025-12-24 17:01:16.642110,599632506738027909,-35.00
2025-12-24 17:01:16.642110,599632506738027909,-23.00
2025-12-24 17:01:16.642110,599632506738027909,-21.00
2025-12-24 17:01:16.642110,599632506738027909,-42.00
2025-12-24 17:01:16.642110,599632506738027909,-56.00
2025-12-24 17:01:16.642110,599632506738027909,-56.00
2025-12-24 17:01:16.642110,599632506738027909,-51.00
2025-12-24 17:01:16.642110,599632506738027909,-51.00
2025-12-24 17:01:16.642110,599632506738027909,-51.00
2025-12-24 17:01:16.642110,599632506738027909,-51.00
2025-12-24 17:01:16.642110,599632506738027909,-53.00
2025-12-24 17:01:16.642110,599632506738027909,-51.00
2025-12-24 17:01:16.642110,599632506738027909,-21.00
2025-12-24 17:01:16.642110,599632506738027909,112.00
2025-12-24 17:01:16.642110,599632506738027909,408.00
2025-12-24 17:01:16.642110,599632506738027909,719.00
2025-12-24 17:01:16.642110,599632506738027909,593.00
2025-12-24 17:01:16.642110,599632506738027909,-102.00
2025-12-24 17:01:16.642110,599632506738027909,-544.00
2025-12-24 17:01:16.642110,599632506738027909,-254.00
2025-12-24 17:01:16.642110,599632506738027909,2.00
2025-12-24 17:01:16.642110,599632506738027909,-79.00
2025-12-24 17:01:16.642110,599632506738027909,-74.00
2025-12-24 17:01:16.642110,599632506738027909,-4.00
2025-12-24 17:01:16.642110,599632506738027909,-21.00
2025-12-24 17:01:16.642110,599632506738027909,-30.00
2025-12-24 17:01:16.642110,599632506738027909,-4.00
2025-12-24 17:01:16.642110,599632506738027909,-2.00
2025-12-24 17:01:16.642110,599632506738027909,-4.00
2025-12-24 17:01:16.642110,599632506738027909,9.00
2025-12-24 17:01:16.642110,599632506738027909,21.00
2025-12-24 17:01:16.642110,599632506738027909,25.00
2025-12-24 17:01:16.642110,599632506738027909,32.00
2025-12-24 17:01:16.642110,599632506738027909,42.00
2025-12-24 17:01:16.642110,599632506738027909,53.00
2025-12-24 17:01:16.642110,599632506738027909,65.00
2025-12-24 17:01:16.642110,599632506738027909,79.00
2025-12-24 17:01:16.642110,599632506738027909,95.00
2025-12-24 17:01:16.642110,599632506738027909,112.00
2025-12-24 17:01:16.642110,599632506738027909,126.00
2025-12-24 17:01:16.642110,599632506738027909,144.00
2025-12-24 17:01:17.243516,599632507298923318,163.00
2025-12-24 17:01:17.243516,599632507298923318,175.00
2025-12-24 17:01:17.243516,599632507298923318,179.00
2025-12-24 17:01:17.243516,599632507298923318,172.00
2025-12-24 17:01:17.243516,599632507298923318,154.00
2025-12-24 17:01:17.243516,599632507298923318,116.00
2025-12-24 17:01:17.243516,599632507298923318,63.00
2025-12-24 17:01:17.243516,599632507298923318,4.00
2025-12-24 17:01:17.243516,599632507298923318,-53.00
2025-12-24 17:01:17.243516,599632507298923318,-105.00
2025-12-24 17:01:17.243516,599632507298923318,-140.00
2025-12-24 17:01:17.243516,599632507298923318,-158.00
2025-12-24 17:01:17.243516,599632507298923318,-165.00
2025-12-24 17:01:17.243516,599632507298923318,-163.00
2025-12-24 17:01:17.243516,599632507298923318,-165.00
2025-12-24 17:01:17.243516,599632507298923318,-163.00
2025-12-24 17:01:17.243516,599632507298923318,-156.00
2025-12-24 17:01:17.243516,599632507298923318,-147.00
2025-12-24 17:01:17.243516,599632507298923318,-135.00
2025-12-24 17:01:17.243516,599632507298923318,-130.00
2025-12-24 17:01:17.243516,599632507298923318,-128.00
2025-12-24 17:01:17.243516,599632507298923318,-126.00
2025-12-24 17:01:17.243516,599632507298923318,-119.00
2025-12-24 17:01:17.243516,599632507298923318,-114.00
2025-12-24 17:01:17.243516,599632507298923318,-109.00
2025-12-24 17:01:17.243516,599632507298923318,-100.00
2025-12-24 17:01:17.243516,599632507298923318,-93.00
2025-12-24 17:01:17.243516,599632507298923318,-88.00
2025-12-24 17:01:17.243516,599632507298923318,-81.00
2025-12-24 17:01:17.243516,599632507298923318,-74.00
2025-12-24 17:01:17.243516,599632507298923318,-70.00
2025-12-24 17:01:17.243516,599632507298923318,-65.00
2025-12-24 17:01:17.243516,599632507298923318,-67.00
2025-12-24 17:01:17.243516,599632507298923318,-67.00
2025-12-24 17:01:17.243516,599632507298923318,-63.00
2025-12-24 17:01:17.243516,599632507298923318,-63.00
2025-12-24 17:01:17.243516,599632507298923318,-63.00
2025-12-24 17:01:17.243516,599632507298923318,-58.00
2025-12-24 17:01:17.243516,599632507298923318,-60.00
2025-12-24 17:01:17.243516,599632507298923318,-67.00
2025-12-24 17:01:17.243516,599632507298923318,-67.00
2025-12-24 17:01:17.243516,599632507298923318,-65.00
2025-12-24 17:01:17.243516,599632507298923318,-65.00
2025-12-24 17:01:17.243516,599632507298923318,-65.00
2025-12-24 17:01:17.243516,599632507298923318,-67.00
2025-12-24 17:01:17.243516,599632507298923318,-65.00
2025-12-24 17:01:17.243516,599632507298923318,-65.00
2025-12-24 17:01:17.243516,599632507298923318,-65.00
2025-12-24 17:01:17.243516,599632507298923318,-56.00
2025-12-24 17:01:17.243516,599632507298923318,-49.00
2025-12-24 17:01:17.243516,599632507298923318,-58.00
2025-12-24 17:01:17.243516,599632507298923318,-63.00
2025-12-24 17:01:17.243516,599632507298923318,-58.00
2025-12-24 17:01:17.243516,599632507298923318,-56.00
2025-12-24 17:01:17.243516,599632507298923318,-63.00
2025-12-24 17:01:17.243516,599632507298923318,-74.00
2025-12-24 17:01:17.243516,599632507298923318,-63.00
2025-12-24 17:01:17.243516,599632507298923318,-44.00
2025-12-24 17:01:17.243516,599632507298923318,-51.00
2025-12-24 17:01:17.243516,599632507298923318,-56.00
2025-12-24 17:01:17.243516,599632507298923318,-49.00
2025-12-24 17:01:17.243516,599632507298923318,-58.00
2025-12-24 17:01:17.243516,599632507298923318,-77.00
2025-12-24 17:01:17.243516,599632507298923318,-81.00
2025-12-24 17:01:17.243516,599632507298923318,-81.00
2025-12-24 17:01:17.243516,599632507298923318,-84.00
2025-12-24 17:01:17.243516,599632507298923318,-67.00
2025-12-24 17:01:17.243516,599632507298923318,-56.00
2025-12-24 17:01:17.243516,599632507298923318,-60.00
2025-12-24 17:01:17.243516,599632507298923318,-65.00
2025-12-24 17:01:17.243516,599632507298923318,-63.00
2025-12-24 17:01:17.243516,599632507298923318,9.00
2025-12-24 17:01:17.243516,599632507298923318,252.00
2025-12-24 17:01:17.795065,599632507859828897,597.00
2025-12-24 17:01:17.795065,599632507859828897,677.00
2025-12-24 17:01:17.795065,599632507859828897,137.00
2025-12-24 17:01:17.795065,599632507859828897,-485.00
2025-12-24 17:01:17.795065,599632507859828897,-399.00
2025-12-24 17:01:17.795065,599632507859828897,-46.00
2025-12-24 17:01:17.795065,599632507859828897,-58.00
2025-12-24 17:01:17.795065,599632507859828897,-126.00
2025-12-24 17:01:17.795065,599632507859828897,-46.00
2025-12-24 17:01:17.795065,599632507859828897,-16.00
2025-12-24 17:01:17.795065,599632507859828897,-18.00
2025-12-24 17:01:17.795065,599632507859828897,14.00
2025-12-24 17:01:17.795065,599632507859828897,16.00
2025-12-24 17:01:17.795065,599632507859828897,-7.00
2025-12-24 17:01:17.795065,599632507859828897,0.00
2025-12-24 17:01:17.795065,599632507859828897,21.00
2025-12-24 17:01:17.795065,599632507859828897,30.00
2025-12-24 17:01:17.795065,599632507859828897,23.00
2025-12-24 17:01:17.795065,599632507859828897,25.00
2025-12-24 17:01:17.795065,599632507859828897,42.00
2025-12-24 17:01:17.795065,599632507859828897,58.00
2025-12-24 17:01:17.795065,599632507859828897,70.00
2025-12-24 17:01:17.795065,599632507859828897,72.00
2025-12-24 17:01:17.795065,599632507859828897,93.00
2025-12-24 17:01:17.795065,599632507859828897,130.00
2025-12-24 17:01:17.795065,599632507859828897,149.00
2025-12-24 17:01:17.795065,599632507859828897,147.00
2025-12-24 17:01:17.795065,599632507859828897,154.00
2025-12-24 17:01:17.795065,599632507859828897,168.00
2025-12-24 17:01:17.795065,599632507859828897,170.00
2025-12-24 17:01:17.795065,599632507859828897,154.00
2025-12-24 17:01:17.795065,599632507859828897,119.00
2025-12-24 17:01:17.795065,599632507859828897,63.00
2025-12-24 17:01:17.795065,599632507859828897,-4.00
2025-12-24 17:01:17.795065,599632507859828897,-79.00
2025-12-24 17:01:17.795065,599632507859828897,-128.00
2025-12-24 17:01:17.795065,599632507859828897,-140.00
2025-12-24 17:01:17.795065,599632507859828897,-154.00
2025-12-24 17:01:17.795065,599632507859828897,-179.00
2025-12-24 17:01:17.795065,599632507859828897,-177.00
2025-12-24 17:01:17.795065,599632507859828897,-165.00
2025-12-24 17:01:17.795065,599632507859828897,-184.00
2025-12-24 17:01:17.795065,599632507859828897,-191.00
2025-12-24 17:01:17.795065,599632507859828897,-170.00
2025-12-24 17:01:17.795065,599632507859828897,-161.00
2025-12-24 17:01:17.795065,599632507859828897,-168.00
2025-12-24 17:01:17.795065,599632507859828897,-154.00
2025-12-24 17:01:17.795065,599632507859828897,-140.00
2025-12-24 17:01:17.795065,599632507859828897,-161.00
2025-12-24 17:01:17.795065,599632507859828897,-158.00
2025-12-24 17:01:17.795065,599632507859828897,-121.00
2025-12-24 17:01:17.795065,599632507859828897,-121.00
2025-12-24 17:01:17.795065,599632507859828897,-144.00
2025-12-24 17:01:17.795065,599632507859828897,-135.00
2025-12-24 17:01:17.795065,599632507859828897,-112.00
2025-12-24 17:01:17.795065,599632507859828897,-114.00
2025-12-24 17:01:17.795065,599632507859828897,-114.00
2025-12-24 17:01:17.795065,599632507859828897,-98.00
2025-12-24 17:01:17.795065,599632507859828897,-91.00
2025-12-24 17:01:17.795065,599632507859828897,-88.00
2025-12-24 17:01:17.795065,599632507859828897,-86.00
2025-12-24 17:01:17.795065,599632507859828897,-93.00
2025-12-24 17:01:17.795065,599632507859828897,-93.00
2025-12-24 17:01:17.795065,599632507859828897,-84.00
2025-12-24 17:01:17.795065,599632507859828897,-86.00
2025-12-24 17:01:17.795065,599632507859828897,-88.00
2025-12-24 17:01:17.795065,599632507859828897,-84.00
2025-12-24 17:01:17.795065,599632507859828897,-84.00
2025-12-24 17:01:17.795065,599632507859828897,-74.00
2025-12-24 17:01:17.795065,599632507859828897,-53.00
2025-12-24 17:01:17.795065,599632507859828897,-58.00
2025-12-24 17:01:17.795065,599632507859828897,-74.00
2025-12-24 17:01:17.795065,599632507859828897,-70.00
2025-12-24 17:01:18.346904,599632508420714132,-63.00
2025-12-24 17:01:18.346904,599632508420714132,-63.00
2025-12-24 17:01:18.346904,599632508420714132,-60.00
2025-12-24 17:01:18.346904,599632508420714132,-39.00
2025-12-24 17:01:18.346904,599632508420714132,-7.00
2025-12-24 17:01:18.346904,599632508420714132,-4.00
2025-12-24 17:01:18.346904,599632508420714132,-30.00
2025-12-24 17:01:18.346904,599632508420714132,-30.00
2025-12-24 17:01:18.346904,599632508420714132,-11.00
2025-12-24 17:01:18.346904,599632508420714132,2.00
2025-12-24 17:01:18.346904,599632508420714132,9.00
2025-12-24 17:01:18.346904,599632508420714132,-14.00
2025-12-24 17:01:18.346904,599632508420714132,-44.00
2025-12-24 17:01:18.346904,599632508420714132,-39.00
2025-12-24 17:01:18.346904,599632508420714132,-35.00
2025-12-24 17:01:18.346904,599632508420714132,-32.00
2025-12-24 17:01:18.346904,599632508420714132,-23.00
2025-12-24 17:01:18.346904,599632508420714132,-28.00
2025-12-24 17:01:18.346904,599632508420714132,-35.00
2025-12-24 17:01:18.346904,599632508420714132,-30.00
2025-12-24 17:01:18.346904,599632508420714132,-44.00
2025-12-24 17:01:18.346904,599632508420714132,-23.00
2025-12-24 17:01:18.346904,599632508420714132,140.00
2025-12-24 17:01:18.346904,599632508420714132,462.00
2025-12-24 17:01:18.346904,599632508420714132,721.00
2025-12-24 17:01:18.346904,599632508420714132,453.00
2025-12-24 17:01:18.346904,599632508420714132,-252.00
2025-12-24 17:01:18.346904,599632508420714132,-488.00
2025-12-24 17:01:18.346904,599632508420714132,-149.00
2025-12-24 17:01:18.346904,599632508420714132,-18.00
2025-12-24 17:01:18.346904,599632508420714132,-93.00
2025-12-24 17:01:18.346904,599632508420714132,-44.00
2025-12-24 17:01:18.346904,599632508420714132,-7.00
2025-12-24 17:01:18.346904,599632508420714132,-30.00
2025-12-24 17:01:18.346904,599632508420714132,-14.00
2025-12-24 17:01:18.346904,599632508420714132,4.00
2025-12-24 17:01:18.346904,599632508420714132,-7.00
2025-12-24 17:01:18.346904,599632508420714132,-2.00
2025-12-24 17:01:18.346904,599632508420714132,18.00
2025-12-24 17:01:18.346904,599632508420714132,30.00
2025-12-24 17:01:18.346904,599632508420714132,21.00
2025-12-24 17:01:18.346904,599632508420714132,11.00
2025-12-24 17:01:18.346904,599632508420714132,39.00
2025-12-24 17:01:18.346904,599632508420714132,63.00
2025-12-24 17:01:18.346904,599632508420714132,58.00
2025-12-24 17:01:18.346904,599632508420714132,72.00
2025-12-24 17:01:18.346904,599632508420714132,105.00
2025-12-24 17:01:18.346904,599632508420714132,119.00
2025-12-24 17:01:18.346904,599632508420714132,128.00
2025-12-24 17:01:18.346904,599632508420714132,158.00
2025-12-24 17:01:18.346904,599632508420714132,184.00
2025-12-24 17:01:18.346904,599632508420714132,184.00
2025-12-24 17:01:18.346904,599632508420714132,168.00
2025-12-24 17:01:18.346904,599632508420714132,161.00
2025-12-24 17:01:18.346904,599632508420714132,149.00
2025-12-24 17:01:18.346904,599632508420714132,91.00
2025-12-24 17:01:18.346904,599632508420714132,4.00
2025-12-24 17:01:18.346904,599632508420714132,-53.00
2025-12-24 17:01:18.346904,599632508420714132,-86.00
2025-12-24 17:01:18.346904,599632508420714132,-135.00
2025-12-24 17:01:18.346904,599632508420714132,-193.00
2025-12-24 17:01:18.346904,599632508420714132,-203.00
2025-12-24 17:01:18.346904,599632508420714132,-177.00
2025-12-24 17:01:18.346904,599632508420714132,-196.00
2025-12-24 17:01:18.346904,599632508420714132,-235.00
2025-12-24 17:01:18.346904,599632508420714132,-207.00
2025-12-24 17:01:18.346904,599632508420714132,-161.00
2025-12-24 17:01:18.346904,599632508420714132,-161.00
2025-12-24 17:01:18.346904,599632508420714132,-172.00
2025-12-24 17:01:18.346904,599632508420714132,-158.00
2025-12-24 17:01:18.346904,599632508420714132,-135.00
2025-12-24 17:01:18.346904,599632508420714132,-133.00
2025-12-24 17:01:18.346904,599632508420714132,-140.00
2025-12-24 17:01:18.948615,599632508981599371,-140.00
2025-12-24 17:01:18.948615,599632508981599371,-142.00
2025-12-24 17:01:18.948615,599632508981599371,-142.00
2025-12-24 17:01:18.948615,599632508981599371,-135.00
2025-12-24 17:01:18.948615,599632508981599371,-119.00
2025-12-24 17:01:18.948615,599632508981599371,-102.00
2025-12-24 17:01:18.948615,599632508981599371,-98.00
2025-12-24 17:01:18.948615,599632508981599371,-93.00
2025-12-24 17:01:18.948615,599632508981599371,-84.00
2025-12-24 17:01:18.948615,599632508981599371,-84.00
2025-12-24 17:01:18.948615,599632508981599371,-81.00
2025-12-24 17:01:18.948615,599632508981599371,-67.00
2025-12-24 17:01:18.948615,599632508981599371,-65.00
2025-12-24 17:01:18.948615,599632508981599371,-74.00
2025-12-24 17:01:18.948615,599632508981599371,-70.00
2025-12-24 17:01:18.948615,599632508981599371,-65.00
2025-12-24 17:01:18.948615,599632508981599371,-70.00
2025-12-24 17:01:18.948615,599632508981599371,-67.00
2025-12-24 17:01:18.948615,599632508981599371,-60.00
2025-12-24 17:01:18.948615,599632508981599371,-63.00
2025-12-24 17:01:18.948615,599632508981599371,-63.00
2025-12-24 17:01:18.948615,599632508981599371,-58.00
2025-12-24 17:01:18.948615,599632508981599371,-58.00
2025-12-24 17:01:18.948615,599632508981599371,-58.00
2025-12-24 17:01:18.948615,599632508981599371,-63.00
2025-12-24 17:01:18.948615,599632508981599371,-70.00
2025-12-24 17:01:18.948615,599632508981599371,-60.00
2025-12-24 17:01:18.948615,599632508981599371,-44.00
2025-12-24 17:01:18.948615,599632508981599371,-49.00
2025-12-24 17:01:18.948615,599632508981599371,-65.00
2025-12-24 17:01:18.948615,599632508981599371,-74.00
2025-12-24 17:01:18.948615,599632508981599371,-67.00
2025-12-24 17:01:18.948615,599632508981599371,-60.00
2025-12-24 17:01:18.948615,599632508981599371,-60.00
2025-12-24 17:01:18.948615,599632508981599371,-58.00
2025-12-24 17:01:18.948615,599632508981599371,-58.00
2025-12-24 17:01:18.948615,599632508981599371,-60.00
2025-12-24 17:01:18.948615,599632508981599371,-60.00
2025-12-24 17:01:18.948615,599632508981599371,-16.00
2025-12-24 17:01:18.948615,599632508981599371,156.00
2025-12-24 17:01:18.948615,599632508981599371,504.00
2025-12-24 17:01:18.948615,599632508981599371,735.00
2025-12-24 17:01:18.948615,599632508981599371,308.00
2025-12-24 17:01:18.948615,599632508981599371,-469.00
2025-12-24 17:01:18.948615,599632508981599371,-567.00
2025-12-24 17:01:18.948615,599632508981599371,-137.00
2025-12-24 17:01:18.948615,599632508981599371,-39.00
2025-12-24 17:01:18.948615,599632508981599371,-107.00
2025-12-24 17:01:18.948615,599632508981599371,-18.00
2025-12-24 17:01:18.948615,599632508981599371,11.00
2025-12-24 17:01:18.948615,599632508981599371,-21.00
2025-12-24 17:01:18.948615,599632508981599371,9.00
2025-12-24 17:01:18.948615,599632508981599371,32.00
2025-12-24 17:01:18.948615,599632508981599371,21.00
2025-12-24 17:01:18.948615,599632508981599371,25.00
2025-12-24 17:01:18.948615,599632508981599371,39.00
2025-12-24 17:01:18.948615,599632508981599371,44.00
2025-12-24 17:01:18.948615,599632508981599371,58.00
2025-12-24 17:01:18.948615,599632508981599371,74.00
2025-12-24 17:01:18.948615,599632508981599371,79.00
2025-12-24 17:01:18.948615,599632508981599371,86.00
2025-12-24 17:01:18.948615,599632508981599371,112.00
2025-12-24 17:01:18.948615,599632508981599371,137.00
2025-12-24 17:01:18.948615,599632508981599371,151.00
2025-12-24 17:01:18.948615,599632508981599371,170.00
2025-12-24 17:01:18.948615,599632508981599371,191.00
2025-12-24 17:01:18.948615,599632508981599371,205.00
2025-12-24 17:01:18.948615,599632508981599371,217.00
2025-12-24 17:01:18.948615,599632508981599371,231.00
2025-12-24 17:01:18.948615,599632508981599371,238.00
2025-12-24 17:01:18.948615,599632508981599371,224.00
2025-12-24 17:01:18.948615,599632508981599371,184.00
2025-12-24 17:01:18.948615,599632508981599371,114.00
2025-12-24 17:01:19.500602,599632509542484606,32.00
2025-12-24 17:01:19.500602,599632509542484606,-44.00
2025-12-24 17:01:19.500602,599632509542484606,-98.00
2025-12-24 17:01:19.500602,599632509542484606,-137.00
2025-12-24 17:01:19.500602,599632509542484606,-168.00
2025-12-24 17:01:19.500602,599632509542484606,-184.00
2025-12-24 17:01:19.500602,599632509542484606,-186.00
2025-12-24 17:01:19.500602,599632509542484606,-184.00
2025-12-24 17:01:19.500602,599632509542484606,-179.00
2025-12-24 17:01:19.500602,599632509542484606,-172.00
2025-12-24 17:01:19.500602,599632509542484606,-168.00
2025-12-24 17:01:19.500602,599632509542484606,-168.00
2025-12-24 17:01:19.500602,599632509542484606,-163.00
2025-12-24 17:01:19.500602,599632509542484606,-147.00
2025-12-24 17:01:19.500602,599632509542484606,-130.00
2025-12-24 17:01:19.500602,599632509542484606,-126.00
2025-12-24 17:01:19.500602,599632509542484606,-128.00
2025-12-24 17:01:19.500602,599632509542484606,-123.00
2025-12-24 17:01:19.500602,599632509542484606,-114.00
2025-12-24 17:01:19.500602,599632509542484606,-109.00
2025-12-24 17:01:19.500602,599632509542484606,-102.00
2025-12-24 17:01:19.500602,599632509542484606,-95.00
2025-12-24 17:01:19.500602,599632509542484606,-91.00
2025-12-24 17:01:19.500602,599632509542484606,-91.00
2025-12-24 17:01:19.500602,599632509542484606,-88.00
2025-12-24 17:01:19.500602,599632509542484606,-86.00
2025-12-24 17:01:19.500602,599632509542484606,-84.00
2025-12-24 17:01:19.500602,599632509542484606,-84.00
2025-12-24 17:01:19.500602,599632509542484606,-84.00
2025-12-24 17:01:19.500602,599632509542484606,-79.00
2025-12-24 17:01:19.500602,599632509542484606,-81.00
2025-12-24 17:01:19.500602,599632509542484606,-84.00
2025-12-24 17:01:19.500602,599632509542484606,-79.00
2025-12-24 17:01:19.500602,599632509542484606,-79.00
2025-12-24 17:01:19.500602,599632509542484606,-81.00
2025-12-24 17:01:19.500602,599632509542484606,-79.00
2025-12-24 17:01:19.500602,599632509542484606,-79.00
2025-12-24 17:01:19.500602,599632509542484606,-74.00
2025-12-24 17:01:19.500602,599632509542484606,-67.00
2025-12-24 17:01:19.500602,599632509542484606,-74.00
2025-12-24 17:01:19.500602,599632509542484606,-79.00
2025-12-24 17:01:19.500602,599632509542484606,-63.00
2025-12-24 17:01:19.500602,599632509542484606,-44.00
2025-12-24 17:01:19.500602,599632509542484606,-58.00
2025-12-24 17:01:19.500602,599632509542484606,-74.00
2025-12-24 17:01:19.500602,599632509542484606,-79.00
2025-12-24 17:01:19.500602,599632509542484606,-79.00
2025-12-24 17:01:19.500602,599632509542484606,-74.00
2025-12-24 17:01:19.500602,599632509542484606,-70.00
2025-12-24 17:01:19.500602,599632509542484606,-70.00
2025-12-24 17:01:19.500602,599632509542484606,-63.00
2025-12-24 17:01:19.500602,599632509542484606,-65.00
2025-12-24 17:01:19.500602,599632509542484606,-70.00
2025-12-24 17:01:19.500602,599632509542484606,-14.00
2025-12-24 17:01:19.500602,599632509542484606,200.00
2025-12-24 17:01:19.500602,599632509542484606,583.00
2025-12-24 17:01:19.500602,599632509542484606,787.00
2025-12-24 17:01:19.500602,599632509542484606,305.00
2025-12-24 17:01:19.500602,599632509542484606,-446.00
2025-12-24 17:01:19.500602,599632509542484606,-478.00
2025-12-24 17:01:19.500602,599632509542484606,-74.00
2025-12-24 17:01:19.500602,599632509542484606,-39.00
2025-12-24 17:01:19.500602,599632509542484606,-123.00
2025-12-24 17:01:19.500602,599632509542484606,-37.00
2025-12-24 17:01:19.500602,599632509542484606,-11.00
2025-12-24 17:01:19.500602,599632509542484606,-46.00
2025-12-24 17:01:19.500602,599632509542484606,-30.00
2025-12-24 17:01:19.500602,599632509542484606,-14.00
2025-12-24 17:01:19.500602,599632509542484606,-11.00
2025-12-24 17:01:19.500602,599632509542484606,4.00
2025-12-24 17:01:19.500602,599632509542484606,14.00
2025-12-24 17:01:19.500602,599632509542484606,18.00
2025-12-24 17:01:19.500602,599632509542484606,28.00
2025-12-24 17:01:20.052043,599632510103369841,44.00
2025-12-24 17:01:20.052043,599632510103369841,51.00
2025-12-24 17:01:20.052043,599632510103369841,60.00
2025-12-24 17:01:20.052043,599632510103369841,79.00
2025-12-24 17:01:20.052043,599632510103369841,95.00
2025-12-24 17:01:20.052043,599632510103369841,119.00
2025-12-24 17:01:20.052043,599632510103369841,144.00
2025-12-24 17:01:20.052043,599632510103369841,165.00
2025-12-24 17:01:20.052043,599632510103369841,186.00
2025-12-24 17:01:20.052043,599632510103369841,212.00
2025-12-24 17:01:20.052043,599632510103369841,228.00
2025-12-24 17:01:20.052043,599632510103369841,235.00
2025-12-24 17:01:20.052043,599632510103369841,226.00
2025-12-24 17:01:20.052043,599632510103369841,184.00
2025-12-24 17:01:20.052043,599632510103369841,114.00
2025-12-24 17:01:20.052043,599632510103369841,32.00
2025-12-24 17:01:20.052043,599632510103369841,-42.00
2025-12-24 17:01:20.052043,599632510103369841,-91.00
2025-12-24 17:01:20.052043,599632510103369841,-121.00
2025-12-24 17:01:20.052043,599632510103369841,-147.00
2025-12-24 17:01:20.052043,599632510103369841,-161.00
2025-12-24 17:01:20.052043,599632510103369841,-161.00
2025-12-24 17:01:20.052043,599632510103369841,-158.00
2025-12-24 17:01:20.052043,599632510103369841,-156.00
2025-12-24 17:01:20.052043,599632510103369841,-151.00
2025-12-24 17:01:20.052043,599632510103369841,-149.00
2025-12-24 17:01:20.052043,599632510103369841,-149.00
2025-12-24 17:01:20.052043,599632510103369841,-147.00
2025-12-24 17:01:20.052043,599632510103369841,-140.00
2025-12-24 17:01:20.052043,599632510103369841,-135.00
2025-12-24 17:01:20.052043,599632510103369841,-133.00
2025-12-24 17:01:20.052043,599632510103369841,-123.00
2025-12-24 17:01:20.052043,599632510103369841,-114.00
2025-12-24 17:01:20.052043,599632510103369841,-112.00
2025-12-24 17:01:20.052043,599632510103369841,-114.00
2025-12-24 17:01:20.052043,599632510103369841,-105.00
2025-12-24 17:01:20.052043,599632510103369841,-93.00
2025-12-24 17:01:20.052043,599632510103369841,-91.00
2025-12-24 17:01:20.052043,599632510103369841,-91.00
2025-12-24 17:01:20.052043,599632510103369841,-86.00
2025-12-24 17:01:20.052043,599632510103369841,-86.00
2025-12-24 17:01:20.052043,599632510103369841,-88.00
2025-12-24 17:01:20.052043,599632510103369841,-84.00
2025-12-24 17:01:20.052043,599632510103369841,-77.00
2025-12-24 17:01:20.052043,599632510103369841,-81.00
2025-12-24 17:01:20.052043,599632510103369841,-88.00
2025-12-24 17:01:20.052043,599632510103369841,-84.00
2025-12-24 17:01:20.052043,599632510103369841,-77.00
2025-12-24 17:01:20.052043,599632510103369841,-72.00
2025-12-24 17:01:20.052043,599632510103369841,-70.00
2025-12-24 17:01:20.052043,599632510103369841,-70.00
2025-12-24 17:01:20.052043,599632510103369841,-72.00
2025-12-24 17:01:20.052043,599632510103369841,-70.00
2025-12-24 17:01:20.052043,599632510103369841,-70.00
2025-12-24 17:01:20.052043,599632510103369841,-72.00
2025-12-24 17:01:20.052043,599632510103369841,-72.00
2025-12-24 17:01:20.052043,599632510103369841,-72.00
2025-12-24 17:01:20.052043,599632510103369841,-72.00
2025-12-24 17:01:20.052043,599632510103369841,-65.00
2025-12-24 17:01:20.052043,599632510103369841,-60.00
2025-12-24 17:01:20.052043,599632510103369841,-67.00
2025-12-24 17:01:20.052043,599632510103369841,-67.00
2025-12-24 17:01:20.052043,599632510103369841,-60.00
2025-12-24 17:01:20.052043,599632510103369841,-65.00
2025-12-24 17:01:20.052043,599632510103369841,-58.00
2025-12-24 17:01:20.052043,599632510103369841,-37.00
2025-12-24 17:01:20.052043,599632510103369841,-37.00
2025-12-24 17:01:20.052043,599632510103369841,-60.00
2025-12-24 17:01:20.052043,599632510103369841,-72.00
2025-12-24 17:01:20.052043,599632510103369841,-70.00
2025-12-24 17:01:20.052043,599632510103369841,-70.00
2025-12-24 17:01:20.052043,599632510103369841,-65.00
2025-12-24 17:01:20.052043,599632510103369841,-58.00
2025-12-24 17:01:20.603757,599632510664265250,-58.00
2025-12-24 17:01:20.603757,599632510664265250,-67.00
2025-12-24 17:01:20.603757,599632510664265250,-65.00
2025-12-24 17:01:20.603757,599632510664265250,-42.00
2025-12-24 17:01:20.603757,599632510664265250,56.00
2025-12-24 17:01:20.603757,599632510664265250,315.00
2025-12-24 17:01:20.603757,599632510664265250,672.00
2025-12-24 17:01:20.603757,599632510664265250,712.00
2025-12-24 17:01:20.603757,599632510664265250,88.00
2025-12-24 17:01:20.603757,599632510664265250,-511.00
2025-12-24 17:01:20.603757,599632510664265250,-331.00
2025-12-24 17:01:20.603757,599632510664265250,-4.00
2025-12-24 17:01:20.603757,599632510664265250,-63.00
2025-12-24 17:01:20.603757,599632510664265250,-95.00
2025-12-24 17:01:20.603757,599632510664265250,-11.00
2025-12-24 17:01:20.603757,599632510664265250,-18.00
2025-12-24 17:01:20.603757,599632510664265250,-44.00
2025-12-24 17:01:20.603757,599632510664265250,-16.00
2025-12-24 17:01:20.603757,599632510664265250,-2.00
2025-12-24 17:01:20.603757,599632510664265250,-7.00
2025-12-24 17:01:20.603757,599632510664265250,2.00
2025-12-24 17:01:20.603757,599632510664265250,18.00
2025-12-24 17:01:20.603757,599632510664265250,28.00
2025-12-24 17:01:20.603757,599632510664265250,35.00
2025-12-24 17:01:20.603757,599632510664265250,49.00
2025-12-24 17:01:20.603757,599632510664265250,65.00
2025-12-24 17:01:20.603757,599632510664265250,86.00
2025-12-24 17:01:20.603757,599632510664265250,102.00
2025-12-24 17:01:20.603757,599632510664265250,112.00
2025-12-24 17:01:20.603757,599632510664265250,128.00
2025-12-24 17:01:20.603757,599632510664265250,154.00
2025-12-24 17:01:20.603757,599632510664265250,175.00
2025-12-24 17:01:20.603757,599632510664265250,189.00
2025-12-24 17:01:20.603757,599632510664265250,205.00
2025-12-24 17:01:20.603757,599632510664265250,210.00
2025-12-24 17:01:20.603757,599632510664265250,207.00
2025-12-24 17:01:20.603757,599632510664265250,196.00
2025-12-24 17:01:20.603757,599632510664265250,163.00
2025-12-24 17:01:20.603757,599632510664265250,93.00
2025-12-24 17:01:20.603757,599632510664265250,14.00
2025-12-24 17:01:20.603757,599632510664265250,-42.00
2025-12-24 17:01:20.603757,599632510664265250,-84.00
2025-12-24 17:01:20.603757,599632510664265250,-119.00
2025-12-24 17:01:20.603757,599632510664265250,-142.00
2025-12-24 17:01:20.603757,599632510664265250,-154.00
2025-12-24 17:01:20.603757,599632510664265250,-156.00
2025-12-24 17:01:20.603757,599632510664265250,-151.00
2025-12-24 17:01:20.603757,599632510664265250,-151.00
2025-12-24 17:01:20.603757,599632510664265250,-151.00
2025-12-24 17:01:20.603757,599632510664265250,-142.00
2025-12-24 17:01:20.603757,599632510664265250,-137.00
2025-12-24 17:01:20.603757,599632510664265250,-140.00
2025-12-24 17:01:20.603757,599632510664265250,-133.00
2025-12-24 17:01:20.603757,599632510664265250,-119.00
2025-12-24 17:01:20.603757,599632510664265250,-114.00
2025-12-24 17:01:20.603757,599632510664265250,-119.00
2025-12-24 17:01:20.603757,599632510664265250,-116.00
2025-12-24 17:01:20.603757,599632510664265250,-109.00
2025-12-24 17:01:20.603757,599632510664265250,-109.00
2025-12-24 17:01:20.603757,599632510664265250,-109.00
2025-12-24 17:01:20.603757,599632510664265250,-100.00
2025-12-24 17:01:20.603757,599632510664265250,-93.00
2025-12-24 17:01:20.603757,599632510664265250,-91.00
2025-12-24 17:01:20.603757,599632510664265250,-88.00
2025-12-24 17:01:20.603757,599632510664265250,-86.00
2025-12-24 17:01:20.603757,599632510664265250,-86.00
2025-12-24 17:01:20.603757,599632510664265250,-88.00
2025-12-24 17:01:20.603757,599632510664265250,-84.00
2025-12-24 17:01:20.603757,599632510664265250,-84.00
2025-12-24 17:01:20.603757,599632510664265250,-86.00
2025-12-24 17:01:20.603757,599632510664265250,-81.00
2025-12-24 17:01:20.603757,599632510664265250,-81.00
2025-12-24 17:01:20.603757,599632510664265250,-86.00
2025-12-24 17:01:21.205367,599632511225145399,-86.00
2025-12-24 17:01:21.205367,599632511225145399,-86.00
2025-12-24 17:01:21.205367,599632511225145399,-86.00
2025-12-24 17:01:21.205367,599632511225145399,-91.00
2025-12-24 17:01:21.205367,599632511225145399,-95.00
2025-12-24 17:01:21.205367,599632511225145399,-84.00
2025-12-24 17:01:21.205367,599632511225145399,-67.00
2025-12-24 17:01:21.205367,599632511225145399,-70.00
2025-12-24 17:01:21.205367,599632511225145399,-74.00
2025-12-24 17:01:21.205367,599632511225145399,-74.00
2025-12-24 17:01:21.205367,599632511225145399,-74.00
2025-12-24 17:01:21.205367,599632511225145399,-67.00
2025-12-24 17:01:21.205367,599632511225145399,-53.00
2025-12-24 17:01:21.205367,599632511225145399,-51.00
2025-12-24 17:01:21.205367,599632511225145399,-56.00
2025-12-24 17:01:21.205367,599632511225145399,-53.00
2025-12-24 17:01:21.205367,599632511225145399,-49.00
2025-12-24 17:01:21.205367,599632511225145399,-49.00
2025-12-24 17:01:21.205367,599632511225145399,-44.00
2025-12-24 17:01:21.205367,599632511225145399,-42.00
2025-12-24 17:01:21.205367,599632511225145399,-53.00
2025-12-24 17:01:21.205367,599632511225145399,-60.00
2025-12-24 17:01:21.205367,599632511225145399,-51.00
2025-12-24 17:01:21.205367,599632511225145399,-42.00
2025-12-24 17:01:21.205367,599632511225145399,-30.00
2025-12-24 17:01:21.205367,599632511225145399,-23.00
2025-12-24 17:01:21.205367,599632511225145399,-37.00
2025-12-24 17:01:21.205367,599632511225145399,-63.00
2025-12-24 17:01:21.205367,599632511225145399,-67.00
2025-12-24 17:01:21.205367,599632511225145399,-53.00
2025-12-24 17:01:21.205367,599632511225145399,-51.00
2025-12-24 17:01:21.205367,599632511225145399,-58.00
2025-12-24 17:01:21.205367,599632511225145399,-56.00
2025-12-24 17:01:21.205367,599632511225145399,-46.00
2025-12-24 17:01:21.205367,599632511225145399,-39.00
2025-12-24 17:01:21.205367,599632511225145399,-39.00
2025-12-24 17:01:21.205367,599632511225145399,-2.00
2025-12-24 17:01:21.205367,599632511225145399,163.00
2025-12-24 17:01:21.205367,599632511225145399,492.00
2025-12-24 17:01:21.205367,599632511225145399,766.00
2025-12-24 17:01:21.205367,599632511225145399,504.00
2025-12-24 17:01:21.205367,599632511225145399,-228.00
2025-12-24 17:01:21.205367,599632511225145399,-513.00
2025-12-24 17:01:21.205367,599632511225145399,-154.00
2025-12-24 17:01:21.205367,599632511225145399,16.00
2025-12-24 17:01:21.205367,599632511225145399,-95.00
2025-12-24 17:01:21.205367,599632511225145399,-67.00
2025-12-24 17:01:21.205367,599632511225145399,-2.00
2025-12-24 17:01:21.205367,599632511225145399,-28.00
2025-12-24 17:01:21.205367,599632511225145399,-28.00
2025-12-24 17:01:21.205367,599632511225145399,-2.00
2025-12-24 17:01:21.205367,599632511225145399,-7.00
2025-12-24 17:01:21.205367,599632511225145399,-2.00
2025-12-24 17:01:21.205367,599632511225145399,21.00
2025-12-24 17:01:21.205367,599632511225145399,25.00
2025-12-24 17:01:21.205367,599632511225145399,28.00
2025-12-24 17:01:21.205367,599632511225145399,39.00
2025-12-24 17:01:21.205367,599632511225145399,46.00
2025-12-24 17:01:21.205367,599632511225145399,51.00
2025-12-24 17:01:21.205367,599632511225145399,67.00
2025-12-24 17:01:21.205367,599632511225145399,91.00
2025-12-24 17:01:21.205367,599632511225145399,105.00
2025-12-24 17:01:21.205367,599632511225145399,116.00
2025-12-24 17:01:21.205367,599632511225145399,142.00
2025-12-24 17:01:21.205367,599632511225145399,177.00
2025-12-24 17:01:21.205367,599632511225145399,196.00
2025-12-24 17:01:21.205367,599632511225145399,200.00
2025-12-24 17:01:21.205367,599632511225145399,205.00
2025-12-24 17:01:21.205367,599632511225145399,205.00
2025-12-24 17:01:21.205367,599632511225145399,184.00
2025-12-24 17:01:21.205367,599632511225145399,133.00
2025-12-24 17:01:21.205367,599632511225145399,63.00
2025-12-24 17:01:21.205367,599632511225145399,-11.00
2025-12-24 17:01:21.756605,599632511786025548,-70.00
2025-12-24 17:01:21.756605,599632511786025548,-109.00
2025-12-24 17:01:21.756605,599632511786025548,-137.00
2025-12-24 17:01:21.756605,599632511786025548,-165.00
2025-12-24 17:01:21.756605,599632511786025548,-179.00
2025-12-24 17:01:21.756605,599632511786025548,-144.00
2025-12-24 17:01:21.756605,599632511786025548,-112.00
2025-12-24 17:01:21.756605,599632511786025548,-130.00
2025-12-24 17:01:21.756605,599632511786025548,-144.00
2025-12-24 17:01:21.756605,599632511786025548,-126.00
2025-12-24 17:01:21.756605,599632511786025548,-109.00
2025-12-24 17:01:21.756605,599632511786025548,-116.00
2025-12-24 17:01:21.756605,599632511786025548,-128.00
2025-12-24 17:01:21.756605,599632511786025548,-116.00
2025-12-24 17:01:21.756605,599632511786025548,-95.00
2025-12-24 17:01:21.756605,599632511786025548,-88.00
2025-12-24 17:01:21.756605,599632511786025548,-91.00
2025-12-24 17:01:21.756605,599632511786025548,-91.00
2025-12-24 17:01:21.756605,599632511786025548,-91.00
2025-12-24 17:01:21.756605,599632511786025548,-77.00
2025-12-24 17:01:21.756605,599632511786025548,-49.00
2025-12-24 17:01:21.756605,599632511786025548,-56.00
2025-12-24 17:01:21.756605,599632511786025548,-79.00
2025-12-24 17:01:21.756605,599632511786025548,-67.00
2025-12-24 17:01:21.756605,599632511786025548,-42.00
2025-12-24 17:01:21.756605,599632511786025548,-44.00
2025-12-24 17:01:21.756605,599632511786025548,-51.00
2025-12-24 17:01:21.756605,599632511786025548,-49.00
2025-12-24 17:01:21.756605,599632511786025548,-49.00
2025-12-24 17:01:21.756605,599632511786025548,-46.00
2025-12-24 17:01:21.756605,599632511786025548,-44.00
2025-12-24 17:01:21.756605,599632511786025548,-46.00
2025-12-24 17:01:21.756605,599632511786025548,-49.00
2025-12-24 17:01:21.756605,599632511786025548,-56.00
2025-12-24 17:01:21.756605,599632511786025548,-63.00
2025-12-24 17:01:21.756605,599632511786025548,-58.00
2025-12-24 17:01:21.756605,599632511786025548,-60.00
2025-12-24 17:01:21.756605,599632511786025548,-65.00
2025-12-24 17:01:21.756605,599632511786025548,-60.00
2025-12-24 17:01:21.756605,599632511786025548,-51.00
2025-12-24 17:01:21.756605,599632511786025548,-44.00
2025-12-24 17:01:21.756605,599632511786025548,-42.00
2025-12-24 17:01:21.756605,599632511786025548,-51.00
2025-12-24 17:01:21.756605,599632511786025548,-60.00
2025-12-24 17:01:21.756605,599632511786025548,-58.00
2025-12-24 17:01:21.756605,599632511786025548,-63.00
2025-12-24 17:01:21.756605,599632511786025548,-72.00
2025-12-24 17:01:21.756605,599632511786025548,-63.00
2025-12-24 17:01:21.756605,599632511786025548,-53.00
2025-12-24 17:01:21.756605,599632511786025548,-63.00
2025-12-24 17:01:21.756605,599632511786025548,-53.00
2025-12-24 17:01:21.756605,599632511786025548,-39.00
2025-12-24 17:01:21.756605,599632511786025548,-51.00
2025-12-24 17:01:21.756605,599632511786025548,-60.00
2025-12-24 17:01:21.756605,599632511786025548,-56.00
2025-12-24 17:01:21.756605,599632511786025548,-51.00
2025-12-24 17:01:21.756605,599632511786025548,-39.00
2025-12-24 17:01:21.756605,599632511786025548,-37.00
2025-12-24 17:01:21.756605,599632511786025548,-49.00
2025-12-24 17:01:21.756605,599632511786025548,-58.00
2025-12-24 17:01:21.756605,599632511786025548,-49.00
2025-12-24 17:01:21.756605,599632511786025548,-28.00
2025-12-24 17:01:21.756605,599632511786025548,-28.00
2025-12-24 17:01:21.756605,599632511786025548,-49.00
2025-12-24 17:01:21.756605,599632511786025548,-65.00
2025-12-24 17:01:21.756605,599632511786025548,-70.00
2025-12-24 17:01:21.756605,599632511786025548,-51.00
2025-12-24 17:01:21.756605,599632511786025548,-35.00
2025-12-24 17:01:21.756605,599632511786025548,-39.00
2025-12-24 17:01:21.756605,599632511786025548,-39.00
2025-12-24 17:01:21.756605,599632511786025548,-32.00
2025-12-24 17:01:21.756605,599632511786025548,-37.00
2025-12-24 17:01:21.756605,599632511786025548,-35.00
2025-12-24 17:01:22.408677,599632512346936217,35.00
2025-12-24 17:01:22.408677,599632512346936217,249.00
2025-12-24 17:01:22.408677,599632512346936217,623.00
2025-12-24 17:01:22.408677,599632512346936217,782.00
2025-12-24 17:01:22.408677,599632512346936217,261.00
2025-12-24 17:01:22.408677,599632512346936217,-422.00
2025-12-24 17:01:22.408677,599632512346936217,-376.00
2025-12-24 17:01:22.408677,599632512346936217,-4.00
2025-12-24 17:01:22.408677,599632512346936217,-7.00
2025-12-24 17:01:22.408677,599632512346936217,-77.00
2025-12-24 17:01:22.408677,599632512346936217,11.00
2025-12-24 17:01:22.408677,599632512346936217,28.00
2025-12-24 17:01:22.408677,599632512346936217,-2.00
2025-12-24 17:01:22.408677,599632512346936217,35.00
2025-12-24 17:01:22.408677,599632512346936217,63.00
2025-12-24 17:01:22.408677,599632512346936217,51.00
2025-12-24 17:01:22.408677,599632512346936217,53.00
2025-12-24 17:01:22.408677,599632512346936217,74.00
2025-12-24 17:01:22.408677,599632512346936217,95.00
2025-12-24 17:01:22.408677,599632512346936217,95.00
2025-12-24 17:01:22.408677,599632512346936217,100.00
2025-12-24 17:01:22.408677,599632512346936217,119.00
2025-12-24 17:01:22.408677,599632512346936217,123.00
2025-12-24 17:01:22.408677,599632512346936217,133.00
2025-12-24 17:01:22.408677,599632512346936217,151.00
2025-12-24 17:01:22.408677,599632512346936217,163.00
2025-12-24 17:01:22.408677,599632512346936217,175.00
2025-12-24 17:01:22.408677,599632512346936217,198.00
2025-12-24 17:01:22.408677,599632512346936217,221.00
2025-12-24 17:01:22.408677,599632512346936217,228.00
2025-12-24 17:01:22.408677,599632512346936217,233.00
2025-12-24 17:01:22.408677,599632512346936217,242.00
2025-12-24 17:01:22.408677,599632512346936217,233.00
2025-12-24 17:01:22.408677,599632512346936217,189.00
2025-12-24 17:01:22.408677,599632512346936217,135.00
2025-12-24 17:01:22.408677,599632512346936217,77.00
2025-12-24 17:01:22.408677,599632512346936217,4.00
2025-12-24 17:01:22.408677,599632512346936217,-60.00
2025-12-24 17:01:22.408677,599632512346936217,-102.00
2025-12-24 17:01:22.408677,599632512346936217,-126.00
2025-12-24 17:01:22.408677,599632512346936217,-137.00
2025-12-24 17:01:22.408677,599632512346936217,-147.00
2025-12-24 17:01:22.408677,599632512346936217,-154.00
2025-12-24 17:01:22.408677,599632512346936217,-158.00
2025-12-24 17:01:22.408677,599632512346936217,-151.00
2025-12-24 17:01:22.408677,599632512346936217,-147.00
2025-12-24 17:01:22.408677,599632512346936217,-149.00
2025-12-24 17:01:22.408677,599632512346936217,-135.00
2025-12-24 17:01:22.408677,599632512346936217,-121.00
2025-12-24 17:01:22.408677,599632512346936217,-123.00
2025-12-24 17:01:22.408677,599632512346936217,-126.00
2025-12-24 17:01:22.408677,599632512346936217,-123.00
2025-12-24 17:01:22.408677,599632512346936217,-123.00
2025-12-24 17:01:22.408677,599632512346936217,-119.00
2025-12-24 17:01:22.408677,599632512346936217,-107.00
2025-12-24 17:01:22.408677,599632512346936217,-109.00
2025-12-24 17:01:22.408677,599632512346936217,-109.00
2025-12-24 17:01:22.408677,599632512346936217,-95.00
2025-12-24 17:01:22.408677,599632512346936217,-95.00
2025-12-24 17:01:22.408677,599632512346936217,-98.00
2025-12-24 17:01:22.408677,599632512346936217,-86.00
2025-12-24 17:01:22.408677,599632512346936217,-77.00
2025-12-24 17:01:22.408677,599632512346936217,-70.00
2025-12-24 17:01:22.408677,599632512346936217,-60.00
2025-12-24 17:01:22.408677,599632512346936217,-65.00
2025-12-24 17:01:22.408677,599632512346936217,-77.00
2025-12-24 17:01:22.408677,599632512346936217,-77.00
2025-12-24 17:01:22.408677,599632512346936217,-74.00
2025-12-24 17:01:22.408677,599632512346936217,-74.00
2025-12-24 17:01:22.408677,599632512346936217,-79.00
2025-12-24 17:01:22.408677,599632512346936217,-77.00
2025-12-24 17:01:22.408677,599632512346936217,-72.00
2025-12-24 17:01:22.408677,599632512346936217,-79.00
2025-12-24 17:01:22.874653,599632512907816366,-77.00
2025-12-24 17:01:22.874653,599632512907816366,-67.00
2025-12-24 17:01:22.874653,599632512907816366,-63.00
2025-12-24 17:01:22.874653,599632512907816366,-63.00
2025-12-24 17:01:22.874653,599632512907816366,-63.00
2025-12-24 17:01:22.874653,599632512907816366,-65.00
2025-12-24 17:01:22.874653,599632512907816366,-70.00
2025-12-24 17:01:22.874653,599632512907816366,-60.00
2025-12-24 17:01:22.874653,599632512907816366,-53.00
2025-12-24 17:01:22.874653,599632512907816366,-79.00
2025-12-24 17:01:22.874653,599632512907816366,-91.00
2025-12-24 17:01:22.874653,599632512907816366,-65.00
2025-12-24 17:01:22.874653,599632512907816366,-53.00
2025-12-24 17:01:22.874653,599632512907816366,-60.00
2025-12-24 17:01:22.874653,599632512907816366,-49.00
2025-12-24 17:01:22.874653,599632512907816366,-35.00
2025-12-24 17:01:22.874653,599632512907816366,-37.00
2025-12-24 17:01:22.874653,599632512907816366,-39.00
2025-12-24 17:01:22.874653,599632512907816366,-30.00
2025-12-24 17:01:22.874653,599632512907816366,-28.00
2025-12-24 17:01:22.874653,599632512907816366,-32.00
2025-12-24 17:01:22.874653,599632512907816366,-18.00
2025-12-24 17:01:22.874653,599632512907816366,-2.00
2025-12-24 17:01:22.874653,599632512907816366,-11.00
2025-12-24 17:01:22.874653,599632512907816366,-18.00
2025-12-24 17:01:22.874653,599632512907816366,-11.00
2025-12-24 17:01:22.874653,599632512907816366,-9.00
2025-12-24 17:01:22.874653,599632512907816366,0.00
2025-12-24 17:01:22.874653,599632512907816366,18.00
2025-12-24 17:01:22.874653,599632512907816366,25.00
2025-12-24 17:01:22.874653,599632512907816366,7.00
2025-12-24 17:01:22.874653,599632512907816366,-18.00
2025-12-24 17:01:22.874653,599632512907816366,-21.00
2025-12-24 17:01:22.874653,599632512907816366,-11.00
2025-12-24 17:01:22.874653,599632512907816366,-16.00
2025-12-24 17:01:22.874653,599632512907816366,-14.00
2025-12-24 17:01:22.874653,599632512907816366,0.00
2025-12-24 17:01:22.874653,599632512907816366,-4.00
2025-12-24 17:01:22.874653,599632512907816366,-18.00
2025-12-24 17:01:22.874653,599632512907816366,-11.00
2025-12-24 17:01:22.874653,599632512907816366,53.00
2025-12-24 17:01:22.874653,599632512907816366,238.00
2025-12-24 17:01:22.874653,599632512907816366,569.00
2025-12-24 17:01:22.874653,599632512907816366,801.00
2025-12-24 17:01:22.874653,599632512907816366,413.00
2025-12-24 17:01:22.874653,599632512907816366,-322.00
2025-12-24 17:01:22.874653,599632512907816366,-429.00
2025-12-24 17:01:22.874653,599632512907816366,-60.00
2025-12-24 17:01:22.874653,599632512907816366,-2.00
2025-12-24 17:01:22.874653,599632512907816366,-74.00
2025-12-24 17:01:22.874653,599632512907816366,-9.00
2025-12-24 17:01:22.874653,599632512907816366,2.00
2025-12-24 17:01:22.874653,599632512907816366,-25.00
2025-12-24 17:01:22.874653,599632512907816366,4.00
2025-12-24 17:01:22.874653,599632512907816366,21.00
2025-12-24 17:01:22.874653,599632512907816366,4.00
2025-12-24 17:01:22.874653,599632512907816366,11.00
2025-12-24 17:01:22.874653,599632512907816366,28.00
2025-12-24 17:01:22.874653,599632512907816366,25.00
2025-12-24 17:01:22.874653,599632512907816366,25.00
2025-12-24 17:01:22.874653,599632512907816366,39.00
2025-12-24 17:01:22.874653,599632512907816366,63.00
2025-12-24 17:01:22.874653,599632512907816366,79.00
2025-12-24 17:01:22.874653,599632512907816366,74.00
2025-12-24 17:01:22.874653,599632512907816366,72.00
2025-12-24 17:01:22.874653,599632512907816366,91.00
2025-12-24 17:01:22.874653,599632512907816366,121.00
2025-12-24 17:01:22.874653,599632512907816366,142.00
2025-12-24 17:01:22.874653,599632512907816366,156.00
2025-12-24 17:01:22.874653,599632512907816366,175.00
2025-12-24 17:01:22.874653,599632512907816366,182.00
2025-12-24 17:01:22.874653,599632512907816366,163.00
2025-12-24 17:01:22.874653,599632512907816366,140.00
2025-12-24 17:01:23.386207,599632513468696515,123.00
2025-12-24 17:01:23.386207,599632513468696515,91.00
2025-12-24 17:01:23.386207,599632513468696515,37.00
2025-12-24 17:01:23.386207,599632513468696515,-11.00
2025-12-24 17:01:23.386207,599632513468696515,-60.00
2025-12-24 17:01:23.386207,599632513468696515,-109.00
2025-12-24 17:01:23.386207,599632513468696515,-149.00
2025-12-24 17:01:23.386207,599632513468696515,-175.00
2025-12-24 17:01:23.386207,599632513468696515,-179.00
2025-12-24 17:01:23.386207,599632513468696515,-175.00
2025-12-24 17:01:23.386207,599632513468696515,-177.00
2025-12-24 17:01:23.386207,599632513468696515,-182.00
2025-12-24 17:01:23.386207,599632513468696515,-158.00
2025-12-24 17:01:23.386207,599632513468696515,-130.00
2025-12-24 17:01:23.386207,599632513468696515,-137.00
2025-12-24 17:01:23.386207,599632513468696515,-142.00
2025-12-24 17:01:23.386207,599632513468696515,-130.00
2025-12-24 17:01:23.386207,599632513468696515,-128.00
2025-12-24 17:01:23.386207,599632513468696515,-133.00
2025-12-24 17:01:23.386207,599632513468696515,-121.00
2025-12-24 17:01:23.386207,599632513468696515,-112.00
2025-12-24 17:01:23.386207,599632513468696515,-114.00
2025-12-24 17:01:23.386207,599632513468696515,-119.00
2025-12-24 17:01:23.386207,599632513468696515,-116.00
2025-12-24 17:01:23.386207,599632513468696515,-107.00
2025-12-24 17:01:23.386207,599632513468696515,-100.00
2025-12-24 17:01:23.386207,599632513468696515,-100.00
2025-12-24 17:01:23.386207,599632513468696515,-102.00
2025-12-24 17:01:23.386207,599632513468696515,-107.00
2025-12-24 17:01:23.386207,599632513468696515,-105.00
2025-12-24 17:01:23.386207,599632513468696515,-88.00
2025-12-24 17:01:23.386207,599632513468696515,-86.00
2025-12-24 17:01:23.386207,599632513468696515,-100.00
2025-12-24 17:01:23.386207,599632513468696515,-102.00
2025-12-24 17:01:23.386207,599632513468696515,-98.00
2025-12-24 17:01:23.386207,599632513468696515,-95.00
2025-12-24 17:01:23.386207,599632513468696515,-91.00
2025-12-24 17:01:23.386207,599632513468696515,-86.00
2025-12-24 17:01:23.386207,599632513468696515,-86.00
2025-12-24 17:01:23.386207,599632513468696515,-91.00
2025-12-24 17:01:23.386207,599632513468696515,-98.00
2025-12-24 17:01:23.386207,599632513468696515,-105.00
2025-12-24 17:01:23.386207,599632513468696515,-98.00
2025-12-24 17:01:23.386207,599632513468696515,-88.00
2025-12-24 17:01:23.386207,599632513468696515,-88.00
2025-12-24 17:01:23.386207,599632513468696515,-81.00
2025-12-24 17:01:23.386207,599632513468696515,-70.00
2025-12-24 17:01:23.386207,599632513468696515,-67.00
2025-12-24 17:01:23.386207,599632513468696515,-65.00
2025-12-24 17:01:23.386207,599632513468696515,-60.00
2025-12-24 17:01:23.386207,599632513468696515,-65.00
2025-12-24 17:01:23.386207,599632513468696515,-74.00
2025-12-24 17:01:23.386207,599632513468696515,-72.00
2025-12-24 17:01:23.386207,599632513468696515,-70.00
2025-12-24 17:01:23.386207,599632513468696515,-63.00
2025-12-24 17:01:23.386207,599632513468696515,-51.00
2025-12-24 17:01:23.386207,599632513468696515,-60.00
2025-12-24 17:01:23.386207,599632513468696515,-67.00
2025-12-24 17:01:23.386207,599632513468696515,-53.00
2025-12-24 17:01:23.386207,599632513468696515,-53.00
2025-12-24 17:01:23.386207,599632513468696515,-63.00
2025-12-24 17:01:23.386207,599632513468696515,-56.00
2025-12-24 17:01:23.386207,599632513468696515,-49.00
2025-12-24 17:01:23.386207,599632513468696515,-56.00
2025-12-24 17:01:23.386207,599632513468696515,-51.00
2025-12-24 17:01:23.386207,599632513468696515,-42.00
2025-12-24 17:01:23.386207,599632513468696515,-51.00
2025-12-24 17:01:23.386207,599632513468696515,-60.00
2025-12-24 17:01:23.386207,599632513468696515,-44.00
2025-12-24 17:01:23.386207,599632513468696515,-21.00
2025-12-24 17:01:23.386207,599632513468696515,-25.00
2025-12-24 17:01:23.386207,599632513468696515,-51.00
2025-12-24 17:01:23.386207,599632513468696515,-63.00
2025-12-24 17:01:23.987519,599632514029576664,-58.00
2025-12-24 17:01:23.987519,599632514029576664,-56.00
2025-12-24 17:01:23.987519,599632514029576664,-56.00
2025-12-24 17:01:23.987519,599632514029576664,-37.00
2025-12-24 17:01:23.987519,599632514029576664,-32.00
2025-12-24 17:01:23.987519,599632514029576664,-42.00
2025-12-24 17:01:23.987519,599632514029576664,-44.00
2025-12-24 17:01:23.987519,599632514029576664,11.00
2025-12-24 17:01:23.987519,599632514029576664,228.00
2025-12-24 17:01:23.987519,599632514029576664,618.00
2025-12-24 17:01:23.987519,599632514029576664,773.00
2025-12-24 17:01:23.987519,599632514029576664,217.00
2025-12-24 17:01:23.987519,599632514029576664,-464.00
2025-12-24 17:01:23.987519,599632514029576664,-383.00
2025-12-24 17:01:23.987519,599632514029576664,-32.00
2025-12-24 17:01:23.987519,599632514029576664,-51.00
2025-12-24 17:01:23.987519,599632514029576664,-100.00
2025-12-24 17:01:23.987519,599632514029576664,-16.00
2025-12-24 17:01:23.987519,599632514029576664,-14.00
2025-12-24 17:01:23.987519,599632514029576664,-46.00
2025-12-24 17:01:23.987519,599632514029576664,-18.00
2025-12-24 17:01:23.987519,599632514029576664,0.00
2025-12-24 17:01:23.987519,599632514029576664,-9.00
2025-12-24 17:01:23.987519,599632514029576664,-2.00
2025-12-24 17:01:23.987519,599632514029576664,11.00
2025-12-24 17:01:23.987519,599632514029576664,7.00
2025-12-24 17:01:23.987519,599632514029576664,7.00
2025-12-24 17:01:23.987519,599632514029576664,25.00
2025-12-24 17:01:23.987519,599632514029576664,39.00
2025-12-24 17:01:23.987519,599632514029576664,46.00
2025-12-24 17:01:23.987519,599632514029576664,65.00
2025-12-24 17:01:23.987519,599632514029576664,77.00
2025-12-24 17:01:23.987519,599632514029576664,79.00
2025-12-24 17:01:23.987519,599632514029576664,88.00
2025-12-24 17:01:23.987519,599632514029576664,119.00
2025-12-24 17:01:23.987519,599632514029576664,144.00
2025-12-24 17:01:23.987519,599632514029576664,149.00
2025-12-24 17:01:23.987519,599632514029576664,151.00
2025-12-24 17:01:23.987519,599632514029576664,151.00
2025-12-24 17:01:23.987519,599632514029576664,142.00
2025-12-24 17:01:23.987519,599632514029576664,123.00
2025-12-24 17:01:23.987519,599632514029576664,81.00
2025-12-24 17:01:23.987519,599632514029576664,11.00
2025-12-24 17:01:23.987519,599632514029576664,-63.00
2025-12-24 17:01:23.987519,599632514029576664,-123.00
2025-12-24 17:01:23.987519,599632514029576664,-158.00
2025-12-24 17:01:23.987519,599632514029576664,-184.00
2025-12-24 17:01:23.987519,599632514029576664,-196.00
2025-12-24 17:01:23.987519,599632514029576664,-205.00
2025-12-24 17:01:23.987519,599632514029576664,-217.00
2025-12-24 17:01:23.987519,599632514029576664,-210.00
2025-12-24 17:01:23.987519,599632514029576664,-193.00
2025-12-24 17:01:23.987519,599632514029576664,-191.00
2025-12-24 17:01:23.987519,599632514029576664,-191.00
2025-12-24 17:01:23.987519,599632514029576664,-196.00
2025-12-24 17:01:23.987519,599632514029576664,-191.00
2025-12-24 17:01:23.987519,599632514029576664,-175.00
2025-12-24 17:01:23.987519,599632514029576664,-165.00
2025-12-24 17:01:23.987519,599632514029576664,-165.00
2025-12-24 17:01:23.987519,599632514029576664,-158.00
2025-12-24 17:01:23.987519,599632514029576664,-149.00
2025-12-24 17:01:23.987519,599632514029576664,-137.00
2025-12-24 17:01:23.987519,599632514029576664,-119.00
2025-12-24 17:01:23.987519,599632514029576664,-119.00
2025-12-24 17:01:23.987519,599632514029576664,-128.00
2025-12-24 17:01:23.987519,599632514029576664,-126.00
2025-12-24 17:01:23.987519,599632514029576664,-112.00
2025-12-24 17:01:23.987519,599632514029576664,-112.00
2025-12-24 17:01:23.987519,599632514029576664,-105.00
2025-12-24 17:01:23.987519,599632514029576664,-86.00
2025-12-24 17:01:23.987519,599632514029576664,-91.00
2025-12-24 17:01:23.987519,599632514029576664,-98.00
2025-12-24 17:01:23.987519,599632514029576664,-84.00
2025-12-24 17:01:24.490692,599632514590456813,-81.00
2025-12-24 17:01:24.490692,599632514590456813,-84.00
2025-12-24 17:01:24.490692,599632514590456813,-77.00
2025-12-24 17:01:24.490692,599632514590456813,-74.00
2025-12-24 17:01:24.490692,599632514590456813,-74.00
2025-12-24 17:01:24.490692,599632514590456813,-84.00
2025-12-24 17:01:24.490692,599632514590456813,-79.00
2025-12-24 17:01:24.490692,599632514590456813,-67.00
2025-12-24 17:01:24.490692,599632514590456813,-67.00
2025-12-24 17:01:24.490692,599632514590456813,-70.00
2025-12-24 17:01:24.490692,599632514590456813,-60.00
2025-12-24 17:01:24.490692,599632514590456813,-58.00
2025-12-24 17:01:24.490692,599632514590456813,-58.00
2025-12-24 17:01:24.490692,599632514590456813,-44.00
2025-12-24 17:01:24.490692,599632514590456813,-42.00
2025-12-24 17:01:24.490692,599632514590456813,-49.00
2025-12-24 17:01:24.490692,599632514590456813,-51.00
2025-12-24 17:01:24.490692,599632514590456813,-46.00
2025-12-24 17:01:24.490692,599632514590456813,-49.00
2025-12-24 17:01:24.490692,599632514590456813,-53.00
2025-12-24 17:01:24.490692,599632514590456813,-56.00
2025-12-24 17:01:24.490692,599632514590456813,-56.00
2025-12-24 17:01:24.490692,599632514590456813,-56.00
2025-12-24 17:01:24.490692,599632514590456813,-51.00
2025-12-24 17:01:24.490692,599632514590456813,-49.00
2025-12-24 17:01:24.490692,599632514590456813,-51.00
2025-12-24 17:01:24.490692,599632514590456813,-56.00
2025-12-24 17:01:24.490692,599632514590456813,-58.00
2025-12-24 17:01:24.490692,599632514590456813,-46.00
2025-12-24 17:01:24.490692,599632514590456813,-42.00
2025-12-24 17:01:24.490692,599632514590456813,-49.00
2025-12-24 17:01:24.490692,599632514590456813,-60.00
2025-12-24 17:01:24.490692,599632514590456813,-67.00
2025-12-24 17:01:24.490692,599632514590456813,-67.00
2025-12-24 17:01:24.490692,599632514590456813,-63.00
2025-12-24 17:01:24.490692,599632514590456813,-60.00
2025-12-24 17:01:24.490692,599632514590456813,-60.00
2025-12-24 17:01:24.490692,599632514590456813,-58.00
2025-12-24 17:01:24.490692,599632514590456813,-65.00
2025-12-24 17:01:24.490692,599632514590456813,-70.00
2025-12-24 17:01:24.490692,599632514590456813,2.00
2025-12-24 17:01:24.490692,599632514590456813,238.00
2025-12-24 17:01:24.490692,599632514590456813,616.00
2025-12-24 17:01:24.490692,599632514590456813,735.00
2025-12-24 17:01:24.490692,599632514590456813,142.00
2025-12-24 17:01:24.490692,599632514590456813,-546.00
2025-12-24 17:01:24.490692,599632514590456813,-434.00
2025-12-24 17:01:24.490692,599632514590456813,-58.00
2025-12-24 17:01:24.490692,599632514590456813,-84.00
2025-12-24 17:01:24.490692,599632514590456813,-126.00
2025-12-24 17:01:24.490692,599632514590456813,-37.00
2025-12-24 17:01:24.490692,599632514590456813,-37.00
2025-12-24 17:01:24.490692,599632514590456813,-60.00
2025-12-24 17:01:24.490692,599632514590456813,-25.00
2025-12-24 17:01:24.490692,599632514590456813,-2.00
2025-12-24 17:01:24.490692,599632514590456813,-7.00
2025-12-24 17:01:24.490692,599632514590456813,-4.00
2025-12-24 17:01:24.490692,599632514590456813,9.00
2025-12-24 17:01:24.490692,599632514590456813,25.00
2025-12-24 17:01:24.490692,599632514590456813,32.00
2025-12-24 17:01:24.490692,599632514590456813,35.00
2025-12-24 17:01:24.490692,599632514590456813,37.00
2025-12-24 17:01:24.490692,599632514590456813,49.00
2025-12-24 17:01:24.490692,599632514590456813,63.00
2025-12-24 17:01:24.490692,599632514590456813,81.00
2025-12-24 17:01:24.490692,599632514590456813,105.00
2025-12-24 17:01:24.490692,599632514590456813,123.00
2025-12-24 17:01:24.490692,599632514590456813,137.00
2025-12-24 17:01:24.490692,599632514590456813,147.00
2025-12-24 17:01:24.490692,599632514590456813,158.00
2025-12-24 17:01:24.490692,599632514590456813,168.00
2025-12-24 17:01:24.490692,599632514590456813,175.00
2025-12-24 17:01:24.490692,599632514590456813,161.00
2025-12-24 17:01:25.143788,599632515151336962,128.00
2025-12-24 17:01:25.143788,599632515151336962,81.00
2025-12-24 17:01:25.143788,599632515151336962,9.00
2025-12-24 17:01:25.143788,599632515151336962,-65.00
2025-12-24 17:01:25.143788,599632515151336962,-107.00
2025-12-24 17:01:25.143788,599632515151336962,-135.00
2025-12-24 17:01:25.143788,599632515151336962,-165.00
2025-12-24 17:01:25.143788,599632515151336962,-189.00
2025-12-24 17:01:25.143788,599632515151336962,-203.00
2025-12-24 17:01:25.143788,599632515151336962,-205.00
2025-12-24 17:01:25.143788,599632515151336962,-186.00
2025-12-24 17:01:25.143788,599632515151336962,-177.00
2025-12-24 17:01:25.143788,599632515151336962,-186.00
2025-12-24 17:01:25.143788,599632515151336962,-179.00
2025-12-24 17:01:25.143788,599632515151336962,-165.00
2025-12-24 17:01:25.143788,599632515151336962,-172.00
2025-12-24 17:01:25.143788,599632515151336962,-172.00
2025-12-24 17:01:25.143788,599632515151336962,-147.00
2025-12-24 17:01:25.143788,599632515151336962,-137.00
2025-12-24 17:01:25.143788,599632515151336962,-144.00
2025-12-24 17:01:25.143788,599632515151336962,-130.00
2025-12-24 17:01:25.143788,599632515151336962,-114.00
2025-12-24 17:01:25.143788,599632515151336962,-121.00
2025-12-24 17:01:25.143788,599632515151336962,-123.00
2025-12-24 17:01:25.143788,599632515151336962,-109.00
2025-12-24 17:01:25.143788,599632515151336962,-109.00
2025-12-24 17:01:25.143788,599632515151336962,-114.00
2025-12-24 17:01:25.143788,599632515151336962,-109.00
2025-12-24 17:01:25.143788,599632515151336962,-95.00
2025-12-24 17:01:25.143788,599632515151336962,-84.00
2025-12-24 17:01:25.143788,599632515151336962,-81.00
2025-12-24 17:01:25.143788,599632515151336962,-84.00
2025-12-24 17:01:25.143788,599632515151336962,-86.00
2025-12-24 17:01:25.143788,599632515151336962,-84.00
2025-12-24 17:01:25.143788,599632515151336962,-79.00
2025-12-24 17:01:25.143788,599632515151336962,-79.00
2025-12-24 17:01:25.143788,599632515151336962,-79.00
2025-12-24 17:01:25.143788,599632515151336962,-72.00
2025-12-24 17:01:25.143788,599632515151336962,-77.00
2025-12-24 17:01:25.143788,599632515151336962,-84.00
2025-12-24 17:01:25.143788,599632515151336962,-74.00
2025-12-24 17:01:25.143788,599632515151336962,-67.00
2025-12-24 17:01:25.143788,599632515151336962,-72.00
2025-12-24 17:01:25.143788,599632515151336962,-72.00
2025-12-24 17:01:25.143788,599632515151336962,-65.00
2025-12-24 17:01:25.143788,599632515151336962,-60.00
2025-12-24 17:01:25.143788,599632515151336962,-63.00
2025-12-24 17:01:25.143788,599632515151336962,-58.00
2025-12-24 17:01:25.143788,599632515151336962,-44.00
2025-12-24 17:01:25.143788,599632515151336962,-42.00
2025-12-24 17:01:25.143788,599632515151336962,-44.00
2025-12-24 17:01:25.143788,599632515151336962,-44.00
2025-12-24 17:01:25.143788,599632515151336962,-44.00
2025-12-24 17:01:25.143788,599632515151336962,-46.00
2025-12-24 17:01:25.143788,599632515151336962,-49.00
2025-12-24 17:01:25.143788,599632515151336962,-32.00
2025-12-24 17:01:25.143788,599632515151336962,-18.00
2025-12-24 17:01:25.143788,599632515151336962,-42.00
2025-12-24 17:01:25.143788,599632515151336962,-65.00
2025-12-24 17:01:25.143788,599632515151336962,-60.00
2025-12-24 17:01:25.143788,599632515151336962,-60.00
2025-12-24 17:01:25.143788,599632515151336962,-70.00
2025-12-24 17:01:25.143788,599632515151336962,-67.00
2025-12-24 17:01:25.143788,599632515151336962,-53.00
2025-12-24 17:01:25.143788,599632515151336962,-51.00
2025-12-24 17:01:25.143788,599632515151336962,-58.00
2025-12-24 17:01:25.143788,599632515151336962,-49.00
2025-12-24 17:01:25.143788,599632515151336962,44.00
2025-12-24 17:01:25.143788,599632515151336962,305.00
2025-12-24 17:01:25.143788,599632515151336962,677.00
2025-12-24 17:01:25.143788,599632515151336962,733.00
2025-12-24 17:01:25.143788,599632515151336962,100.00
2025-12-24 17:01:25.143788,599632515151336962,-527.00
2025-12-24 17:01:25.645690,599632515712222199,-364.00
2025-12-24 17:01:25.645690,599632515712222199,-35.00
2025-12-24 17:01:25.645690,599632515712222199,-84.00
2025-12-24 17:01:25.645690,599632515712222199,-114.00
2025-12-24 17:01:25.645690,599632515712222199,-35.00
2025-12-24 17:01:25.645690,599632515712222199,-37.00
2025-12-24 17:01:25.645690,599632515712222199,-65.00
2025-12-24 17:01:25.645690,599632515712222199,-42.00
2025-12-24 17:01:25.645690,599632515712222199,-9.00
2025-12-24 17:01:25.645690,599632515712222199,-2.00
2025-12-24 17:01:25.645690,599632515712222199,-9.00
2025-12-24 17:01:25.645690,599632515712222199,-4.00
2025-12-24 17:01:25.645690,599632515712222199,11.00
2025-12-24 17:01:25.645690,599632515712222199,28.00
2025-12-24 17:01:25.645690,599632515712222199,42.00
2025-12-24 17:01:25.645690,599632515712222199,60.00
2025-12-24 17:01:25.645690,599632515712222199,77.00
2025-12-24 17:01:25.645690,599632515712222199,79.00
2025-12-24 17:01:25.645690,599632515712222199,88.00
2025-12-24 17:01:25.645690,599632515712222199,107.00
2025-12-24 17:01:25.645690,599632515712222199,126.00
2025-12-24 17:01:25.645690,599632515712222199,142.00
2025-12-24 17:01:25.645690,599632515712222199,170.00
2025-12-24 17:01:25.645690,599632515712222199,186.00
2025-12-24 17:01:25.645690,599632515712222199,189.00
2025-12-24 17:01:25.645690,599632515712222199,182.00
2025-12-24 17:01:25.645690,599632515712222199,172.00
2025-12-24 17:01:25.645690,599632515712222199,137.00
2025-12-24 17:01:25.645690,599632515712222199,72.00
2025-12-24 17:01:25.645690,599632515712222199,7.00
2025-12-24 17:01:25.645690,599632515712222199,-58.00
2025-12-24 17:01:25.645690,599632515712222199,-119.00
2025-12-24 17:01:25.645690,599632515712222199,-161.00
2025-12-24 17:01:25.645690,599632515712222199,-191.00
2025-12-24 17:01:25.645690,599632515712222199,-203.00
2025-12-24 17:01:25.645690,599632515712222199,-203.00
2025-12-24 17:01:25.645690,599632515712222199,-198.00
2025-12-24 17:01:25.645690,599632515712222199,-189.00
2025-12-24 17:01:25.645690,599632515712222199,-184.00
2025-12-24 17:01:25.645690,599632515712222199,-179.00
2025-12-24 17:01:25.645690,599632515712222199,-165.00
2025-12-24 17:01:25.645690,599632515712222199,-156.00
2025-12-24 17:01:25.645690,599632515712222199,-161.00
2025-12-24 17:01:25.645690,599632515712222199,-158.00
2025-12-24 17:01:25.645690,599632515712222199,-154.00
2025-12-24 17:01:25.645690,599632515712222199,-151.00
2025-12-24 17:01:25.645690,599632515712222199,-144.00
2025-12-24 17:01:25.645690,599632515712222199,-130.00
2025-12-24 17:01:25.645690,599632515712222199,-128.00
2025-12-24 17:01:25.645690,599632515712222199,-130.00
2025-12-24 17:01:25.645690,599632515712222199,-114.00
2025-12-24 17:01:25.645690,599632515712222199,-98.00
2025-12-24 17:01:25.645690,599632515712222199,-105.00
2025-12-24 17:01:25.645690,599632515712222199,-109.00
2025-12-24 17:01:25.645690,599632515712222199,-95.00
2025-12-24 17:01:25.645690,599632515712222199,-86.00
2025-12-24 17:01:25.645690,599632515712222199,-88.00
2025-12-24 17:01:25.645690,599632515712222199,-81.00
2025-12-24 17:01:25.645690,599632515712222199,-79.00
2025-12-24 17:01:25.645690,599632515712222199,-84.00
2025-12-24 17:01:25.645690,599632515712222199,-86.00
2025-12-24 17:01:25.645690,599632515712222199,-88.00
2025-12-24 17:01:25.645690,599632515712222199,-91.00
2025-12-24 17:01:25.645690,599632515712222199,-86.00
2025-12-24 17:01:25.645690,599632515712222199,-88.00
2025-12-24 17:01:25.645690,599632515712222199,-88.00
2025-12-24 17:01:25.645690,599632515712222199,-77.00
2025-12-24 17:01:25.645690,599632515712222199,-70.00
2025-12-24 17:01:25.645690,599632515712222199,-70.00
2025-12-24 17:01:25.645690,599632515712222199,-70.00
2025-12-24 17:01:25.645690,599632515712222199,-67.00
2025-12-24 17:01:25.645690,599632515712222199,-65.00
2025-12-24 17:01:25.645690,599632515712222199,-53.00
2025-12-24 17:01:26.197249,599632516273107434,-51.00
2025-12-24 17:01:26.197249,599632516273107434,-56.00
2025-12-24 17:01:26.197249,599632516273107434,-49.00
2025-12-24 17:01:26.197249,599632516273107434,-46.00
2025-12-24 17:01:26.197249,599632516273107434,-56.00
2025-12-24 17:01:26.197249,599632516273107434,-51.00
2025-12-24 17:01:26.197249,599632516273107434,-37.00
2025-12-24 17:01:26.197249,599632516273107434,-37.00
2025-12-24 17:01:26.197249,599632516273107434,-51.00
2025-12-24 17:01:26.197249,599632516273107434,-51.00
2025-12-24 17:01:26.197249,599632516273107434,-37.00
2025-12-24 17:01:26.197249,599632516273107434,-23.00
2025-12-24 17:01:26.197249,599632516273107434,-16.00
2025-12-24 17:01:26.197249,599632516273107434,-16.00
2025-12-24 17:01:26.197249,599632516273107434,-23.00
2025-12-24 17:01:26.197249,599632516273107434,-42.00
2025-12-24 17:01:26.197249,599632516273107434,-49.00
2025-12-24 17:01:26.197249,599632516273107434,-37.00
2025-12-24 17:01:26.197249,599632516273107434,-35.00
2025-12-24 17:01:26.197249,599632516273107434,-42.00
2025-12-24 17:01:26.197249,599632516273107434,-35.00
2025-12-24 17:01:26.197249,599632516273107434,-28.00
2025-12-24 17:01:26.197249,599632516273107434,-37.00
2025-12-24 17:01:26.197249,599632516273107434,-28.00
2025-12-24 17:01:26.197249,599632516273107434,72.00
2025-12-24 17:01:26.197249,599632516273107434,348.00
2025-12-24 17:01:26.197249,599632516273107434,717.00
2025-12-24 17:01:26.197249,599632516273107434,742.00
2025-12-24 17:01:26.197249,599632516273107434,105.00
2025-12-24 17:01:26.197249,599632516273107434,-481.00
2025-12-24 17:01:26.197249,599632516273107434,-305.00
2025-12-24 17:01:26.197249,599632516273107434,4.00
2025-12-24 17:01:26.197249,599632516273107434,-35.00
2025-12-24 17:01:26.197249,599632516273107434,-63.00
2025-12-24 17:01:26.197249,599632516273107434,2.00
2025-12-24 17:01:26.197249,599632516273107434,-2.00
2025-12-24 17:01:26.197249,599632516273107434,-21.00
2025-12-24 17:01:26.197249,599632516273107434,0.00
2025-12-24 17:01:26.197249,599632516273107434,11.00
2025-12-24 17:01:26.197249,599632516273107434,14.00
2025-12-24 17:01:26.197249,599632516273107434,18.00
2025-12-24 17:01:26.197249,599632516273107434,23.00
2025-12-24 17:01:26.197249,599632516273107434,35.00
2025-12-24 17:01:26.197249,599632516273107434,46.00
2025-12-24 17:01:26.197249,599632516273107434,46.00
2025-12-24 17:01:26.197249,599632516273107434,49.00
2025-12-24 17:01:26.197249,599632516273107434,72.00
2025-12-24 17:01:26.197249,599632516273107434,91.00
2025-12-24 17:01:26.197249,599632516273107434,98.00
2025-12-24 17:01:26.197249,599632516273107434,112.00
2025-12-24 17:01:26.197249,599632516273107434,130.00
2025-12-24 17:01:26.197249,599632516273107434,151.00
2025-12-24 17:01:26.197249,599632516273107434,170.00
2025-12-24 17:01:26.197249,599632516273107434,177.00
2025-12-24 17:01:26.197249,599632516273107434,182.00
2025-12-24 17:01:26.197249,599632516273107434,186.00
2025-12-24 17:01:26.197249,599632516273107434,172.00
2025-12-24 17:01:26.197249,599632516273107434,142.00
2025-12-24 17:01:26.197249,599632516273107434,93.00
2025-12-24 17:01:26.197249,599632516273107434,23.00
2025-12-24 17:01:26.197249,599632516273107434,-51.00
2025-12-24 17:01:26.197249,599632516273107434,-107.00
2025-12-24 17:01:26.197249,599632516273107434,-133.00
2025-12-24 17:01:26.197249,599632516273107434,-147.00
2025-12-24 17:01:26.197249,599632516273107434,-163.00
2025-12-24 17:01:26.197249,599632516273107434,-172.00
2025-12-24 17:01:26.197249,599632516273107434,-172.00
2025-12-24 17:01:26.197249,599632516273107434,-172.00
2025-12-24 17:01:26.197249,599632516273107434,-170.00
2025-12-24 17:01:26.197249,599632516273107434,-161.00
2025-12-24 17:01:26.197249,599632516273107434,-156.00
2025-12-24 17:01:26.197249,599632516273107434,-154.00
2025-12-24 17:01:26.197249,599632516273107434,-147.00
2025-12-24 17:01:26.798613,599632516833992669,-137.00
2025-12-24 17:01:26.798613,599632516833992669,-133.00
2025-12-24 17:01:26.798613,599632516833992669,-130.00
2025-12-24 17:01:26.798613,599632516833992669,-128.00
2025-12-24 17:01:26.798613,599632516833992669,-126.00
2025-12-24 17:01:26.798613,599632516833992669,-119.00
2025-12-24 17:01:26.798613,599632516833992669,-114.00
2025-12-24 17:01:26.798613,599632516833992669,-100.00
2025-12-24 17:01:26.798613,599632516833992669,-79.00
2025-12-24 17:01:26.798613,599632516833992669,-74.00
2025-12-24 17:01:26.798613,599632516833992669,-77.00
2025-12-24 17:01:26.798613,599632516833992669,-72.00
2025-12-24 17:01:26.798613,599632516833992669,-70.00
2025-12-24 17:01:26.798613,599632516833992669,-67.00
2025-12-24 17:01:26.798613,599632516833992669,-63.00
2025-12-24 17:01:26.798613,599632516833992669,-65.00
2025-12-24 17:01:26.798613,599632516833992669,-63.00
2025-12-24 17:01:26.798613,599632516833992669,-63.00
2025-12-24 17:01:26.798613,599632516833992669,-63.00
2025-12-24 17:01:26.798613,599632516833992669,-60.00
2025-12-24 17:01:26.798613,599632516833992669,-60.00
2025-12-24 17:01:26.798613,599632516833992669,-63.00
2025-12-24 17:01:26.798613,599632516833992669,-53.00
2025-12-24 17:01:26.798613,599632516833992669,-46.00
2025-12-24 17:01:26.798613,599632516833992669,-39.00
2025-12-24 17:01:26.798613,599632516833992669,-30.00
2025-12-24 17:01:26.798613,599632516833992669,-28.00
2025-12-24 17:01:26.798613,599632516833992669,-39.00
2025-12-24 17:01:26.798613,599632516833992669,-44.00
2025-12-24 17:01:26.798613,599632516833992669,-42.00
2025-12-24 17:01:26.798613,599632516833992669,-42.00
2025-12-24 17:01:26.798613,599632516833992669,-37.00
2025-12-24 17:01:26.798613,599632516833992669,-30.00
2025-12-24 17:01:26.798613,599632516833992669,-28.00
2025-12-24 17:01:26.798613,599632516833992669,-32.00
2025-12-24 17:01:26.798613,599632516833992669,-25.00
2025-12-24 17:01:26.798613,599632516833992669,-16.00
2025-12-24 17:01:26.798613,599632516833992669,-16.00
2025-12-24 17:01:26.798613,599632516833992669,-14.00
2025-12-24 17:01:26.798613,599632516833992669,-11.00
2025-12-24 17:01:26.798613,599632516833992669,-14.00
2025-12-24 17:01:26.798613,599632516833992669,-21.00
2025-12-24 17:01:26.798613,599632516833992669,-14.00
2025-12-24 17:01:26.798613,599632516833992669,2.00
2025-12-24 17:01:26.798613,599632516833992669,0.00
2025-12-24 17:01:26.798613,599632516833992669,-11.00
2025-12-24 17:01:26.798613,599632516833992669,-16.00
2025-12-24 17:01:26.798613,599632516833992669,-25.00
2025-12-24 17:01:26.798613,599632516833992669,-35.00
2025-12-24 17:01:26.798613,599632516833992669,-30.00
2025-12-24 17:01:26.798613,599632516833992669,-28.00
2025-12-24 17:01:26.798613,599632516833992669,-32.00
2025-12-24 17:01:26.798613,599632516833992669,-30.00
2025-12-24 17:01:26.798613,599632516833992669,-32.00
2025-12-24 17:01:26.798613,599632516833992669,-30.00
2025-12-24 17:01:26.798613,599632516833992669,16.00
2025-12-24 17:01:26.798613,599632516833992669,163.00
2025-12-24 17:01:26.798613,599632516833992669,478.00
2025-12-24 17:01:26.798613,599632516833992669,794.00
2025-12-24 17:01:26.798613,599632516833992669,597.00
2025-12-24 17:01:26.798613,599632516833992669,-140.00
2025-12-24 17:01:26.798613,599632516833992669,-490.00
2025-12-24 17:01:26.798613,599632516833992669,-168.00
2025-12-24 17:01:26.798613,599632516833992669,9.00
2025-12-24 17:01:26.798613,599632516833992669,-86.00
2025-12-24 17:01:26.798613,599632516833992669,-53.00
2025-12-24 17:01:26.798613,599632516833992669,2.00
2025-12-24 17:01:26.798613,599632516833992669,-25.00
2025-12-24 17:01:26.798613,599632516833992669,-25.00
2025-12-24 17:01:26.798613,599632516833992669,-2.00
2025-12-24 17:01:26.798613,599632516833992669,-4.00
2025-12-24 17:01:26.798613,599632516833992669,-2.00
2025-12-24 17:01:26.798613,599632516833992669,14.00
2025-12-24 17:01:27.300133,599632517394877904,21.00
2025-12-24 17:01:27.300133,599632517394877904,14.00
2025-12-24 17:01:27.300133,599632517394877904,25.00
2025-12-24 17:01:27.300133,599632517394877904,53.00
2025-12-24 17:01:27.300133,599632517394877904,60.00
2025-12-24 17:01:27.300133,599632517394877904,60.00
2025-12-24 17:01:27.300133,599632517394877904,84.00
2025-12-24 17:01:27.300133,599632517394877904,102.00
2025-12-24 17:01:27.300133,599632517394877904,107.00
2025-12-24 17:01:27.300133,599632517394877904,123.00
2025-12-24 17:01:27.300133,599632517394877904,154.00
2025-12-24 17:01:27.300133,599632517394877904,182.00
2025-12-24 17:01:27.300133,599632517394877904,198.00
2025-12-24 17:01:27.300133,599632517394877904,200.00
2025-12-24 17:01:27.300133,599632517394877904,196.00
2025-12-24 17:01:27.300133,599632517394877904,179.00
2025-12-24 17:01:27.300133,599632517394877904,137.00
2025-12-24 17:01:27.300133,599632517394877904,81.00
2025-12-24 17:01:27.300133,599632517394877904,21.00
2025-12-24 17:01:27.300133,599632517394877904,-42.00
2025-12-24 17:01:27.300133,599632517394877904,-88.00
2025-12-24 17:01:27.300133,599632517394877904,-126.00
2025-12-24 17:01:27.300133,599632517394877904,-156.00
2025-12-24 17:01:27.300133,599632517394877904,-165.00
2025-12-24 17:01:27.300133,599632517394877904,-163.00
2025-12-24 17:01:27.300133,599632517394877904,-168.00
2025-12-24 17:01:27.300133,599632517394877904,-168.00
2025-12-24 17:01:27.300133,599632517394877904,-158.00
2025-12-24 17:01:27.300133,599632517394877904,-156.00
2025-12-24 17:01:27.300133,599632517394877904,-151.00
2025-12-24 17:01:27.300133,599632517394877904,-151.00
2025-12-24 17:01:27.300133,599632517394877904,-147.00
2025-12-24 17:01:27.300133,599632517394877904,-137.00
2025-12-24 17:01:27.300133,599632517394877904,-133.00
2025-12-24 17:01:27.300133,599632517394877904,-133.00
2025-12-24 17:01:27.300133,599632517394877904,-126.00
2025-12-24 17:01:27.300133,599632517394877904,-121.00
2025-12-24 17:01:27.300133,599632517394877904,-123.00
2025-12-24 17:01:27.300133,599632517394877904,-114.00
2025-12-24 17:01:27.300133,599632517394877904,-102.00
2025-12-24 17:01:27.300133,599632517394877904,-105.00
2025-12-24 17:01:27.300133,599632517394877904,-109.00
2025-12-24 17:01:27.300133,599632517394877904,-105.00
2025-12-24 17:01:27.300133,599632517394877904,-95.00
2025-12-24 17:01:27.300133,599632517394877904,-86.00
2025-12-24 17:01:27.300133,599632517394877904,-88.00
2025-12-24 17:01:27.300133,599632517394877904,-88.00
2025-12-24 17:01:27.300133,599632517394877904,-77.00
2025-12-24 17:01:27.300133,599632517394877904,-72.00
2025-12-24 17:01:27.300133,599632517394877904,-86.00
2025-12-24 17:01:27.300133,599632517394877904,-88.00
2025-12-24 17:01:27.300133,599632517394877904,-84.00
2025-12-24 17:01:27.300133,599632517394877904,-86.00
2025-12-24 17:01:27.300133,599632517394877904,-91.00
2025-12-24 17:01:27.300133,599632517394877904,-86.00
2025-12-24 17:01:27.300133,599632517394877904,-79.00
2025-12-24 17:01:27.300133,599632517394877904,-81.00
2025-12-24 17:01:27.300133,599632517394877904,-79.00
2025-12-24 17:01:27.300133,599632517394877904,-67.00
2025-12-24 17:01:27.300133,599632517394877904,-63.00
2025-12-24 17:01:27.300133,599632517394877904,-70.00
2025-12-24 17:01:27.300133,599632517394877904,-77.00
2025-12-24 17:01:27.300133,599632517394877904,-74.00
2025-12-24 17:01:27.300133,599632517394877904,-67.00
2025-12-24 17:01:27.300133,599632517394877904,-70.00
2025-12-24 17:01:27.300133,599632517394877904,-72.00
2025-12-24 17:01:27.300133,599632517394877904,-67.00
2025-12-24 17:01:27.300133,599632517394877904,-63.00
2025-12-24 17:01:27.300133,599632517394877904,-63.00
2025-12-24 17:01:27.300133,599632517394877904,-63.00
2025-12-24 17:01:27.300133,599632517394877904,-67.00
2025-12-24 17:01:27.300133,599632517394877904,-65.00
2025-12-24 17:01:27.300133,599632517394877904,-53.00
2025-12-24 17:01:27.952021,599632517955763139,-49.00
2025-12-24 17:01:27.952021,599632517955763139,-46.00
2025-12-24 17:01:27.952021,599632517955763139,-39.00
2025-12-24 17:01:27.952021,599632517955763139,-35.00
2025-12-24 17:01:27.952021,599632517955763139,-32.00
2025-12-24 17:01:27.952021,599632517955763139,-28.00
2025-12-24 17:01:27.952021,599632517955763139,-21.00
2025-12-24 17:01:27.952021,599632517955763139,-9.00
2025-12-24 17:01:27.952021,599632517955763139,-7.00
2025-12-24 17:01:27.952021,599632517955763139,-23.00
2025-12-24 17:01:27.952021,599632517955763139,-30.00
2025-12-24 17:01:27.952021,599632517955763139,-14.00
2025-12-24 17:01:27.952021,599632517955763139,-7.00
2025-12-24 17:01:27.952021,599632517955763139,-16.00
2025-12-24 17:01:27.952021,599632517955763139,-11.00
2025-12-24 17:01:27.952021,599632517955763139,-2.00
2025-12-24 17:01:27.952021,599632517955763139,-14.00
2025-12-24 17:01:27.952021,599632517955763139,-18.00
2025-12-24 17:01:27.952021,599632517955763139,39.00
2025-12-24 17:01:27.952021,599632517955763139,242.00
2025-12-24 17:01:27.952021,599632517955763139,604.00
2025-12-24 17:01:27.952021,599632517955763139,798.00
2025-12-24 17:01:27.952021,599632517955763139,329.00
2025-12-24 17:01:27.952021,599632517955763139,-383.00
2025-12-24 17:01:27.952021,599632517955763139,-406.00
2025-12-24 17:01:27.952021,599632517955763139,-44.00
2025-12-24 17:01:27.952021,599632517955763139,-23.00
2025-12-24 17:01:27.952021,599632517955763139,-98.00
2025-12-24 17:01:27.952021,599632517955763139,-23.00
2025-12-24 17:01:27.952021,599632517955763139,-2.00
2025-12-24 17:01:27.952021,599632517955763139,-35.00
2025-12-24 17:01:27.952021,599632517955763139,-18.00
2025-12-24 17:01:27.952021,599632517955763139,0.00
2025-12-24 17:01:27.952021,599632517955763139,-7.00
2025-12-24 17:01:27.952021,599632517955763139,0.00
2025-12-24 17:01:27.952021,599632517955763139,14.00
2025-12-24 17:01:27.952021,599632517955763139,21.00
2025-12-24 17:01:27.952021,599632517955763139,30.00
2025-12-24 17:01:27.952021,599632517955763139,39.00
2025-12-24 17:01:27.952021,599632517955763139,49.00
2025-12-24 17:01:27.952021,599632517955763139,58.00
2025-12-24 17:01:27.952021,599632517955763139,74.00
2025-12-24 17:01:27.952021,599632517955763139,86.00
2025-12-24 17:01:27.952021,599632517955763139,105.00
2025-12-24 17:01:27.952021,599632517955763139,123.00
2025-12-24 17:01:27.952021,599632517955763139,130.00
2025-12-24 17:01:27.952021,599632517955763139,142.00
2025-12-24 17:01:27.952021,599632517955763139,175.00
2025-12-24 17:01:27.952021,599632517955763139,196.00
2025-12-24 17:01:27.952021,599632517955763139,186.00
2025-12-24 17:01:27.952021,599632517955763139,170.00
2025-12-24 17:01:27.952021,599632517955763139,142.00
2025-12-24 17:01:27.952021,599632517955763139,107.00
2025-12-24 17:01:27.952021,599632517955763139,51.00
2025-12-24 17:01:27.952021,599632517955763139,-32.00
2025-12-24 17:01:27.952021,599632517955763139,-107.00
2025-12-24 17:01:27.952021,599632517955763139,-149.00
2025-12-24 17:01:27.952021,599632517955763139,-175.00
2025-12-24 17:01:27.952021,599632517955763139,-191.00
2025-12-24 17:01:27.952021,599632517955763139,-205.00
2025-12-24 17:01:27.952021,599632517955763139,-207.00
2025-12-24 17:01:27.952021,599632517955763139,-198.00
2025-12-24 17:01:27.952021,599632517955763139,-191.00
2025-12-24 17:01:27.952021,599632517955763139,-198.00
2025-12-24 17:01:27.952021,599632517955763139,-196.00
2025-12-24 17:01:27.952021,599632517955763139,-179.00
2025-12-24 17:01:27.952021,599632517955763139,-175.00
2025-12-24 17:01:27.952021,599632517955763139,-175.00
2025-12-24 17:01:27.952021,599632517955763139,-168.00
2025-12-24 17:01:27.952021,599632517955763139,-158.00
2025-12-24 17:01:27.952021,599632517955763139,-149.00
2025-12-24 17:01:27.952021,599632517955763139,-144.00
2025-12-24 17:01:27.952021,599632517955763139,-137.00
2025-12-24 17:01:28.453506,599632518516648376,-137.00
2025-12-24 17:01:28.453506,599632518516648376,-142.00
2025-12-24 17:01:28.453506,599632518516648376,-133.00
2025-12-24 17:01:28.453506,599632518516648376,-119.00
2025-12-24 17:01:28.453506,599632518516648376,-107.00
2025-12-24 17:01:28.453506,599632518516648376,-93.00
2025-12-24 17:01:28.453506,599632518516648376,-79.00
2025-12-24 17:01:28.453506,599632518516648376,-77.00
2025-12-24 17:01:28.453506,599632518516648376,-81.00
2025-12-24 17:01:28.453506,599632518516648376,-88.00
2025-12-24 17:01:28.453506,599632518516648376,-91.00
2025-12-24 17:01:28.453506,599632518516648376,-74.00
2025-12-24 17:01:28.453506,599632518516648376,-58.00
2025-12-24 17:01:28.453506,599632518516648376,-67.00
2025-12-24 17:01:28.453506,599632518516648376,-81.00
2025-12-24 17:01:28.453506,599632518516648376,-81.00
2025-12-24 17:01:28.453506,599632518516648376,-67.00
2025-12-24 17:01:28.453506,599632518516648376,-51.00
2025-12-24 17:01:28.453506,599632518516648376,-42.00
2025-12-24 17:01:28.453506,599632518516648376,-42.00
2025-12-24 17:01:28.453506,599632518516648376,-53.00
2025-12-24 17:01:28.453506,599632518516648376,-56.00
2025-12-24 17:01:28.453506,599632518516648376,-51.00
2025-12-24 17:01:28.453506,599632518516648376,-51.00
2025-12-24 17:01:28.453506,599632518516648376,-53.00
2025-12-24 17:01:28.453506,599632518516648376,-58.00
2025-12-24 17:01:28.453506,599632518516648376,-60.00
2025-12-24 17:01:28.453506,599632518516648376,-51.00
2025-12-24 17:01:28.453506,599632518516648376,-49.00
2025-12-24 17:01:28.453506,599632518516648376,-53.00
2025-12-24 17:01:28.453506,599632518516648376,-42.00
2025-12-24 17:01:28.453506,599632518516648376,-37.00
2025-12-24 17:01:28.453506,599632518516648376,-49.00
2025-12-24 17:01:28.453506,599632518516648376,-46.00
2025-12-24 17:01:28.453506,599632518516648376,-44.00
2025-12-24 17:01:28.453506,599632518516648376,-39.00
2025-12-24 17:01:28.453506,599632518516648376,-23.00
2025-12-24 17:01:28.453506,599632518516648376,-23.00
2025-12-24 17:01:28.453506,599632518516648376,-44.00
2025-12-24 17:01:28.453506,599632518516648376,-58.00
2025-12-24 17:01:28.453506,599632518516648376,-53.00
2025-12-24 17:01:28.453506,599632518516648376,-35.00
2025-12-24 17:01:28.453506,599632518516648376,-37.00
2025-12-24 17:01:28.453506,599632518516648376,-53.00
2025-12-24 17:01:28.453506,599632518516648376,-53.00
2025-12-24 17:01:28.453506,599632518516648376,-42.00
2025-12-24 17:01:28.453506,599632518516648376,-44.00
2025-12-24 17:01:28.453506,599632518516648376,-25.00
2025-12-24 17:01:28.453506,599632518516648376,79.00
2025-12-24 17:01:28.453506,599632518516648376,352.00
2025-12-24 17:01:28.453506,599632518516648376,714.00
2025-12-24 17:01:28.453506,599632518516648376,667.00
2025-12-24 17:01:28.453506,599632518516648376,-46.00
2025-12-24 17:01:28.453506,599632518516648376,-567.00
2025-12-24 17:01:28.453506,599632518516648376,-294.00
2025-12-24 17:01:28.453506,599632518516648376,-21.00
2025-12-24 17:01:28.453506,599632518516648376,-105.00
2025-12-24 17:01:28.453506,599632518516648376,-91.00
2025-12-24 17:01:28.453506,599632518516648376,-11.00
2025-12-24 17:01:28.453506,599632518516648376,-25.00
2025-12-24 17:01:28.453506,599632518516648376,-28.00
2025-12-24 17:01:28.453506,599632518516648376,-2.00
2025-12-24 17:01:28.453506,599632518516648376,-4.00
2025-12-24 17:01:28.453506,599632518516648376,-7.00
2025-12-24 17:01:28.453506,599632518516648376,2.00
2025-12-24 17:01:28.453506,599632518516648376,9.00
2025-12-24 17:01:28.453506,599632518516648376,21.00
2025-12-24 17:01:28.453506,599632518516648376,30.00
2025-12-24 17:01:28.453506,599632518516648376,35.00
2025-12-24 17:01:28.453506,599632518516648376,46.00
2025-12-24 17:01:28.453506,599632518516648376,70.00
2025-12-24 17:01:28.453506,599632518516648376,86.00
2025-12-24 17:01:28.453506,599632518516648376,100.00
2025-12-24 17:01:29.055029,599632519077533613,114.00
2025-12-24 17:01:29.055029,599632519077533613,130.00
2025-12-24 17:01:29.055029,599632519077533613,151.00
2025-12-24 17:01:29.055029,599632519077533613,172.00
2025-12-24 17:01:29.055029,599632519077533613,184.00
2025-12-24 17:01:29.055029,599632519077533613,184.00
2025-12-24 17:01:29.055029,599632519077533613,182.00
2025-12-24 17:01:29.055029,599632519077533613,175.00
2025-12-24 17:01:29.055029,599632519077533613,149.00
2025-12-24 17:01:29.055029,599632519077533613,95.00
2025-12-24 17:01:29.055029,599632519077533613,14.00
2025-12-24 17:01:29.055029,599632519077533613,-67.00
2025-12-24 17:01:29.055029,599632519077533613,-119.00
2025-12-24 17:01:29.055029,599632519077533613,-154.00
2025-12-24 17:01:29.055029,599632519077533613,-177.00
2025-12-24 17:01:29.055029,599632519077533613,-193.00
2025-12-24 17:01:29.055029,599632519077533613,-198.00
2025-12-24 17:01:29.055029,599632519077533613,-196.00
2025-12-24 17:01:29.055029,599632519077533613,-191.00
2025-12-24 17:01:29.055029,599632519077533613,-189.00
2025-12-24 17:01:29.055029,599632519077533613,-186.00
2025-12-24 17:01:29.055029,599632519077533613,-175.00
2025-12-24 17:01:29.055029,599632519077533613,-163.00
2025-12-24 17:01:29.055029,599632519077533613,-165.00
2025-12-24 17:01:29.055029,599632519077533613,-165.00
2025-12-24 17:01:29.055029,599632519077533613,-163.00
2025-12-24 17:01:29.055029,599632519077533613,-161.00
2025-12-24 17:01:29.055029,599632519077533613,-151.00
2025-12-24 17:01:29.055029,599632519077533613,-144.00
2025-12-24 17:01:29.055029,599632519077533613,-142.00
2025-12-24 17:01:29.055029,599632519077533613,-137.00
2025-12-24 17:01:29.055029,599632519077533613,-130.00
2025-12-24 17:01:29.055029,599632519077533613,-126.00
2025-12-24 17:01:29.055029,599632519077533613,-123.00
2025-12-24 17:01:29.055029,599632519077533613,-119.00
2025-12-24 17:01:29.055029,599632519077533613,-116.00
2025-12-24 17:01:29.055029,599632519077533613,-119.00
2025-12-24 17:01:29.055029,599632519077533613,-119.00
2025-12-24 17:01:29.055029,599632519077533613,-109.00
2025-12-24 17:01:29.055029,599632519077533613,-109.00
2025-12-24 17:01:29.055029,599632519077533613,-114.00
2025-12-24 17:01:29.055029,599632519077533613,-109.00
2025-12-24 17:01:29.055029,599632519077533613,-107.00
2025-12-24 17:01:29.055029,599632519077533613,-116.00
2025-12-24 17:01:29.055029,599632519077533613,-114.00
2025-12-24 17:01:29.055029,599632519077533613,-107.00
2025-12-24 17:01:29.055029,599632519077533613,-109.00
2025-12-24 17:01:29.055029,599632519077533613,-107.00
2025-12-24 17:01:29.055029,599632519077533613,-98.00
2025-12-24 17:01:29.055029,599632519077533613,-93.00
2025-12-24 17:01:29.055029,599632519077533613,-93.00
2025-12-24 17:01:29.055029,599632519077533613,-95.00
2025-12-24 17:01:29.055029,599632519077533613,-95.00
2025-12-24 17:01:29.055029,599632519077533613,-95.00
2025-12-24 17:01:29.055029,599632519077533613,-98.00
2025-12-24 17:01:29.055029,599632519077533613,-93.00
2025-12-24 17:01:29.055029,599632519077533613,-86.00
2025-12-24 17:01:29.055029,599632519077533613,-81.00
2025-12-24 17:01:29.055029,599632519077533613,-81.00
2025-12-24 17:01:29.055029,599632519077533613,-86.00
2025-12-24 17:01:29.055029,599632519077533613,-86.00
2025-12-24 17:01:29.055029,599632519077533613,-77.00
2025-12-24 17:01:29.055029,599632519077533613,-65.00
2025-12-24 17:01:29.055029,599632519077533613,-58.00
2025-12-24 17:01:29.055029,599632519077533613,-53.00
2025-12-24 17:01:29.055029,599632519077533613,-51.00
2025-12-24 17:01:29.055029,599632519077533613,-53.00
2025-12-24 17:01:29.055029,599632519077533613,-49.00
2025-12-24 17:01:29.055029,599632519077533613,-35.00
2025-12-24 17:01:29.055029,599632519077533613,-30.00
2025-12-24 17:01:29.055029,599632519077533613,-44.00
2025-12-24 17:01:29.055029,599632519077533613,-67.00
2025-12-24 17:01:29.055029,599632519077533613,-74.00
2025-12-24 17:01:29.656350,599632519638418848,-65.00
2025-12-24 17:01:29.656350,599632519638418848,-58.00
2025-12-24 17:01:29.656350,599632519638418848,-60.00
2025-12-24 17:01:29.656350,599632519638418848,-60.00
2025-12-24 17:01:29.656350,599632519638418848,-60.00
2025-12-24 17:01:29.656350,599632519638418848,-60.00
2025-12-24 17:01:29.656350,599632519638418848,-46.00
2025-12-24 17:01:29.656350,599632519638418848,28.00
2025-12-24 17:01:29.656350,599632519638418848,254.00
2025-12-24 17:01:29.656350,599632519638418848,632.00
2025-12-24 17:01:29.656350,599632519638418848,789.00
2025-12-24 17:01:29.656350,599632519638418848,268.00
2025-12-24 17:01:29.656350,599632519638418848,-415.00
2025-12-24 17:01:29.656350,599632519638418848,-380.00
2025-12-24 17:01:29.656350,599632519638418848,-30.00
2025-12-24 17:01:29.656350,599632519638418848,-39.00
2025-12-24 17:01:29.656350,599632519638418848,-107.00
2025-12-24 17:01:29.656350,599632519638418848,-35.00
2025-12-24 17:01:29.656350,599632519638418848,-25.00
2025-12-24 17:01:29.656350,599632519638418848,-56.00
2025-12-24 17:01:29.656350,599632519638418848,-32.00
2025-12-24 17:01:29.656350,599632519638418848,-23.00
2025-12-24 17:01:29.656350,599632519638418848,-30.00
2025-12-24 17:01:29.656350,599632519638418848,-11.00
2025-12-24 17:01:29.656350,599632519638418848,7.00
2025-12-24 17:01:29.656350,599632519638418848,7.00
2025-12-24 17:01:29.656350,599632519638418848,11.00
2025-12-24 17:01:29.656350,599632519638418848,25.00
2025-12-24 17:01:29.656350,599632519638418848,30.00
2025-12-24 17:01:29.656350,599632519638418848,35.00
2025-12-24 17:01:29.656350,599632519638418848,49.00
2025-12-24 17:01:29.656350,599632519638418848,65.00
2025-12-24 17:01:29.656350,599632519638418848,79.00
2025-12-24 17:01:29.656350,599632519638418848,98.00
2025-12-24 17:01:29.656350,599632519638418848,123.00
2025-12-24 17:01:29.656350,599632519638418848,147.00
2025-12-24 17:01:29.656350,599632519638418848,154.00
2025-12-24 17:01:29.656350,599632519638418848,163.00
2025-12-24 17:01:29.656350,599632519638418848,177.00
2025-12-24 17:01:29.656350,599632519638418848,163.00
2025-12-24 17:01:29.656350,599632519638418848,126.00
2025-12-24 17:01:29.656350,599632519638418848,79.00
2025-12-24 17:01:29.656350,599632519638418848,14.00
2025-12-24 17:01:29.656350,599632519638418848,-58.00
2025-12-24 17:01:29.656350,599632519638418848,-114.00
2025-12-24 17:01:29.656350,599632519638418848,-158.00
2025-12-24 17:01:29.656350,599632519638418848,-186.00
2025-12-24 17:01:29.656350,599632519638418848,-193.00
2025-12-24 17:01:29.656350,599632519638418848,-198.00
2025-12-24 17:01:29.656350,599632519638418848,-210.00
2025-12-24 17:01:29.656350,599632519638418848,-207.00
2025-12-24 17:01:29.656350,599632519638418848,-196.00
2025-12-24 17:01:29.656350,599632519638418848,-191.00
2025-12-24 17:01:29.656350,599632519638418848,-193.00
2025-12-24 17:01:29.656350,599632519638418848,-191.00
2025-12-24 17:01:29.656350,599632519638418848,-184.00
2025-12-24 17:01:29.656350,599632519638418848,-170.00
2025-12-24 17:01:29.656350,599632519638418848,-154.00
2025-12-24 17:01:29.656350,599632519638418848,-147.00
2025-12-24 17:01:29.656350,599632519638418848,-144.00
2025-12-24 17:01:29.656350,599632519638418848,-137.00
2025-12-24 17:01:29.656350,599632519638418848,-135.00
2025-12-24 17:01:29.656350,599632519638418848,-130.00
2025-12-24 17:01:29.656350,599632519638418848,-121.00
2025-12-24 17:01:29.656350,599632519638418848,-119.00
2025-12-24 17:01:29.656350,599632519638418848,-126.00
2025-12-24 17:01:29.656350,599632519638418848,-128.00
2025-12-24 17:01:29.656350,599632519638418848,-112.00
2025-12-24 17:01:29.656350,599632519638418848,-102.00
2025-12-24 17:01:29.656350,599632519638418848,-105.00
2025-12-24 17:01:29.656350,599632519638418848,-107.00
2025-12-24 17:01:29.656350,599632519638418848,-105.00
2025-12-24 17:01:29.656350,599632519638418848,-102.00
2025-12-24 17:01:30.107891,599632520199319343,-98.00
2025-12-24 17:01:30.107891,599632520199319343,-88.00
2025-12-24 17:01:30.107891,599632520199319343,-84.00
2025-12-24 17:01:30.107891,599632520199319343,-86.00
2025-12-24 17:01:30.107891,599632520199319343,-84.00
2025-12-24 17:01:30.107891,599632520199319343,-84.00
2025-12-24 17:01:30.107891,599632520199319343,-91.00
2025-12-24 17:01:30.107891,599632520199319343,-86.00
2025-12-24 17:01:30.107891,599632520199319343,-74.00
2025-12-24 17:01:30.107891,599632520199319343,-65.00
2025-12-24 17:01:30.107891,599632520199319343,-67.00
2025-12-24 17:01:30.107891,599632520199319343,-77.00
2025-12-24 17:01:30.107891,599632520199319343,-79.00
2025-12-24 17:01:30.107891,599632520199319343,-70.00
2025-12-24 17:01:30.107891,599632520199319343,-53.00
2025-12-24 17:01:30.107891,599632520199319343,-39.00
2025-12-24 17:01:30.107891,599632520199319343,-35.00
2025-12-24 17:01:30.107891,599632520199319343,-42.00
2025-12-24 17:01:30.107891,599632520199319343,-39.00
2025-12-24 17:01:30.107891,599632520199319343,-32.00
2025-12-24 17:01:30.107891,599632520199319343,-30.00
2025-12-24 17:01:30.107891,599632520199319343,-18.00
2025-12-24 17:01:30.107891,599632520199319343,-9.00
2025-12-24 17:01:30.107891,599632520199319343,-16.00
2025-12-24 17:01:30.107891,599632520199319343,-21.00
2025-12-24 17:01:30.107891,599632520199319343,-25.00
2025-12-24 17:01:30.107891,599632520199319343,-30.00
2025-12-24 17:01:30.107891,599632520199319343,-14.00
2025-12-24 17:01:30.107891,599632520199319343,-7.00
2025-12-24 17:01:30.107891,599632520199319343,-18.00
2025-12-24 17:01:30.107891,599632520199319343,-14.00
2025-12-24 17:01:30.107891,599632520199319343,-2.00
2025-12-24 17:01:30.107891,599632520199319343,-11.00
2025-12-24 17:01:30.107891,599632520199319343,-32.00
2025-12-24 17:01:30.107891,599632520199319343,-42.00
2025-12-24 17:01:30.107891,599632520199319343,-42.00
2025-12-24 17:01:30.107891,599632520199319343,-39.00
2025-12-24 17:01:30.107891,599632520199319343,-35.00
2025-12-24 17:01:30.107891,599632520199319343,-32.00
2025-12-24 17:01:30.107891,599632520199319343,-39.00
2025-12-24 17:01:30.107891,599632520199319343,-46.00
2025-12-24 17:01:30.107891,599632520199319343,-32.00
2025-12-24 17:01:30.107891,599632520199319343,44.00
2025-12-24 17:01:30.107891,599632520199319343,277.00
2025-12-24 17:01:30.107891,599632520199319343,642.00
2025-12-24 17:01:30.107891,599632520199319343,775.00
2025-12-24 17:01:30.107891,599632520199319343,261.00
2025-12-24 17:01:30.107891,599632520199319343,-404.00
2025-12-24 17:01:30.107891,599632520199319343,-369.00
2025-12-24 17:01:30.107891,599632520199319343,-25.00
2025-12-24 17:01:30.107891,599632520199319343,-32.00
2025-12-24 17:01:30.107891,599632520199319343,-102.00
2025-12-24 17:01:30.107891,599632520199319343,-32.00
2025-12-24 17:01:30.107891,599632520199319343,-21.00
2025-12-24 17:01:30.107891,599632520199319343,-51.00
2025-12-24 17:01:30.107891,599632520199319343,-32.00
2025-12-24 17:01:30.107891,599632520199319343,-14.00
2025-12-24 17:01:30.107891,599632520199319343,-21.00
2025-12-24 17:01:30.107891,599632520199319343,-16.00
2025-12-24 17:01:30.107891,599632520199319343,-2.00
2025-12-24 17:01:30.107891,599632520199319343,0.00
2025-12-24 17:01:30.107891,599632520199319343,7.00
2025-12-24 17:01:30.107891,599632520199319343,21.00
2025-12-24 17:01:30.107891,599632520199319343,30.00
2025-12-24 17:01:30.107891,599632520199319343,37.00
2025-12-24 17:01:30.107891,599632520199319343,51.00
2025-12-24 17:01:30.107891,599632520199319343,74.00
2025-12-24 17:01:30.107891,599632520199319343,93.00
2025-12-24 17:01:30.107891,599632520199319343,107.00
2025-12-24 17:01:30.107891,599632520199319343,121.00
2025-12-24 17:01:30.107891,599632520199319343,137.00
2025-12-24 17:01:30.107891,599632520199319343,154.00
2025-12-24 17:01:30.107891,599632520199319343,170.00
2025-12-24 17:01:30.709572,599632520760219836,182.00
2025-12-24 17:01:30.709572,599632520760219836,168.00
2025-12-24 17:01:30.709572,599632520760219836,137.00
2025-12-24 17:01:30.709572,599632520760219836,88.00
2025-12-24 17:01:30.709572,599632520760219836,16.00
2025-12-24 17:01:30.709572,599632520760219836,-56.00
2025-12-24 17:01:30.709572,599632520760219836,-107.00
2025-12-24 17:01:30.709572,599632520760219836,-137.00
2025-12-24 17:01:30.709572,599632520760219836,-168.00
2025-12-24 17:01:30.709572,599632520760219836,-184.00
2025-12-24 17:01:30.709572,599632520760219836,-182.00
2025-12-24 17:01:30.709572,599632520760219836,-184.00
2025-12-24 17:01:30.709572,599632520760219836,-191.00
2025-12-24 17:01:30.709572,599632520760219836,-189.00
2025-12-24 17:01:30.709572,599632520760219836,-177.00
2025-12-24 17:01:30.709572,599632520760219836,-168.00
2025-12-24 17:01:30.709572,599632520760219836,-175.00
2025-12-24 17:01:30.709572,599632520760219836,-172.00
2025-12-24 17:01:30.709572,599632520760219836,-158.00
2025-12-24 17:01:30.709572,599632520760219836,-151.00
2025-12-24 17:01:30.709572,599632520760219836,-154.00
2025-12-24 17:01:30.709572,599632520760219836,-151.00
2025-12-24 17:01:30.709572,599632520760219836,-149.00
2025-12-24 17:01:30.709572,599632520760219836,-144.00
2025-12-24 17:01:30.709572,599632520760219836,-130.00
2025-12-24 17:01:30.709572,599632520760219836,-123.00
2025-12-24 17:01:30.709572,599632520760219836,-128.00
2025-12-24 17:01:30.709572,599632520760219836,-128.00
2025-12-24 17:01:30.709572,599632520760219836,-126.00
2025-12-24 17:01:30.709572,599632520760219836,-119.00
2025-12-24 17:01:30.709572,599632520760219836,-112.00
2025-12-24 17:01:30.709572,599632520760219836,-109.00
2025-12-24 17:01:30.709572,599632520760219836,-109.00
2025-12-24 17:01:30.709572,599632520760219836,-105.00
2025-12-24 17:01:30.709572,599632520760219836,-100.00
2025-12-24 17:01:30.709572,599632520760219836,-93.00
2025-12-24 17:01:30.709572,599632520760219836,-91.00
2025-12-24 17:01:30.709572,599632520760219836,-95.00
2025-12-24 17:01:30.709572,599632520760219836,-95.00
2025-12-24 17:01:30.709572,599632520760219836,-100.00
2025-12-24 17:01:30.709572,599632520760219836,-107.00
2025-12-24 17:01:30.709572,599632520760219836,-88.00
2025-12-24 17:01:30.709572,599632520760219836,-72.00
2025-12-24 17:01:30.709572,599632520760219836,-81.00
2025-12-24 17:01:30.709572,599632520760219836,-93.00
2025-12-24 17:01:30.709572,599632520760219836,-88.00
2025-12-24 17:01:30.709572,599632520760219836,-77.00
2025-12-24 17:01:30.709572,599632520760219836,-70.00
2025-12-24 17:01:30.709572,599632520760219836,-70.00
2025-12-24 17:01:30.709572,599632520760219836,-72.00
2025-12-24 17:01:30.709572,599632520760219836,-63.00
2025-12-24 17:01:30.709572,599632520760219836,-60.00
2025-12-24 17:01:30.709572,599632520760219836,-65.00
2025-12-24 17:01:30.709572,599632520760219836,-53.00
2025-12-24 17:01:30.709572,599632520760219836,-35.00
2025-12-24 17:01:30.709572,599632520760219836,-44.00
2025-12-24 17:01:30.709572,599632520760219836,-63.00
2025-12-24 17:01:30.709572,599632520760219836,-65.00
2025-12-24 17:01:30.709572,599632520760219836,-53.00
2025-12-24 17:01:30.709572,599632520760219836,-46.00
2025-12-24 17:01:30.709572,599632520760219836,-49.00
2025-12-24 17:01:30.709572,599632520760219836,-63.00
2025-12-24 17:01:30.709572,599632520760219836,-65.00
2025-12-24 17:01:30.709572,599632520760219836,-56.00
2025-12-24 17:01:30.709572,599632520760219836,-46.00
2025-12-24 17:01:30.709572,599632520760219836,16.00
2025-12-24 17:01:30.709572,599632520760219836,228.00
2025-12-24 17:01:30.709572,599632520760219836,595.00
2025-12-24 17:01:30.709572,599632520760219836,773.00
2025-12-24 17:01:30.709572,599632520760219836,289.00
2025-12-24 17:01:30.709572,599632520760219836,-420.00
2025-12-24 17:01:30.709572,599632520760219836,-439.00
2025-12-24 17:01:30.709572,599632520760219836,-67.00
2025-12-24 17:01:31.260991,599632521321105071,-35.00
2025-12-24 17:01:31.260991,599632521321105071,-119.00
2025-12-24 17:01:31.260991,599632521321105071,-56.00
2025-12-24 17:01:31.260991,599632521321105071,-25.00
2025-12-24 17:01:31.260991,599632521321105071,-51.00
2025-12-24 17:01:31.260991,599632521321105071,-42.00
2025-12-24 17:01:31.260991,599632521321105071,-23.00
2025-12-24 17:01:31.260991,599632521321105071,-23.00
2025-12-24 17:01:31.260991,599632521321105071,-16.00
2025-12-24 17:01:31.260991,599632521321105071,4.00
2025-12-24 17:01:31.260991,599632521321105071,23.00
2025-12-24 17:01:31.260991,599632521321105071,32.00
2025-12-24 17:01:31.260991,599632521321105071,30.00
2025-12-24 17:01:31.260991,599632521321105071,44.00
2025-12-24 17:01:31.260991,599632521321105071,65.00
2025-12-24 17:01:31.260991,599632521321105071,81.00
2025-12-24 17:01:31.260991,599632521321105071,93.00
2025-12-24 17:01:31.260991,599632521321105071,105.00
2025-12-24 17:01:31.260991,599632521321105071,128.00
2025-12-24 17:01:31.260991,599632521321105071,154.00
2025-12-24 17:01:31.260991,599632521321105071,172.00
2025-12-24 17:01:31.260991,599632521321105071,189.00
2025-12-24 17:01:31.260991,599632521321105071,210.00
2025-12-24 17:01:31.260991,599632521321105071,212.00
2025-12-24 17:01:31.260991,599632521321105071,189.00
2025-12-24 17:01:31.260991,599632521321105071,154.00
2025-12-24 17:01:31.260991,599632521321105071,95.00
2025-12-24 17:01:31.260991,599632521321105071,16.00
