Timestamp,Device Timestamp (ns),ECG Value (uV)
2025-12-25 15:55:55.231169,599616277639758245,-112.00
2025-12-25 15:55:55.231169,599616277639758245,-105.00
2025-12-25 15:55:55.231169,599616277639758245,-103.00
2025-12-25 15:55:55.231169,599616277639758245,-101.00
2025-12-25 15:55:55.231169,599616277639758245,-98.00
2025-12-25 15:55:55.231169,599616277639758245,-105.00
2025-12-25 15:55:55.231169,599616277639758245,-105.00
2025-12-25 15:55:55.231169,599616277639758245,-91.00
2025-12-25 15:55:55.231169,599616277639758245,-94.00
2025-12-25 15:55:55.231169,599616277639758245,-121.00
2025-12-25 15:55:55.231169,599616277639758245,-140.00
2025-12-25 15:55:55.231169,599616277639758245,-147.00
2025-12-25 15:55:55.231169,599616277639758245,-151.00
2025-12-25 15:55:55.231169,599616277639758245,-151.00
2025-12-25 15:55:55.231169,599616277639758245,-154.00
2025-12-25 15:55:55.231169,599616277639758245,-158.00
2025-12-25 15:55:55.231169,599616277639758245,-156.00
2025-12-25 15:55:55.231169,599616277639758245,-156.00
2025-12-25 15:55:55.231169,599616277639758245,-158.00
2025-12-25 15:55:55.231169,599616277639758245,-156.00
2025-12-25 15:55:55.231169,599616277639758245,-154.00
2025-12-25 15:55:55.231169,599616277639758245,-149.00
2025-12-25 15:55:55.231169,599616277639758245,-149.00
2025-12-25 15:55:55.231169,599616277639758245,-154.00
2025-12-25 15:55:55.231169,599616277639758245,-149.00
2025-12-25 15:55:55.231169,599616277639758245,-144.00
2025-12-25 15:55:55.231169,599616277639758245,-149.00
2025-12-25 15:55:55.231169,599616277639758245,-154.00
2025-12-25 15:55:55.231169,599616277639758245,-149.00
2025-12-25 15:55:55.231169,599616277639758245,-151.00
2025-12-25 15:55:55.231169,599616277639758245,-158.00
2025-12-25 15:55:55.231169,599616277639758245,-158.00
2025-12-25 15:55:55.231169,599616277639758245,-158.00
2025-12-25 15:55:55.231169,599616277639758245,-160.00
2025-12-25 15:55:55.231169,599616277639758245,-167.00
2025-12-25 15:55:55.231169,599616277639758245,-170.00
2025-12-25 15:55:55.231169,599616277639758245,-167.00
2025-12-25 15:55:55.231169,599616277639758245,-167.00
2025-12-25 15:55:55.231169,599616277639758245,-172.00
2025-12-25 15:55:55.231169,599616277639758245,-174.00
2025-12-25 15:55:55.231169,599616277639758245,-165.00
2025-12-25 15:55:55.231169,599616277639758245,-154.00
2025-12-25 15:55:55.231169,599616277639758245,-149.00
2025-12-25 15:55:55.231169,599616277639758245,-158.00
2025-12-25 15:55:55.231169,599616277639758245,-172.00
2025-12-25 15:55:55.231169,599616277639758245,-179.00
2025-12-25 15:55:55.231169,599616277639758245,-183.00
2025-12-25 15:55:55.231169,599616277639758245,-186.00
2025-12-25 15:55:55.231169,599616277639758245,-183.00
2025-12-25 15:55:55.231169,599616277639758245,-179.00
2025-12-25 15:55:55.231169,599616277639758245,-177.00
2025-12-25 15:55:55.231169,599616277639758245,-172.00
2025-12-25 15:55:55.231169,599616277639758245,-174.00
2025-12-25 15:55:55.231169,599616277639758245,-172.00
2025-12-25 15:55:55.231169,599616277639758245,-167.00
2025-12-25 15:55:55.231169,599616277639758245,-174.00
2025-12-25 15:55:55.231169,599616277639758245,-190.00
2025-12-25 15:55:55.231169,599616277639758245,-186.00
2025-12-25 15:55:55.231169,599616277639758245,-124.00
2025-12-25 15:55:55.231169,599616277639758245,36.00
2025-12-25 15:55:55.231169,599616277639758245,149.00
2025-12-25 15:55:55.231169,599616277639758245,-73.00
2025-12-25 15:55:55.231169,599616277639758245,-434.00
2025-12-25 15:55:55.231169,599616277639758245,-473.00
2025-12-25 15:55:55.231169,599616277639758245,-335.00
2025-12-25 15:55:55.231169,599616277639758245,-294.00
2025-12-25 15:55:55.231169,599616277639758245,-234.00
2025-12-25 15:55:55.231169,599616277639758245,-163.00
2025-12-25 15:55:55.231169,599616277639758245,-170.00
2025-12-25 15:55:55.231169,599616277639758245,-183.00
2025-12-25 15:55:55.231169,599616277639758245,-163.00
2025-12-25 15:55:55.231169,599616277639758245,-156.00
2025-12-25 15:55:55.231169,599616277639758245,-158.00
2025-12-25 15:55:55.633492,599616278200602790,-160.00
2025-12-25 15:55:55.633492,599616278200602790,-163.00
2025-12-25 15:55:55.633492,599616278200602790,-156.00
2025-12-25 15:55:55.633492,599616278200602790,-151.00
2025-12-25 15:55:55.633492,599616278200602790,-151.00
2025-12-25 15:55:55.633492,599616278200602790,-144.00
2025-12-25 15:55:55.633492,599616278200602790,-133.00
2025-12-25 15:55:55.633492,599616278200602790,-133.00
2025-12-25 15:55:55.633492,599616278200602790,-135.00
2025-12-25 15:55:55.633492,599616278200602790,-114.00
2025-12-25 15:55:55.633492,599616278200602790,-94.00
2025-12-25 15:55:55.633492,599616278200602790,-94.00
2025-12-25 15:55:55.633492,599616278200602790,-94.00
2025-12-25 15:55:55.633492,599616278200602790,-91.00
2025-12-25 15:55:55.633492,599616278200602790,-98.00
2025-12-25 15:55:55.633492,599616278200602790,-101.00
2025-12-25 15:55:55.633492,599616278200602790,-101.00
2025-12-25 15:55:55.633492,599616278200602790,-112.00
2025-12-25 15:55:55.633492,599616278200602790,-124.00
2025-12-25 15:55:55.633492,599616278200602790,-133.00
2025-12-25 15:55:55.633492,599616278200602790,-147.00
2025-12-25 15:55:55.633492,599616278200602790,-158.00
2025-12-25 15:55:55.633492,599616278200602790,-167.00
2025-12-25 15:55:55.633492,599616278200602790,-179.00
2025-12-25 15:55:55.633492,599616278200602790,-190.00
2025-12-25 15:55:55.633492,599616278200602790,-193.00
2025-12-25 15:55:55.633492,599616278200602790,-193.00
2025-12-25 15:55:55.633492,599616278200602790,-188.00
2025-12-25 15:55:55.633492,599616278200602790,-183.00
2025-12-25 15:55:55.633492,599616278200602790,-183.00
2025-12-25 15:55:55.633492,599616278200602790,-188.00
2025-12-25 15:55:55.633492,599616278200602790,-193.00
2025-12-25 15:55:55.633492,599616278200602790,-186.00
2025-12-25 15:55:55.633492,599616278200602790,-181.00
2025-12-25 15:55:55.633492,599616278200602790,-183.00
2025-12-25 15:55:55.633492,599616278200602790,-181.00
2025-12-25 15:55:55.633492,599616278200602790,-179.00
2025-12-25 15:55:55.633492,599616278200602790,-183.00
2025-12-25 15:55:55.633492,599616278200602790,-186.00
2025-12-25 15:55:55.633492,599616278200602790,-183.00
2025-12-25 15:55:55.633492,599616278200602790,-181.00
2025-12-25 15:55:55.633492,599616278200602790,-179.00
2025-12-25 15:55:55.633492,599616278200602790,-181.00
2025-12-25 15:55:55.633492,599616278200602790,-179.00
2025-12-25 15:55:55.633492,599616278200602790,-177.00
2025-12-25 15:55:55.633492,599616278200602790,-181.00
2025-12-25 15:55:55.633492,599616278200602790,-190.00
2025-12-25 15:55:55.633492,599616278200602790,-195.00
2025-12-25 15:55:55.633492,599616278200602790,-190.00
2025-12-25 15:55:55.633492,599616278200602790,-190.00
2025-12-25 15:55:55.633492,599616278200602790,-177.00
2025-12-25 15:55:55.633492,599616278200602790,-163.00
2025-12-25 15:55:55.633492,599616278200602790,-163.00
2025-12-25 15:55:55.633492,599616278200602790,-172.00
2025-12-25 15:55:55.633492,599616278200602790,-179.00
2025-12-25 15:55:55.633492,599616278200602790,-188.00
2025-12-25 15:55:55.633492,599616278200602790,-193.00
2025-12-25 15:55:55.633492,599616278200602790,-186.00
2025-12-25 15:55:55.633492,599616278200602790,-188.00
2025-12-25 15:55:55.633492,599616278200602790,-195.00
2025-12-25 15:55:55.633492,599616278200602790,-193.00
2025-12-25 15:55:55.633492,599616278200602790,-193.00
2025-12-25 15:55:55.633492,599616278200602790,-197.00
2025-12-25 15:55:55.633492,599616278200602790,-188.00
2025-12-25 15:55:55.633492,599616278200602790,-181.00
2025-12-25 15:55:55.633492,599616278200602790,-190.00
2025-12-25 15:55:55.633492,599616278200602790,-197.00
2025-12-25 15:55:55.633492,599616278200602790,-193.00
2025-12-25 15:55:55.633492,599616278200602790,-149.00
2025-12-25 15:55:55.633492,599616278200602790,-11.00
2025-12-25 15:55:55.633492,599616278200602790,133.00
2025-12-25 15:55:55.633492,599616278200602790,-6.00
2025-12-25 15:55:55.633492,599616278200602790,-363.00
2025-12-25 15:55:56.235935,599616278761437161,-475.00
2025-12-25 15:55:56.235935,599616278761437161,-347.00
2025-12-25 15:55:56.235935,599616278761437161,-271.00
2025-12-25 15:55:56.235935,599616278761437161,-223.00
2025-12-25 15:55:56.235935,599616278761437161,-158.00
2025-12-25 15:55:56.235935,599616278761437161,-156.00
2025-12-25 15:55:56.235935,599616278761437161,-165.00
2025-12-25 15:55:56.235935,599616278761437161,-140.00
2025-12-25 15:55:56.235935,599616278761437161,-124.00
2025-12-25 15:55:56.235935,599616278761437161,-131.00
2025-12-25 15:55:56.235935,599616278761437161,-131.00
2025-12-25 15:55:56.235935,599616278761437161,-131.00
2025-12-25 15:55:56.235935,599616278761437161,-135.00
2025-12-25 15:55:56.235935,599616278761437161,-124.00
2025-12-25 15:55:56.235935,599616278761437161,-114.00
2025-12-25 15:55:56.235935,599616278761437161,-121.00
2025-12-25 15:55:56.235935,599616278761437161,-121.00
2025-12-25 15:55:56.235935,599616278761437161,-117.00
2025-12-25 15:55:56.235935,599616278761437161,-117.00
2025-12-25 15:55:56.235935,599616278761437161,-110.00
2025-12-25 15:55:56.235935,599616278761437161,-101.00
2025-12-25 15:55:56.235935,599616278761437161,-98.00
2025-12-25 15:55:56.235935,599616278761437161,-98.00
2025-12-25 15:55:56.235935,599616278761437161,-98.00
2025-12-25 15:55:56.235935,599616278761437161,-103.00
2025-12-25 15:55:56.235935,599616278761437161,-101.00
2025-12-25 15:55:56.235935,599616278761437161,-103.00
2025-12-25 15:55:56.235935,599616278761437161,-110.00
2025-12-25 15:55:56.235935,599616278761437161,-112.00
2025-12-25 15:55:56.235935,599616278761437161,-124.00
2025-12-25 15:55:56.235935,599616278761437161,-142.00
2025-12-25 15:55:56.235935,599616278761437161,-156.00
2025-12-25 15:55:56.235935,599616278761437161,-160.00
2025-12-25 15:55:56.235935,599616278761437161,-165.00
2025-12-25 15:55:56.235935,599616278761437161,-177.00
2025-12-25 15:55:56.235935,599616278761437161,-183.00
2025-12-25 15:55:56.235935,599616278761437161,-177.00
2025-12-25 15:55:56.235935,599616278761437161,-170.00
2025-12-25 15:55:56.235935,599616278761437161,-170.00
2025-12-25 15:55:56.235935,599616278761437161,-177.00
2025-12-25 15:55:56.235935,599616278761437161,-179.00
2025-12-25 15:55:56.235935,599616278761437161,-174.00
2025-12-25 15:55:56.235935,599616278761437161,-167.00
2025-12-25 15:55:56.235935,599616278761437161,-167.00
2025-12-25 15:55:56.235935,599616278761437161,-172.00
2025-12-25 15:55:56.235935,599616278761437161,-170.00
2025-12-25 15:55:56.235935,599616278761437161,-172.00
2025-12-25 15:55:56.235935,599616278761437161,-179.00
2025-12-25 15:55:56.235935,599616278761437161,-172.00
2025-12-25 15:55:56.235935,599616278761437161,-167.00
2025-12-25 15:55:56.235935,599616278761437161,-174.00
2025-12-25 15:55:56.235935,599616278761437161,-179.00
2025-12-25 15:55:56.235935,599616278761437161,-179.00
2025-12-25 15:55:56.235935,599616278761437161,-181.00
2025-12-25 15:55:56.235935,599616278761437161,-179.00
2025-12-25 15:55:56.235935,599616278761437161,-177.00
2025-12-25 15:55:56.235935,599616278761437161,-183.00
2025-12-25 15:55:56.235935,599616278761437161,-190.00
2025-12-25 15:55:56.235935,599616278761437161,-186.00
2025-12-25 15:55:56.235935,599616278761437161,-186.00
2025-12-25 15:55:56.235935,599616278761437161,-188.00
2025-12-25 15:55:56.235935,599616278761437161,-177.00
2025-12-25 15:55:56.235935,599616278761437161,-156.00
2025-12-25 15:55:56.235935,599616278761437161,-154.00
2025-12-25 15:55:56.235935,599616278761437161,-167.00
2025-12-25 15:55:56.235935,599616278761437161,-177.00
2025-12-25 15:55:56.235935,599616278761437161,-181.00
2025-12-25 15:55:56.235935,599616278761437161,-177.00
2025-12-25 15:55:56.235935,599616278761437161,-174.00
2025-12-25 15:55:56.235935,599616278761437161,-181.00
2025-12-25 15:55:56.235935,599616278761437161,-179.00
2025-12-25 15:55:56.235935,599616278761437161,-177.00
2025-12-25 15:55:56.235935,599616278761437161,-179.00
2025-12-25 15:55:56.987559,599616279322271534,-172.00
2025-12-25 15:55:56.987559,599616279322271534,-170.00
2025-12-25 15:55:56.987559,599616279322271534,-179.00
2025-12-25 15:55:56.987559,599616279322271534,-179.00
2025-12-25 15:55:56.987559,599616279322271534,-174.00
2025-12-25 15:55:56.987559,599616279322271534,-174.00
2025-12-25 15:55:56.987559,599616279322271534,-135.00
2025-12-25 15:55:56.987559,599616279322271534,4.00
2025-12-25 15:55:56.987559,599616279322271534,131.00
2025-12-25 15:55:56.987559,599616279322271534,-39.00
2025-12-25 15:55:56.987559,599616279322271534,-377.00
2025-12-25 15:55:56.987559,599616279322271534,-443.00
2025-12-25 15:55:56.987559,599616279322271534,-319.00
2025-12-25 15:55:56.987559,599616279322271534,-264.00
2025-12-25 15:55:56.987559,599616279322271534,-213.00
2025-12-25 15:55:56.987559,599616279322271534,-147.00
2025-12-25 15:55:56.987559,599616279322271534,-135.00
2025-12-25 15:55:56.987559,599616279322271534,-140.00
2025-12-25 15:55:56.987559,599616279322271534,-126.00
2025-12-25 15:55:56.987559,599616279322271534,-126.00
2025-12-25 15:55:56.987559,599616279322271534,-133.00
2025-12-25 15:55:56.987559,599616279322271534,-128.00
2025-12-25 15:55:56.987559,599616279322271534,-124.00
2025-12-25 15:55:56.987559,599616279322271534,-119.00
2025-12-25 15:55:56.987559,599616279322271534,-117.00
2025-12-25 15:55:56.987559,599616279322271534,-114.00
2025-12-25 15:55:56.987559,599616279322271534,-110.00
2025-12-25 15:55:56.987559,599616279322271534,-112.00
2025-12-25 15:55:56.987559,599616279322271534,-114.00
2025-12-25 15:55:56.987559,599616279322271534,-108.00
2025-12-25 15:55:56.987559,599616279322271534,-101.00
2025-12-25 15:55:56.987559,599616279322271534,-98.00
2025-12-25 15:55:56.987559,599616279322271534,-94.00
2025-12-25 15:55:56.987559,599616279322271534,-94.00
2025-12-25 15:55:56.987559,599616279322271534,-101.00
2025-12-25 15:55:56.987559,599616279322271534,-96.00
2025-12-25 15:55:56.987559,599616279322271534,-94.00
2025-12-25 15:55:56.987559,599616279322271534,-101.00
2025-12-25 15:55:56.987559,599616279322271534,-108.00
2025-12-25 15:55:56.987559,599616279322271534,-117.00
2025-12-25 15:55:56.987559,599616279322271534,-128.00
2025-12-25 15:55:56.987559,599616279322271534,-140.00
2025-12-25 15:55:56.987559,599616279322271534,-151.00
2025-12-25 15:55:56.987559,599616279322271534,-165.00
2025-12-25 15:55:56.987559,599616279322271534,-181.00
2025-12-25 15:55:56.987559,599616279322271534,-188.00
2025-12-25 15:55:56.987559,599616279322271534,-188.00
2025-12-25 15:55:56.987559,599616279322271534,-195.00
2025-12-25 15:55:56.987559,599616279322271534,-200.00
2025-12-25 15:55:56.987559,599616279322271534,-197.00
2025-12-25 15:55:56.987559,599616279322271534,-195.00
2025-12-25 15:55:56.987559,599616279322271534,-193.00
2025-12-25 15:55:56.987559,599616279322271534,-193.00
2025-12-25 15:55:56.987559,599616279322271534,-195.00
2025-12-25 15:55:56.987559,599616279322271534,-193.00
2025-12-25 15:55:56.987559,599616279322271534,-181.00
2025-12-25 15:55:56.987559,599616279322271534,-181.00
2025-12-25 15:55:56.987559,599616279322271534,-193.00
2025-12-25 15:55:56.987559,599616279322271534,-197.00
2025-12-25 15:55:56.987559,599616279322271534,-188.00
2025-12-25 15:55:56.987559,599616279322271534,-181.00
2025-12-25 15:55:56.987559,599616279322271534,-181.00
2025-12-25 15:55:56.987559,599616279322271534,-186.00
2025-12-25 15:55:56.987559,599616279322271534,-190.00
2025-12-25 15:55:56.987559,599616279322271534,-190.00
2025-12-25 15:55:56.987559,599616279322271534,-186.00
2025-12-25 15:55:56.987559,599616279322271534,-188.00
2025-12-25 15:55:56.987559,599616279322271534,-200.00
2025-12-25 15:55:56.987559,599616279322271534,-202.00
2025-12-25 15:55:56.987559,599616279322271534,-200.00
2025-12-25 15:55:56.987559,599616279322271534,-202.00
2025-12-25 15:55:56.987559,599616279322271534,-200.00
2025-12-25 15:55:56.987559,599616279322271534,-188.00
2025-12-25 15:55:57.338725,599616279883116077,-183.00
2025-12-25 15:55:57.338725,599616279883116077,-186.00
2025-12-25 15:55:57.338725,599616279883116077,-200.00
2025-12-25 15:55:57.338725,599616279883116077,-209.00
2025-12-25 15:55:57.338725,599616279883116077,-206.00
2025-12-25 15:55:57.338725,599616279883116077,-206.00
2025-12-25 15:55:57.338725,599616279883116077,-216.00
2025-12-25 15:55:57.338725,599616279883116077,-211.00
2025-12-25 15:55:57.338725,599616279883116077,-193.00
2025-12-25 15:55:57.338725,599616279883116077,-188.00
2025-12-25 15:55:57.338725,599616279883116077,-197.00
2025-12-25 15:55:57.338725,599616279883116077,-200.00
2025-12-25 15:55:57.338725,599616279883116077,-197.00
2025-12-25 15:55:57.338725,599616279883116077,-197.00
2025-12-25 15:55:57.338725,599616279883116077,-195.00
2025-12-25 15:55:57.338725,599616279883116077,-197.00
2025-12-25 15:55:57.338725,599616279883116077,-202.00
2025-12-25 15:55:57.338725,599616279883116077,-154.00
2025-12-25 15:55:57.338725,599616279883116077,-6.00
2025-12-25 15:55:57.338725,599616279883116077,124.00
2025-12-25 15:55:57.338725,599616279883116077,-48.00
2025-12-25 15:55:57.338725,599616279883116077,-395.00
2025-12-25 15:55:57.338725,599616279883116077,-475.00
2025-12-25 15:55:57.338725,599616279883116077,-351.00
2025-12-25 15:55:57.338725,599616279883116077,-285.00
2025-12-25 15:55:57.338725,599616279883116077,-229.00
2025-12-25 15:55:57.338725,599616279883116077,-174.00
2025-12-25 15:55:57.338725,599616279883116077,-172.00
2025-12-25 15:55:57.338725,599616279883116077,-179.00
2025-12-25 15:55:57.338725,599616279883116077,-170.00
2025-12-25 15:55:57.338725,599616279883116077,-165.00
2025-12-25 15:55:57.338725,599616279883116077,-156.00
2025-12-25 15:55:57.338725,599616279883116077,-142.00
2025-12-25 15:55:57.338725,599616279883116077,-147.00
2025-12-25 15:55:57.338725,599616279883116077,-151.00
2025-12-25 15:55:57.338725,599616279883116077,-142.00
2025-12-25 15:55:57.338725,599616279883116077,-131.00
2025-12-25 15:55:57.338725,599616279883116077,-124.00
2025-12-25 15:55:57.338725,599616279883116077,-117.00
2025-12-25 15:55:57.338725,599616279883116077,-117.00
2025-12-25 15:55:57.338725,599616279883116077,-117.00
2025-12-25 15:55:57.338725,599616279883116077,-114.00
2025-12-25 15:55:57.338725,599616279883116077,-110.00
2025-12-25 15:55:57.338725,599616279883116077,-105.00
2025-12-25 15:55:57.338725,599616279883116077,-103.00
2025-12-25 15:55:57.338725,599616279883116077,-105.00
2025-12-25 15:55:57.338725,599616279883116077,-103.00
2025-12-25 15:55:57.338725,599616279883116077,-101.00
2025-12-25 15:55:57.338725,599616279883116077,-103.00
2025-12-25 15:55:57.338725,599616279883116077,-112.00
2025-12-25 15:55:57.338725,599616279883116077,-121.00
2025-12-25 15:55:57.338725,599616279883116077,-135.00
2025-12-25 15:55:57.338725,599616279883116077,-142.00
2025-12-25 15:55:57.338725,599616279883116077,-149.00
2025-12-25 15:55:57.338725,599616279883116077,-160.00
2025-12-25 15:55:57.338725,599616279883116077,-170.00
2025-12-25 15:55:57.338725,599616279883116077,-179.00
2025-12-25 15:55:57.338725,599616279883116077,-190.00
2025-12-25 15:55:57.338725,599616279883116077,-188.00
2025-12-25 15:55:57.338725,599616279883116077,-183.00
2025-12-25 15:55:57.338725,599616279883116077,-181.00
2025-12-25 15:55:57.338725,599616279883116077,-193.00
2025-12-25 15:55:57.338725,599616279883116077,-202.00
2025-12-25 15:55:57.338725,599616279883116077,-190.00
2025-12-25 15:55:57.338725,599616279883116077,-174.00
2025-12-25 15:55:57.338725,599616279883116077,-181.00
2025-12-25 15:55:57.338725,599616279883116077,-188.00
2025-12-25 15:55:57.338725,599616279883116077,-186.00
2025-12-25 15:55:57.338725,599616279883116077,-195.00
2025-12-25 15:55:57.338725,599616279883116077,-193.00
2025-12-25 15:55:57.338725,599616279883116077,-183.00
2025-12-25 15:55:57.338725,599616279883116077,-188.00
2025-12-25 15:55:57.338725,599616279883116077,-195.00
2025-12-25 15:55:57.890308,599616280443940278,-193.00
2025-12-25 15:55:57.890308,599616280443940278,-195.00
2025-12-25 15:55:57.890308,599616280443940278,-202.00
2025-12-25 15:55:57.890308,599616280443940278,-204.00
2025-12-25 15:55:57.890308,599616280443940278,-197.00
2025-12-25 15:55:57.890308,599616280443940278,-195.00
2025-12-25 15:55:57.890308,599616280443940278,-200.00
2025-12-25 15:55:57.890308,599616280443940278,-197.00
2025-12-25 15:55:57.890308,599616280443940278,-197.00
2025-12-25 15:55:57.890308,599616280443940278,-202.00
2025-12-25 15:55:57.890308,599616280443940278,-193.00
2025-12-25 15:55:57.890308,599616280443940278,-167.00
2025-12-25 15:55:57.890308,599616280443940278,-165.00
2025-12-25 15:55:57.890308,599616280443940278,-186.00
2025-12-25 15:55:57.890308,599616280443940278,-186.00
2025-12-25 15:55:57.890308,599616280443940278,-183.00
2025-12-25 15:55:57.890308,599616280443940278,-190.00
2025-12-25 15:55:57.890308,599616280443940278,-188.00
2025-12-25 15:55:57.890308,599616280443940278,-183.00
2025-12-25 15:55:57.890308,599616280443940278,-195.00
2025-12-25 15:55:57.890308,599616280443940278,-204.00
2025-12-25 15:55:57.890308,599616280443940278,-197.00
2025-12-25 15:55:57.890308,599616280443940278,-183.00
2025-12-25 15:55:57.890308,599616280443940278,-179.00
2025-12-25 15:55:57.890308,599616280443940278,-195.00
2025-12-25 15:55:57.890308,599616280443940278,-206.00
2025-12-25 15:55:57.890308,599616280443940278,-200.00
2025-12-25 15:55:57.890308,599616280443940278,-160.00
2025-12-25 15:55:57.890308,599616280443940278,-41.00
2025-12-25 15:55:57.890308,599616280443940278,119.00
2025-12-25 15:55:57.890308,599616280443940278,32.00
2025-12-25 15:55:57.890308,599616280443940278,-333.00
2025-12-25 15:55:57.890308,599616280443940278,-505.00
2025-12-25 15:55:57.890308,599616280443940278,-388.00
2025-12-25 15:55:57.890308,599616280443940278,-314.00
2025-12-25 15:55:57.890308,599616280443940278,-280.00
2025-12-25 15:55:57.890308,599616280443940278,-195.00
2025-12-25 15:55:57.890308,599616280443940278,-160.00
2025-12-25 15:55:57.890308,599616280443940278,-183.00
2025-12-25 15:55:57.890308,599616280443940278,-177.00
2025-12-25 15:55:57.890308,599616280443940278,-156.00
2025-12-25 15:55:57.890308,599616280443940278,-149.00
2025-12-25 15:55:57.890308,599616280443940278,-156.00
2025-12-25 15:55:57.890308,599616280443940278,-158.00
2025-12-25 15:55:57.890308,599616280443940278,-163.00
2025-12-25 15:55:57.890308,599616280443940278,-156.00
2025-12-25 15:55:57.890308,599616280443940278,-135.00
2025-12-25 15:55:57.890308,599616280443940278,-133.00
2025-12-25 15:55:57.890308,599616280443940278,-140.00
2025-12-25 15:55:57.890308,599616280443940278,-135.00
2025-12-25 15:55:57.890308,599616280443940278,-128.00
2025-12-25 15:55:57.890308,599616280443940278,-128.00
2025-12-25 15:55:57.890308,599616280443940278,-124.00
2025-12-25 15:55:57.890308,599616280443940278,-121.00
2025-12-25 15:55:57.890308,599616280443940278,-117.00
2025-12-25 15:55:57.890308,599616280443940278,-108.00
2025-12-25 15:55:57.890308,599616280443940278,-114.00
2025-12-25 15:55:57.890308,599616280443940278,-128.00
2025-12-25 15:55:57.890308,599616280443940278,-131.00
2025-12-25 15:55:57.890308,599616280443940278,-126.00
2025-12-25 15:55:57.890308,599616280443940278,-126.00
2025-12-25 15:55:57.890308,599616280443940278,-140.00
2025-12-25 15:55:57.890308,599616280443940278,-156.00
2025-12-25 15:55:57.890308,599616280443940278,-170.00
2025-12-25 15:55:57.890308,599616280443940278,-179.00
2025-12-25 15:55:57.890308,599616280443940278,-188.00
2025-12-25 15:55:57.890308,599616280443940278,-193.00
2025-12-25 15:55:57.890308,599616280443940278,-197.00
2025-12-25 15:55:57.890308,599616280443940278,-202.00
2025-12-25 15:55:57.890308,599616280443940278,-197.00
2025-12-25 15:55:57.890308,599616280443940278,-186.00
2025-12-25 15:55:57.890308,599616280443940278,-188.00
2025-12-25 15:55:57.890308,599616280443940278,-197.00
2025-12-25 15:55:58.542510,599616281004764479,-188.00
2025-12-25 15:55:58.542510,599616281004764479,-179.00
2025-12-25 15:55:58.542510,599616281004764479,-188.00
2025-12-25 15:55:58.542510,599616281004764479,-193.00
2025-12-25 15:55:58.542510,599616281004764479,-186.00
2025-12-25 15:55:58.542510,599616281004764479,-190.00
2025-12-25 15:55:58.542510,599616281004764479,-190.00
2025-12-25 15:55:58.542510,599616281004764479,-181.00
2025-12-25 15:55:58.542510,599616281004764479,-170.00
2025-12-25 15:55:58.542510,599616281004764479,-165.00
2025-12-25 15:55:58.542510,599616281004764479,-170.00
2025-12-25 15:55:58.542510,599616281004764479,-179.00
2025-12-25 15:55:58.542510,599616281004764479,-181.00
2025-12-25 15:55:58.542510,599616281004764479,-179.00
2025-12-25 15:55:58.542510,599616281004764479,-179.00
2025-12-25 15:55:58.542510,599616281004764479,-183.00
2025-12-25 15:55:58.542510,599616281004764479,-183.00
2025-12-25 15:55:58.542510,599616281004764479,-177.00
2025-12-25 15:55:58.542510,599616281004764479,-167.00
2025-12-25 15:55:58.542510,599616281004764479,-165.00
2025-12-25 15:55:58.542510,599616281004764479,-177.00
2025-12-25 15:55:58.542510,599616281004764479,-181.00
2025-12-25 15:55:58.542510,599616281004764479,-183.00
2025-12-25 15:55:58.542510,599616281004764479,-193.00
2025-12-25 15:55:58.542510,599616281004764479,-193.00
2025-12-25 15:55:58.542510,599616281004764479,-181.00
2025-12-25 15:55:58.542510,599616281004764479,-179.00
2025-12-25 15:55:58.542510,599616281004764479,-186.00
2025-12-25 15:55:58.542510,599616281004764479,-186.00
2025-12-25 15:55:58.542510,599616281004764479,-174.00
2025-12-25 15:55:58.542510,599616281004764479,-174.00
2025-12-25 15:55:58.542510,599616281004764479,-181.00
2025-12-25 15:55:58.542510,599616281004764479,-186.00
2025-12-25 15:55:58.542510,599616281004764479,-186.00
2025-12-25 15:55:58.542510,599616281004764479,-142.00
2025-12-25 15:55:58.542510,599616281004764479,0.00
2025-12-25 15:55:58.542510,599616281004764479,140.00
2025-12-25 15:55:58.542510,599616281004764479,-6.00
2025-12-25 15:55:58.542510,599616281004764479,-363.00
2025-12-25 15:55:58.542510,599616281004764479,-468.00
2025-12-25 15:55:58.542510,599616281004764479,-342.00
2025-12-25 15:55:58.542510,599616281004764479,-282.00
2025-12-25 15:55:58.542510,599616281004764479,-239.00
2025-12-25 15:55:58.542510,599616281004764479,-165.00
2025-12-25 15:55:58.542510,599616281004764479,-151.00
2025-12-25 15:55:58.542510,599616281004764479,-165.00
2025-12-25 15:55:58.542510,599616281004764479,-151.00
2025-12-25 15:55:58.542510,599616281004764479,-147.00
2025-12-25 15:55:58.542510,599616281004764479,-158.00
2025-12-25 15:55:58.542510,599616281004764479,-151.00
2025-12-25 15:55:58.542510,599616281004764479,-142.00
2025-12-25 15:55:58.542510,599616281004764479,-147.00
2025-12-25 15:55:58.542510,599616281004764479,-147.00
2025-12-25 15:55:58.542510,599616281004764479,-142.00
2025-12-25 15:55:58.542510,599616281004764479,-147.00
2025-12-25 15:55:58.542510,599616281004764479,-147.00
2025-12-25 15:55:58.542510,599616281004764479,-135.00
2025-12-25 15:55:58.542510,599616281004764479,-131.00
2025-12-25 15:55:58.542510,599616281004764479,-128.00
2025-12-25 15:55:58.542510,599616281004764479,-124.00
2025-12-25 15:55:58.542510,599616281004764479,-117.00
2025-12-25 15:55:58.542510,599616281004764479,-110.00
2025-12-25 15:55:58.542510,599616281004764479,-112.00
2025-12-25 15:55:58.542510,599616281004764479,-112.00
2025-12-25 15:55:58.542510,599616281004764479,-114.00
2025-12-25 15:55:58.542510,599616281004764479,-131.00
2025-12-25 15:55:58.542510,599616281004764479,-140.00
2025-12-25 15:55:58.542510,599616281004764479,-137.00
2025-12-25 15:55:58.542510,599616281004764479,-149.00
2025-12-25 15:55:58.542510,599616281004764479,-167.00
2025-12-25 15:55:58.542510,599616281004764479,-179.00
2025-12-25 15:55:58.542510,599616281004764479,-188.00
2025-12-25 15:55:58.542510,599616281004764479,-197.00
2025-12-25 15:55:59.044562,599616281565609024,-197.00
2025-12-25 15:55:59.044562,599616281565609024,-197.00
2025-12-25 15:55:59.044562,599616281565609024,-204.00
2025-12-25 15:55:59.044562,599616281565609024,-211.00
2025-12-25 15:55:59.044562,599616281565609024,-209.00
2025-12-25 15:55:59.044562,599616281565609024,-195.00
2025-12-25 15:55:59.044562,599616281565609024,-190.00
2025-12-25 15:55:59.044562,599616281565609024,-190.00
2025-12-25 15:55:59.044562,599616281565609024,-190.00
2025-12-25 15:55:59.044562,599616281565609024,-188.00
2025-12-25 15:55:59.044562,599616281565609024,-181.00
2025-12-25 15:55:59.044562,599616281565609024,-170.00
2025-12-25 15:55:59.044562,599616281565609024,-165.00
2025-12-25 15:55:59.044562,599616281565609024,-174.00
2025-12-25 15:55:59.044562,599616281565609024,-177.00
2025-12-25 15:55:59.044562,599616281565609024,-174.00
2025-12-25 15:55:59.044562,599616281565609024,-172.00
2025-12-25 15:55:59.044562,599616281565609024,-163.00
2025-12-25 15:55:59.044562,599616281565609024,-158.00
2025-12-25 15:55:59.044562,599616281565609024,-165.00
2025-12-25 15:55:59.044562,599616281565609024,-167.00
2025-12-25 15:55:59.044562,599616281565609024,-165.00
2025-12-25 15:55:59.044562,599616281565609024,-160.00
2025-12-25 15:55:59.044562,599616281565609024,-142.00
2025-12-25 15:55:59.044562,599616281565609024,-133.00
2025-12-25 15:55:59.044562,599616281565609024,-144.00
2025-12-25 15:55:59.044562,599616281565609024,-160.00
2025-12-25 15:55:59.044562,599616281565609024,-170.00
2025-12-25 15:55:59.044562,599616281565609024,-172.00
2025-12-25 15:55:59.044562,599616281565609024,-177.00
2025-12-25 15:55:59.044562,599616281565609024,-174.00
2025-12-25 15:55:59.044562,599616281565609024,-167.00
2025-12-25 15:55:59.044562,599616281565609024,-163.00
2025-12-25 15:55:59.044562,599616281565609024,-160.00
2025-12-25 15:55:59.044562,599616281565609024,-160.00
2025-12-25 15:55:59.044562,599616281565609024,-156.00
2025-12-25 15:55:59.044562,599616281565609024,-160.00
2025-12-25 15:55:59.044562,599616281565609024,-167.00
2025-12-25 15:55:59.044562,599616281565609024,-170.00
2025-12-25 15:55:59.044562,599616281565609024,-167.00
2025-12-25 15:55:59.044562,599616281565609024,-131.00
2025-12-25 15:55:59.044562,599616281565609024,-4.00
2025-12-25 15:55:59.044562,599616281565609024,131.00
2025-12-25 15:55:59.044562,599616281565609024,4.00
2025-12-25 15:55:59.044562,599616281565609024,-344.00
2025-12-25 15:55:59.044562,599616281565609024,-473.00
2025-12-25 15:55:59.044562,599616281565609024,-351.00
2025-12-25 15:55:59.044562,599616281565609024,-278.00
2025-12-25 15:55:59.044562,599616281565609024,-239.00
2025-12-25 15:55:59.044562,599616281565609024,-172.00
2025-12-25 15:55:59.044562,599616281565609024,-151.00
2025-12-25 15:55:59.044562,599616281565609024,-158.00
2025-12-25 15:55:59.044562,599616281565609024,-144.00
2025-12-25 15:55:59.044562,599616281565609024,-140.00
2025-12-25 15:55:59.044562,599616281565609024,-149.00
2025-12-25 15:55:59.044562,599616281565609024,-149.00
2025-12-25 15:55:59.044562,599616281565609024,-140.00
2025-12-25 15:55:59.044562,599616281565609024,-135.00
2025-12-25 15:55:59.044562,599616281565609024,-137.00
2025-12-25 15:55:59.044562,599616281565609024,-135.00
2025-12-25 15:55:59.044562,599616281565609024,-137.00
2025-12-25 15:55:59.044562,599616281565609024,-137.00
2025-12-25 15:55:59.044562,599616281565609024,-133.00
2025-12-25 15:55:59.044562,599616281565609024,-128.00
2025-12-25 15:55:59.044562,599616281565609024,-128.00
2025-12-25 15:55:59.044562,599616281565609024,-124.00
2025-12-25 15:55:59.044562,599616281565609024,-114.00
2025-12-25 15:55:59.044562,599616281565609024,-114.00
2025-12-25 15:55:59.044562,599616281565609024,-112.00
2025-12-25 15:55:59.044562,599616281565609024,-108.00
2025-12-25 15:55:59.044562,599616281565609024,-110.00
2025-12-25 15:55:59.044562,599616281565609024,-112.00
2025-12-25 15:55:59.044562,599616281565609024,-119.00
2025-12-25 15:55:59.746616,599616282126489172,-135.00
2025-12-25 15:55:59.746616,599616282126489172,-147.00
2025-12-25 15:55:59.746616,599616282126489172,-154.00
2025-12-25 15:55:59.746616,599616282126489172,-170.00
2025-12-25 15:55:59.746616,599616282126489172,-183.00
2025-12-25 15:55:59.746616,599616282126489172,-193.00
2025-12-25 15:55:59.746616,599616282126489172,-204.00
2025-12-25 15:55:59.746616,599616282126489172,-209.00
2025-12-25 15:55:59.746616,599616282126489172,-202.00
2025-12-25 15:55:59.746616,599616282126489172,-188.00
2025-12-25 15:55:59.746616,599616282126489172,-179.00
2025-12-25 15:55:59.746616,599616282126489172,-174.00
2025-12-25 15:55:59.746616,599616282126489172,-167.00
2025-12-25 15:55:59.746616,599616282126489172,-160.00
2025-12-25 15:55:59.746616,599616282126489172,-151.00
2025-12-25 15:55:59.746616,599616282126489172,-142.00
2025-12-25 15:55:59.746616,599616282126489172,-147.00
2025-12-25 15:55:59.746616,599616282126489172,-154.00
2025-12-25 15:55:59.746616,599616282126489172,-154.00
2025-12-25 15:55:59.746616,599616282126489172,-151.00
2025-12-25 15:55:59.746616,599616282126489172,-151.00
2025-12-25 15:55:59.746616,599616282126489172,-156.00
2025-12-25 15:55:59.746616,599616282126489172,-156.00
2025-12-25 15:55:59.746616,599616282126489172,-151.00
2025-12-25 15:55:59.746616,599616282126489172,-151.00
2025-12-25 15:55:59.746616,599616282126489172,-149.00
2025-12-25 15:55:59.746616,599616282126489172,-149.00
2025-12-25 15:55:59.746616,599616282126489172,-151.00
2025-12-25 15:55:59.746616,599616282126489172,-151.00
2025-12-25 15:55:59.746616,599616282126489172,-147.00
2025-12-25 15:55:59.746616,599616282126489172,-142.00
2025-12-25 15:55:59.746616,599616282126489172,-142.00
2025-12-25 15:55:59.746616,599616282126489172,-154.00
2025-12-25 15:55:59.746616,599616282126489172,-163.00
2025-12-25 15:55:59.746616,599616282126489172,-163.00
2025-12-25 15:55:59.746616,599616282126489172,-167.00
2025-12-25 15:55:59.746616,599616282126489172,-177.00
2025-12-25 15:55:59.746616,599616282126489172,-170.00
2025-12-25 15:55:59.746616,599616282126489172,-165.00
2025-12-25 15:55:59.746616,599616282126489172,-167.00
2025-12-25 15:55:59.746616,599616282126489172,-170.00
2025-12-25 15:55:59.746616,599616282126489172,-174.00
2025-12-25 15:55:59.746616,599616282126489172,-172.00
2025-12-25 15:55:59.746616,599616282126489172,-160.00
2025-12-25 15:55:59.746616,599616282126489172,-160.00
2025-12-25 15:55:59.746616,599616282126489172,-174.00
2025-12-25 15:55:59.746616,599616282126489172,-151.00
2025-12-25 15:55:59.746616,599616282126489172,-36.00
2025-12-25 15:55:59.746616,599616282126489172,124.00
2025-12-25 15:55:59.746616,599616282126489172,62.00
2025-12-25 15:55:59.746616,599616282126489172,-280.00
2025-12-25 15:55:59.746616,599616282126489172,-471.00
2025-12-25 15:55:59.746616,599616282126489172,-372.00
2025-12-25 15:55:59.746616,599616282126489172,-285.00
2025-12-25 15:55:59.746616,599616282126489172,-245.00
2025-12-25 15:55:59.746616,599616282126489172,-177.00
2025-12-25 15:55:59.746616,599616282126489172,-154.00
2025-12-25 15:55:59.746616,599616282126489172,-165.00
2025-12-25 15:55:59.746616,599616282126489172,-158.00
2025-12-25 15:55:59.746616,599616282126489172,-156.00
2025-12-25 15:55:59.746616,599616282126489172,-160.00
2025-12-25 15:55:59.746616,599616282126489172,-149.00
2025-12-25 15:55:59.746616,599616282126489172,-140.00
2025-12-25 15:55:59.746616,599616282126489172,-147.00
2025-12-25 15:55:59.746616,599616282126489172,-147.00
2025-12-25 15:55:59.746616,599616282126489172,-147.00
2025-12-25 15:55:59.746616,599616282126489172,-142.00
2025-12-25 15:55:59.746616,599616282126489172,-133.00
2025-12-25 15:55:59.746616,599616282126489172,-131.00
2025-12-25 15:55:59.746616,599616282126489172,-133.00
2025-12-25 15:55:59.746616,599616282126489172,-128.00
2025-12-25 15:55:59.746616,599616282126489172,-124.00
2025-12-25 15:55:59.746616,599616282126489172,-119.00
2025-12-25 15:56:00.198174,599616282687298112,-112.00
2025-12-25 15:56:00.198174,599616282687298112,-108.00
2025-12-25 15:56:00.198174,599616282687298112,-108.00
2025-12-25 15:56:00.198174,599616282687298112,-103.00
2025-12-25 15:56:00.198174,599616282687298112,-105.00
2025-12-25 15:56:00.198174,599616282687298112,-117.00
2025-12-25 15:56:00.198174,599616282687298112,-121.00
2025-12-25 15:56:00.198174,599616282687298112,-124.00
2025-12-25 15:56:00.198174,599616282687298112,-144.00
2025-12-25 15:56:00.198174,599616282687298112,-167.00
2025-12-25 15:56:00.198174,599616282687298112,-179.00
2025-12-25 15:56:00.198174,599616282687298112,-188.00
2025-12-25 15:56:00.198174,599616282687298112,-195.00
2025-12-25 15:56:00.198174,599616282687298112,-197.00
2025-12-25 15:56:00.198174,599616282687298112,-202.00
2025-12-25 15:56:00.198174,599616282687298112,-206.00
2025-12-25 15:56:00.198174,599616282687298112,-204.00
2025-12-25 15:56:00.198174,599616282687298112,-186.00
2025-12-25 15:56:00.198174,599616282687298112,-167.00
2025-12-25 15:56:00.198174,599616282687298112,-167.00
2025-12-25 15:56:00.198174,599616282687298112,-172.00
2025-12-25 15:56:00.198174,599616282687298112,-167.00
2025-12-25 15:56:00.198174,599616282687298112,-163.00
2025-12-25 15:56:00.198174,599616282687298112,-151.00
2025-12-25 15:56:00.198174,599616282687298112,-137.00
2025-12-25 15:56:00.198174,599616282687298112,-144.00
2025-12-25 15:56:00.198174,599616282687298112,-154.00
2025-12-25 15:56:00.198174,599616282687298112,-147.00
2025-12-25 15:56:00.198174,599616282687298112,-147.00
2025-12-25 15:56:00.198174,599616282687298112,-144.00
2025-12-25 15:56:00.198174,599616282687298112,-131.00
2025-12-25 15:56:00.198174,599616282687298112,-133.00
2025-12-25 15:56:00.198174,599616282687298112,-147.00
2025-12-25 15:56:00.198174,599616282687298112,-149.00
2025-12-25 15:56:00.198174,599616282687298112,-142.00
2025-12-25 15:56:00.198174,599616282687298112,-131.00
2025-12-25 15:56:00.198174,599616282687298112,-114.00
2025-12-25 15:56:00.198174,599616282687298112,-112.00
2025-12-25 15:56:00.198174,599616282687298112,-119.00
2025-12-25 15:56:00.198174,599616282687298112,-133.00
2025-12-25 15:56:00.198174,599616282687298112,-144.00
2025-12-25 15:56:00.198174,599616282687298112,-147.00
2025-12-25 15:56:00.198174,599616282687298112,-147.00
2025-12-25 15:56:00.198174,599616282687298112,-149.00
2025-12-25 15:56:00.198174,599616282687298112,-154.00
2025-12-25 15:56:00.198174,599616282687298112,-154.00
2025-12-25 15:56:00.198174,599616282687298112,-151.00
2025-12-25 15:56:00.198174,599616282687298112,-151.00
2025-12-25 15:56:00.198174,599616282687298112,-151.00
2025-12-25 15:56:00.198174,599616282687298112,-154.00
2025-12-25 15:56:00.198174,599616282687298112,-160.00
2025-12-25 15:56:00.198174,599616282687298112,-163.00
2025-12-25 15:56:00.198174,599616282687298112,-163.00
2025-12-25 15:56:00.198174,599616282687298112,-142.00
2025-12-25 15:56:00.198174,599616282687298112,-34.00
2025-12-25 15:56:00.198174,599616282687298112,133.00
2025-12-25 15:56:00.198174,599616282687298112,87.00
2025-12-25 15:56:00.198174,599616282687298112,-259.00
2025-12-25 15:56:00.198174,599616282687298112,-473.00
2025-12-25 15:56:00.198174,599616282687298112,-377.00
2025-12-25 15:56:00.198174,599616282687298112,-285.00
2025-12-25 15:56:00.198174,599616282687298112,-250.00
2025-12-25 15:56:00.198174,599616282687298112,-179.00
2025-12-25 15:56:00.198174,599616282687298112,-151.00
2025-12-25 15:56:00.198174,599616282687298112,-163.00
2025-12-25 15:56:00.198174,599616282687298112,-149.00
2025-12-25 15:56:00.198174,599616282687298112,-135.00
2025-12-25 15:56:00.198174,599616282687298112,-140.00
2025-12-25 15:56:00.198174,599616282687298112,-140.00
2025-12-25 15:56:00.198174,599616282687298112,-133.00
2025-12-25 15:56:00.198174,599616282687298112,-135.00
2025-12-25 15:56:00.198174,599616282687298112,-135.00
2025-12-25 15:56:00.198174,599616282687298112,-131.00
2025-12-25 15:56:00.750223,599616283248127399,-126.00
2025-12-25 15:56:00.750223,599616283248127399,-131.00
2025-12-25 15:56:00.750223,599616283248127399,-133.00
2025-12-25 15:56:00.750223,599616283248127399,-126.00
2025-12-25 15:56:00.750223,599616283248127399,-119.00
2025-12-25 15:56:00.750223,599616283248127399,-117.00
2025-12-25 15:56:00.750223,599616283248127399,-112.00
2025-12-25 15:56:00.750223,599616283248127399,-110.00
2025-12-25 15:56:00.750223,599616283248127399,-105.00
2025-12-25 15:56:00.750223,599616283248127399,-98.00
2025-12-25 15:56:00.750223,599616283248127399,-98.00
2025-12-25 15:56:00.750223,599616283248127399,-105.00
2025-12-25 15:56:00.750223,599616283248127399,-114.00
2025-12-25 15:56:00.750223,599616283248127399,-121.00
2025-12-25 15:56:00.750223,599616283248127399,-131.00
2025-12-25 15:56:00.750223,599616283248127399,-135.00
2025-12-25 15:56:00.750223,599616283248127399,-144.00
2025-12-25 15:56:00.750223,599616283248127399,-163.00
2025-12-25 15:56:00.750223,599616283248127399,-179.00
2025-12-25 15:56:00.750223,599616283248127399,-190.00
2025-12-25 15:56:00.750223,599616283248127399,-190.00
2025-12-25 15:56:00.750223,599616283248127399,-179.00
2025-12-25 15:56:00.750223,599616283248127399,-177.00
2025-12-25 15:56:00.750223,599616283248127399,-181.00
2025-12-25 15:56:00.750223,599616283248127399,-179.00
2025-12-25 15:56:00.750223,599616283248127399,-172.00
2025-12-25 15:56:00.750223,599616283248127399,-172.00
2025-12-25 15:56:00.750223,599616283248127399,-172.00
2025-12-25 15:56:00.750223,599616283248127399,-170.00
2025-12-25 15:56:00.750223,599616283248127399,-167.00
2025-12-25 15:56:00.750223,599616283248127399,-167.00
2025-12-25 15:56:00.750223,599616283248127399,-167.00
2025-12-25 15:56:00.750223,599616283248127399,-160.00
2025-12-25 15:56:00.750223,599616283248127399,-156.00
2025-12-25 15:56:00.750223,599616283248127399,-163.00
2025-12-25 15:56:00.750223,599616283248127399,-167.00
2025-12-25 15:56:00.750223,599616283248127399,-165.00
2025-12-25 15:56:00.750223,599616283248127399,-160.00
2025-12-25 15:56:00.750223,599616283248127399,-163.00
2025-12-25 15:56:00.750223,599616283248127399,-170.00
2025-12-25 15:56:00.750223,599616283248127399,-172.00
2025-12-25 15:56:00.750223,599616283248127399,-167.00
2025-12-25 15:56:00.750223,599616283248127399,-167.00
2025-12-25 15:56:00.750223,599616283248127399,-172.00
2025-12-25 15:56:00.750223,599616283248127399,-165.00
2025-12-25 15:56:00.750223,599616283248127399,-151.00
2025-12-25 15:56:00.750223,599616283248127399,-149.00
2025-12-25 15:56:00.750223,599616283248127399,-156.00
2025-12-25 15:56:00.750223,599616283248127399,-167.00
2025-12-25 15:56:00.750223,599616283248127399,-177.00
2025-12-25 15:56:00.750223,599616283248127399,-177.00
2025-12-25 15:56:00.750223,599616283248127399,-174.00
2025-12-25 15:56:00.750223,599616283248127399,-174.00
2025-12-25 15:56:00.750223,599616283248127399,-177.00
2025-12-25 15:56:00.750223,599616283248127399,-179.00
2025-12-25 15:56:00.750223,599616283248127399,-179.00
2025-12-25 15:56:00.750223,599616283248127399,-177.00
2025-12-25 15:56:00.750223,599616283248127399,-172.00
2025-12-25 15:56:00.750223,599616283248127399,-170.00
2025-12-25 15:56:00.750223,599616283248127399,-172.00
2025-12-25 15:56:00.750223,599616283248127399,-179.00
2025-12-25 15:56:00.750223,599616283248127399,-170.00
2025-12-25 15:56:00.750223,599616283248127399,-98.00
2025-12-25 15:56:00.750223,599616283248127399,66.00
2025-12-25 15:56:00.750223,599616283248127399,140.00
2025-12-25 15:56:00.750223,599616283248127399,-131.00
2025-12-25 15:56:00.750223,599616283248127399,-455.00
2025-12-25 15:56:00.750223,599616283248127399,-441.00
2025-12-25 15:56:00.750223,599616283248127399,-317.00
2025-12-25 15:56:00.750223,599616283248127399,-287.00
2025-12-25 15:56:00.750223,599616283248127399,-223.00
2025-12-25 15:56:00.750223,599616283248127399,-156.00
2025-12-25 15:56:00.750223,599616283248127399,-158.00
2025-12-25 15:56:01.201840,599616283808977028,-172.00
2025-12-25 15:56:01.201840,599616283808977028,-154.00
2025-12-25 15:56:01.201840,599616283808977028,-140.00
2025-12-25 15:56:01.201840,599616283808977028,-142.00
2025-12-25 15:56:01.201840,599616283808977028,-140.00
2025-12-25 15:56:01.201840,599616283808977028,-131.00
2025-12-25 15:56:01.201840,599616283808977028,-126.00
2025-12-25 15:56:01.201840,599616283808977028,-121.00
2025-12-25 15:56:01.201840,599616283808977028,-119.00
2025-12-25 15:56:01.201840,599616283808977028,-119.00
2025-12-25 15:56:01.201840,599616283808977028,-114.00
2025-12-25 15:56:01.201840,599616283808977028,-108.00
2025-12-25 15:56:01.201840,599616283808977028,-98.00
2025-12-25 15:56:01.201840,599616283808977028,-91.00
2025-12-25 15:56:01.201840,599616283808977028,-94.00
2025-12-25 15:56:01.201840,599616283808977028,-87.00
2025-12-25 15:56:01.201840,599616283808977028,-78.00
2025-12-25 15:56:01.201840,599616283808977028,-75.00
2025-12-25 15:56:01.201840,599616283808977028,-68.00
2025-12-25 15:56:01.201840,599616283808977028,-64.00
2025-12-25 15:56:01.201840,599616283808977028,-78.00
2025-12-25 15:56:01.201840,599616283808977028,-91.00
2025-12-25 15:56:01.201840,599616283808977028,-96.00
2025-12-25 15:56:01.201840,599616283808977028,-110.00
2025-12-25 15:56:01.201840,599616283808977028,-131.00
2025-12-25 15:56:01.201840,599616283808977028,-144.00
2025-12-25 15:56:01.201840,599616283808977028,-160.00
2025-12-25 15:56:01.201840,599616283808977028,-174.00
2025-12-25 15:56:01.201840,599616283808977028,-174.00
2025-12-25 15:56:01.201840,599616283808977028,-177.00
2025-12-25 15:56:01.201840,599616283808977028,-186.00
2025-12-25 15:56:01.201840,599616283808977028,-188.00
2025-12-25 15:56:01.201840,599616283808977028,-186.00
2025-12-25 15:56:01.201840,599616283808977028,-188.00
2025-12-25 15:56:01.201840,599616283808977028,-183.00
2025-12-25 15:56:01.201840,599616283808977028,-170.00
2025-12-25 15:56:01.201840,599616283808977028,-170.00
2025-12-25 15:56:01.201840,599616283808977028,-181.00
2025-12-25 15:56:01.201840,599616283808977028,-186.00
2025-12-25 15:56:01.201840,599616283808977028,-181.00
2025-12-25 15:56:01.201840,599616283808977028,-172.00
2025-12-25 15:56:01.201840,599616283808977028,-167.00
2025-12-25 15:56:01.201840,599616283808977028,-170.00
2025-12-25 15:56:01.201840,599616283808977028,-170.00
2025-12-25 15:56:01.201840,599616283808977028,-165.00
2025-12-25 15:56:01.201840,599616283808977028,-165.00
2025-12-25 15:56:01.201840,599616283808977028,-172.00
2025-12-25 15:56:01.201840,599616283808977028,-167.00
2025-12-25 15:56:01.201840,599616283808977028,-158.00
2025-12-25 15:56:01.201840,599616283808977028,-163.00
2025-12-25 15:56:01.201840,599616283808977028,-174.00
2025-12-25 15:56:01.201840,599616283808977028,-170.00
2025-12-25 15:56:01.201840,599616283808977028,-165.00
2025-12-25 15:56:01.201840,599616283808977028,-167.00
2025-12-25 15:56:01.201840,599616283808977028,-165.00
2025-12-25 15:56:01.201840,599616283808977028,-154.00
2025-12-25 15:56:01.201840,599616283808977028,-144.00
2025-12-25 15:56:01.201840,599616283808977028,-151.00
2025-12-25 15:56:01.201840,599616283808977028,-163.00
2025-12-25 15:56:01.201840,599616283808977028,-165.00
2025-12-25 15:56:01.201840,599616283808977028,-170.00
2025-12-25 15:56:01.201840,599616283808977028,-179.00
2025-12-25 15:56:01.201840,599616283808977028,-177.00
2025-12-25 15:56:01.201840,599616283808977028,-170.00
2025-12-25 15:56:01.201840,599616283808977028,-172.00
2025-12-25 15:56:01.201840,599616283808977028,-177.00
2025-12-25 15:56:01.201840,599616283808977028,-174.00
2025-12-25 15:56:01.201840,599616283808977028,-163.00
2025-12-25 15:56:01.201840,599616283808977028,-154.00
2025-12-25 15:56:01.201840,599616283808977028,-160.00
2025-12-25 15:56:01.201840,599616283808977028,-170.00
2025-12-25 15:56:01.201840,599616283808977028,-163.00
2025-12-25 15:56:01.201840,599616283808977028,-121.00
2025-12-25 15:56:01.903766,599616284369801231,11.00
2025-12-25 15:56:01.903766,599616284369801231,151.00
2025-12-25 15:56:01.903766,599616284369801231,11.00
2025-12-25 15:56:01.903766,599616284369801231,-340.00
2025-12-25 15:56:01.903766,599616284369801231,-452.00
2025-12-25 15:56:01.903766,599616284369801231,-335.00
2025-12-25 15:56:01.903766,599616284369801231,-273.00
2025-12-25 15:56:01.903766,599616284369801231,-220.00
2025-12-25 15:56:01.903766,599616284369801231,-137.00
2025-12-25 15:56:01.903766,599616284369801231,-126.00
2025-12-25 15:56:01.903766,599616284369801231,-144.00
2025-12-25 15:56:01.903766,599616284369801231,-126.00
2025-12-25 15:56:01.903766,599616284369801231,-124.00
2025-12-25 15:56:01.903766,599616284369801231,-137.00
2025-12-25 15:56:01.903766,599616284369801231,-135.00
2025-12-25 15:56:01.903766,599616284369801231,-128.00
2025-12-25 15:56:01.903766,599616284369801231,-131.00
2025-12-25 15:56:01.903766,599616284369801231,-128.00
2025-12-25 15:56:01.903766,599616284369801231,-124.00
2025-12-25 15:56:01.903766,599616284369801231,-126.00
2025-12-25 15:56:01.903766,599616284369801231,-124.00
2025-12-25 15:56:01.903766,599616284369801231,-121.00
2025-12-25 15:56:01.903766,599616284369801231,-124.00
2025-12-25 15:56:01.903766,599616284369801231,-119.00
2025-12-25 15:56:01.903766,599616284369801231,-112.00
2025-12-25 15:56:01.903766,599616284369801231,-110.00
2025-12-25 15:56:01.903766,599616284369801231,-110.00
2025-12-25 15:56:01.903766,599616284369801231,-112.00
2025-12-25 15:56:01.903766,599616284369801231,-112.00
2025-12-25 15:56:01.903766,599616284369801231,-110.00
2025-12-25 15:56:01.903766,599616284369801231,-108.00
2025-12-25 15:56:01.903766,599616284369801231,-114.00
2025-12-25 15:56:01.903766,599616284369801231,-128.00
2025-12-25 15:56:01.903766,599616284369801231,-137.00
2025-12-25 15:56:01.903766,599616284369801231,-147.00
2025-12-25 15:56:01.903766,599616284369801231,-165.00
2025-12-25 15:56:01.903766,599616284369801231,-179.00
2025-12-25 15:56:01.903766,599616284369801231,-190.00
2025-12-25 15:56:01.903766,599616284369801231,-202.00
2025-12-25 15:56:01.903766,599616284369801231,-193.00
2025-12-25 15:56:01.903766,599616284369801231,-190.00
2025-12-25 15:56:01.903766,599616284369801231,-216.00
2025-12-25 15:56:01.903766,599616284369801231,-216.00
2025-12-25 15:56:01.903766,599616284369801231,-197.00
2025-12-25 15:56:01.903766,599616284369801231,-197.00
2025-12-25 15:56:01.903766,599616284369801231,-197.00
2025-12-25 15:56:01.903766,599616284369801231,-186.00
2025-12-25 15:56:01.903766,599616284369801231,-188.00
2025-12-25 15:56:01.903766,599616284369801231,-190.00
2025-12-25 15:56:01.903766,599616284369801231,-177.00
2025-12-25 15:56:01.903766,599616284369801231,-172.00
2025-12-25 15:56:01.903766,599616284369801231,-177.00
2025-12-25 15:56:01.903766,599616284369801231,-179.00
2025-12-25 15:56:01.903766,599616284369801231,-177.00
2025-12-25 15:56:01.903766,599616284369801231,-174.00
2025-12-25 15:56:01.903766,599616284369801231,-174.00
2025-12-25 15:56:01.903766,599616284369801231,-172.00
2025-12-25 15:56:01.903766,599616284369801231,-172.00
2025-12-25 15:56:01.903766,599616284369801231,-179.00
2025-12-25 15:56:01.903766,599616284369801231,-183.00
2025-12-25 15:56:01.903766,599616284369801231,-181.00
2025-12-25 15:56:01.903766,599616284369801231,-177.00
2025-12-25 15:56:01.903766,599616284369801231,-167.00
2025-12-25 15:56:01.903766,599616284369801231,-158.00
2025-12-25 15:56:01.903766,599616284369801231,-165.00
2025-12-25 15:56:01.903766,599616284369801231,-177.00
2025-12-25 15:56:01.903766,599616284369801231,-170.00
2025-12-25 15:56:01.903766,599616284369801231,-160.00
2025-12-25 15:56:01.903766,599616284369801231,-154.00
2025-12-25 15:56:01.903766,599616284369801231,-149.00
2025-12-25 15:56:01.903766,599616284369801231,-156.00
2025-12-25 15:56:01.903766,599616284369801231,-165.00
2025-12-25 15:56:01.903766,599616284369801231,-167.00
2025-12-25 15:56:02.355217,599616284930645776,-170.00
2025-12-25 15:56:02.355217,599616284930645776,-172.00
2025-12-25 15:56:02.355217,599616284930645776,-172.00
2025-12-25 15:56:02.355217,599616284930645776,-163.00
2025-12-25 15:56:02.355217,599616284930645776,-163.00
2025-12-25 15:56:02.355217,599616284930645776,-167.00
2025-12-25 15:56:02.355217,599616284930645776,-170.00
2025-12-25 15:56:02.355217,599616284930645776,-172.00
2025-12-25 15:56:02.355217,599616284930645776,-174.00
2025-12-25 15:56:02.355217,599616284930645776,-170.00
2025-12-25 15:56:02.355217,599616284930645776,-172.00
2025-12-25 15:56:02.355217,599616284930645776,-179.00
2025-12-25 15:56:02.355217,599616284930645776,-117.00
2025-12-25 15:56:02.355217,599616284930645776,62.00
2025-12-25 15:56:02.355217,599616284930645776,183.00
2025-12-25 15:56:02.355217,599616284930645776,-34.00
2025-12-25 15:56:02.355217,599616284930645776,-388.00
2025-12-25 15:56:02.355217,599616284930645776,-441.00
2025-12-25 15:56:02.355217,599616284930645776,-303.00
2025-12-25 15:56:02.355217,599616284930645776,-234.00
2025-12-25 15:56:02.355217,599616284930645776,-186.00
2025-12-25 15:56:02.355217,599616284930645776,-140.00
2025-12-25 15:56:02.355217,599616284930645776,-135.00
2025-12-25 15:56:02.355217,599616284930645776,-137.00
2025-12-25 15:56:02.355217,599616284930645776,-124.00
2025-12-25 15:56:02.355217,599616284930645776,-114.00
2025-12-25 15:56:02.355217,599616284930645776,-112.00
2025-12-25 15:56:02.355217,599616284930645776,-114.00
2025-12-25 15:56:02.355217,599616284930645776,-114.00
2025-12-25 15:56:02.355217,599616284930645776,-114.00
2025-12-25 15:56:02.355217,599616284930645776,-108.00
2025-12-25 15:56:02.355217,599616284930645776,-101.00
2025-12-25 15:56:02.355217,599616284930645776,-105.00
2025-12-25 15:56:02.355217,599616284930645776,-112.00
2025-12-25 15:56:02.355217,599616284930645776,-103.00
2025-12-25 15:56:02.355217,599616284930645776,-94.00
2025-12-25 15:56:02.355217,599616284930645776,-98.00
2025-12-25 15:56:02.355217,599616284930645776,-96.00
2025-12-25 15:56:02.355217,599616284930645776,-78.00
2025-12-25 15:56:02.355217,599616284930645776,-75.00
2025-12-25 15:56:02.355217,599616284930645776,-87.00
2025-12-25 15:56:02.355217,599616284930645776,-85.00
2025-12-25 15:56:02.355217,599616284930645776,-78.00
2025-12-25 15:56:02.355217,599616284930645776,-78.00
2025-12-25 15:56:02.355217,599616284930645776,-87.00
2025-12-25 15:56:02.355217,599616284930645776,-105.00
2025-12-25 15:56:02.355217,599616284930645776,-124.00
2025-12-25 15:56:02.355217,599616284930645776,-137.00
2025-12-25 15:56:02.355217,599616284930645776,-149.00
2025-12-25 15:56:02.355217,599616284930645776,-163.00
2025-12-25 15:56:02.355217,599616284930645776,-177.00
2025-12-25 15:56:02.355217,599616284930645776,-183.00
2025-12-25 15:56:02.355217,599616284930645776,-183.00
2025-12-25 15:56:02.355217,599616284930645776,-179.00
2025-12-25 15:56:02.355217,599616284930645776,-170.00
2025-12-25 15:56:02.355217,599616284930645776,-163.00
2025-12-25 15:56:02.355217,599616284930645776,-165.00
2025-12-25 15:56:02.355217,599616284930645776,-167.00
2025-12-25 15:56:02.355217,599616284930645776,-165.00
2025-12-25 15:56:02.355217,599616284930645776,-160.00
2025-12-25 15:56:02.355217,599616284930645776,-160.00
2025-12-25 15:56:02.355217,599616284930645776,-163.00
2025-12-25 15:56:02.355217,599616284930645776,-151.00
2025-12-25 15:56:02.355217,599616284930645776,-142.00
2025-12-25 15:56:02.355217,599616284930645776,-151.00
2025-12-25 15:56:02.355217,599616284930645776,-154.00
2025-12-25 15:56:02.355217,599616284930645776,-140.00
2025-12-25 15:56:02.355217,599616284930645776,-137.00
2025-12-25 15:56:02.355217,599616284930645776,-144.00
2025-12-25 15:56:02.355217,599616284930645776,-149.00
2025-12-25 15:56:02.355217,599616284930645776,-151.00
2025-12-25 15:56:02.355217,599616284930645776,-151.00
2025-12-25 15:56:02.355217,599616284930645776,-149.00
2025-12-25 15:56:03.157523,599616285491495407,-149.00
2025-12-25 15:56:03.157523,599616285491495407,-151.00
2025-12-25 15:56:03.157523,599616285491495407,-158.00
2025-12-25 15:56:03.157523,599616285491495407,-165.00
2025-12-25 15:56:03.157523,599616285491495407,-165.00
2025-12-25 15:56:03.157523,599616285491495407,-158.00
2025-12-25 15:56:03.157523,599616285491495407,-154.00
2025-12-25 15:56:03.157523,599616285491495407,-154.00
2025-12-25 15:56:03.157523,599616285491495407,-158.00
2025-12-25 15:56:03.157523,599616285491495407,-156.00
2025-12-25 15:56:03.157523,599616285491495407,-133.00
2025-12-25 15:56:03.157523,599616285491495407,-114.00
2025-12-25 15:56:03.157523,599616285491495407,-124.00
2025-12-25 15:56:03.157523,599616285491495407,-142.00
2025-12-25 15:56:03.157523,599616285491495407,-147.00
2025-12-25 15:56:03.157523,599616285491495407,-149.00
2025-12-25 15:56:03.157523,599616285491495407,-156.00
2025-12-25 15:56:03.157523,599616285491495407,-156.00
2025-12-25 15:56:03.157523,599616285491495407,-149.00
2025-12-25 15:56:03.157523,599616285491495407,-151.00
2025-12-25 15:56:03.157523,599616285491495407,-154.00
2025-12-25 15:56:03.157523,599616285491495407,-147.00
2025-12-25 15:56:03.157523,599616285491495407,-142.00
2025-12-25 15:56:03.157523,599616285491495407,-149.00
2025-12-25 15:56:03.157523,599616285491495407,-149.00
2025-12-25 15:56:03.157523,599616285491495407,-151.00
2025-12-25 15:56:03.157523,599616285491495407,-156.00
2025-12-25 15:56:03.157523,599616285491495407,-126.00
2025-12-25 15:56:03.157523,599616285491495407,0.00
2025-12-25 15:56:03.157523,599616285491495407,163.00
2025-12-25 15:56:03.157523,599616285491495407,80.00
2025-12-25 15:56:03.157523,599616285491495407,-280.00
2025-12-25 15:56:03.157523,599616285491495407,-459.00
2025-12-25 15:56:03.157523,599616285491495407,-340.00
2025-12-25 15:56:03.157523,599616285491495407,-248.00
2025-12-25 15:56:03.157523,599616285491495407,-213.00
2025-12-25 15:56:03.157523,599616285491495407,-151.00
2025-12-25 15:56:03.157523,599616285491495407,-131.00
2025-12-25 15:56:03.157523,599616285491495407,-144.00
2025-12-25 15:56:03.157523,599616285491495407,-135.00
2025-12-25 15:56:03.157523,599616285491495407,-126.00
2025-12-25 15:56:03.157523,599616285491495407,-131.00
2025-12-25 15:56:03.157523,599616285491495407,-128.00
2025-12-25 15:56:03.157523,599616285491495407,-119.00
2025-12-25 15:56:03.157523,599616285491495407,-117.00
2025-12-25 15:56:03.157523,599616285491495407,-114.00
2025-12-25 15:56:03.157523,599616285491495407,-105.00
2025-12-25 15:56:03.157523,599616285491495407,-103.00
2025-12-25 15:56:03.157523,599616285491495407,-105.00
2025-12-25 15:56:03.157523,599616285491495407,-101.00
2025-12-25 15:56:03.157523,599616285491495407,-98.00
2025-12-25 15:56:03.157523,599616285491495407,-94.00
2025-12-25 15:56:03.157523,599616285491495407,-82.00
2025-12-25 15:56:03.157523,599616285491495407,-71.00
2025-12-25 15:56:03.157523,599616285491495407,-71.00
2025-12-25 15:56:03.157523,599616285491495407,-73.00
2025-12-25 15:56:03.157523,599616285491495407,-71.00
2025-12-25 15:56:03.157523,599616285491495407,-68.00
2025-12-25 15:56:03.157523,599616285491495407,-73.00
2025-12-25 15:56:03.157523,599616285491495407,-85.00
2025-12-25 15:56:03.157523,599616285491495407,-89.00
2025-12-25 15:56:03.157523,599616285491495407,-101.00
2025-12-25 15:56:03.157523,599616285491495407,-114.00
2025-12-25 15:56:03.157523,599616285491495407,-124.00
2025-12-25 15:56:03.157523,599616285491495407,-135.00
2025-12-25 15:56:03.157523,599616285491495407,-154.00
2025-12-25 15:56:03.157523,599616285491495407,-163.00
2025-12-25 15:56:03.157523,599616285491495407,-165.00
2025-12-25 15:56:03.157523,599616285491495407,-167.00
2025-12-25 15:56:03.157523,599616285491495407,-167.00
2025-12-25 15:56:03.157523,599616285491495407,-167.00
2025-12-25 15:56:03.157523,599616285491495407,-170.00
2025-12-25 15:56:03.157523,599616285491495407,-170.00
2025-12-25 15:56:03.558997,599616286052334864,-163.00
2025-12-25 15:56:03.558997,599616286052334864,-156.00
2025-12-25 15:56:03.558997,599616286052334864,-160.00
2025-12-25 15:56:03.558997,599616286052334864,-167.00
2025-12-25 15:56:03.558997,599616286052334864,-163.00
2025-12-25 15:56:03.558997,599616286052334864,-154.00
2025-12-25 15:56:03.558997,599616286052334864,-149.00
2025-12-25 15:56:03.558997,599616286052334864,-142.00
2025-12-25 15:56:03.558997,599616286052334864,-140.00
2025-12-25 15:56:03.558997,599616286052334864,-144.00
2025-12-25 15:56:03.558997,599616286052334864,-144.00
2025-12-25 15:56:03.558997,599616286052334864,-151.00
2025-12-25 15:56:03.558997,599616286052334864,-147.00
2025-12-25 15:56:03.558997,599616286052334864,-124.00
2025-12-25 15:56:03.558997,599616286052334864,-124.00
2025-12-25 15:56:03.558997,599616286052334864,-142.00
2025-12-25 15:56:03.558997,599616286052334864,-142.00
2025-12-25 15:56:03.558997,599616286052334864,-135.00
2025-12-25 15:56:03.558997,599616286052334864,-131.00
2025-12-25 15:56:03.558997,599616286052334864,-124.00
2025-12-25 15:56:03.558997,599616286052334864,-119.00
2025-12-25 15:56:03.558997,599616286052334864,-128.00
2025-12-25 15:56:03.558997,599616286052334864,-137.00
2025-12-25 15:56:03.558997,599616286052334864,-137.00
2025-12-25 15:56:03.558997,599616286052334864,-131.00
2025-12-25 15:56:03.558997,599616286052334864,-121.00
2025-12-25 15:56:03.558997,599616286052334864,-124.00
2025-12-25 15:56:03.558997,599616286052334864,-126.00
2025-12-25 15:56:03.558997,599616286052334864,-119.00
2025-12-25 15:56:03.558997,599616286052334864,-112.00
2025-12-25 15:56:03.558997,599616286052334864,-108.00
2025-12-25 15:56:03.558997,599616286052334864,-110.00
2025-12-25 15:56:03.558997,599616286052334864,-121.00
2025-12-25 15:56:03.558997,599616286052334864,-128.00
2025-12-25 15:56:03.558997,599616286052334864,-133.00
2025-12-25 15:56:03.558997,599616286052334864,-135.00
2025-12-25 15:56:03.558997,599616286052334864,-126.00
2025-12-25 15:56:03.558997,599616286052334864,-117.00
2025-12-25 15:56:03.558997,599616286052334864,-121.00
2025-12-25 15:56:03.558997,599616286052334864,-119.00
2025-12-25 15:56:03.558997,599616286052334864,-112.00
2025-12-25 15:56:03.558997,599616286052334864,-117.00
2025-12-25 15:56:03.558997,599616286052334864,-112.00
2025-12-25 15:56:03.558997,599616286052334864,-103.00
2025-12-25 15:56:03.558997,599616286052334864,-105.00
2025-12-25 15:56:03.558997,599616286052334864,-91.00
2025-12-25 15:56:03.558997,599616286052334864,9.00
2025-12-25 15:56:03.558997,599616286052334864,181.00
2025-12-25 15:56:03.558997,599616286052334864,158.00
2025-12-25 15:56:03.558997,599616286052334864,-181.00
2025-12-25 15:56:03.558997,599616286052334864,-420.00
2025-12-25 15:56:03.558997,599616286052334864,-342.00
2025-12-25 15:56:03.558997,599616286052334864,-245.00
2025-12-25 15:56:03.558997,599616286052334864,-213.00
2025-12-25 15:56:03.558997,599616286052334864,-135.00
2025-12-25 15:56:03.558997,599616286052334864,-96.00
2025-12-25 15:56:03.558997,599616286052334864,-117.00
2025-12-25 15:56:03.558997,599616286052334864,-119.00
2025-12-25 15:56:03.558997,599616286052334864,-105.00
2025-12-25 15:56:03.558997,599616286052334864,-108.00
2025-12-25 15:56:03.558997,599616286052334864,-112.00
2025-12-25 15:56:03.558997,599616286052334864,-108.00
2025-12-25 15:56:03.558997,599616286052334864,-105.00
2025-12-25 15:56:03.558997,599616286052334864,-110.00
2025-12-25 15:56:03.558997,599616286052334864,-110.00
2025-12-25 15:56:03.558997,599616286052334864,-105.00
2025-12-25 15:56:03.558997,599616286052334864,-103.00
2025-12-25 15:56:03.558997,599616286052334864,-101.00
2025-12-25 15:56:03.558997,599616286052334864,-94.00
2025-12-25 15:56:03.558997,599616286052334864,-94.00
2025-12-25 15:56:03.558997,599616286052334864,-89.00
2025-12-25 15:56:03.558997,599616286052334864,-80.00
2025-12-25 15:56:03.558997,599616286052334864,-75.00
2025-12-25 15:56:04.060593,599616286613189581,-75.00
2025-12-25 15:56:04.060593,599616286613189581,-73.00
2025-12-25 15:56:04.060593,599616286613189581,-73.00
2025-12-25 15:56:04.060593,599616286613189581,-71.00
2025-12-25 15:56:04.060593,599616286613189581,-68.00
2025-12-25 15:56:04.060593,599616286613189581,-75.00
2025-12-25 15:56:04.060593,599616286613189581,-91.00
2025-12-25 15:56:04.060593,599616286613189581,-110.00
2025-12-25 15:56:04.060593,599616286613189581,-126.00
2025-12-25 15:56:04.060593,599616286613189581,-142.00
2025-12-25 15:56:04.060593,599616286613189581,-149.00
2025-12-25 15:56:04.060593,599616286613189581,-158.00
2025-12-25 15:56:04.060593,599616286613189581,-170.00
2025-12-25 15:56:04.060593,599616286613189581,-170.00
2025-12-25 15:56:04.060593,599616286613189581,-170.00
2025-12-25 15:56:04.060593,599616286613189581,-181.00
2025-12-25 15:56:04.060593,599616286613189581,-177.00
2025-12-25 15:56:04.060593,599616286613189581,-158.00
2025-12-25 15:56:04.060593,599616286613189581,-158.00
2025-12-25 15:56:04.060593,599616286613189581,-160.00
2025-12-25 15:56:04.060593,599616286613189581,-156.00
2025-12-25 15:56:04.060593,599616286613189581,-163.00
2025-12-25 15:56:04.060593,599616286613189581,-163.00
2025-12-25 15:56:04.060593,599616286613189581,-158.00
2025-12-25 15:56:04.060593,599616286613189581,-160.00
2025-12-25 15:56:04.060593,599616286613189581,-165.00
2025-12-25 15:56:04.060593,599616286613189581,-165.00
2025-12-25 15:56:04.060593,599616286613189581,-165.00
2025-12-25 15:56:04.060593,599616286613189581,-167.00
2025-12-25 15:56:04.060593,599616286613189581,-170.00
2025-12-25 15:56:04.060593,599616286613189581,-172.00
2025-12-25 15:56:04.060593,599616286613189581,-174.00
2025-12-25 15:56:04.060593,599616286613189581,-165.00
2025-12-25 15:56:04.060593,599616286613189581,-160.00
2025-12-25 15:56:04.060593,599616286613189581,-165.00
2025-12-25 15:56:04.060593,599616286613189581,-163.00
2025-12-25 15:56:04.060593,599616286613189581,-158.00
2025-12-25 15:56:04.060593,599616286613189581,-170.00
2025-12-25 15:56:04.060593,599616286613189581,-177.00
2025-12-25 15:56:04.060593,599616286613189581,-170.00
2025-12-25 15:56:04.060593,599616286613189581,-165.00
2025-12-25 15:56:04.060593,599616286613189581,-167.00
2025-12-25 15:56:04.060593,599616286613189581,-170.00
2025-12-25 15:56:04.060593,599616286613189581,-177.00
2025-12-25 15:56:04.060593,599616286613189581,-179.00
2025-12-25 15:56:04.060593,599616286613189581,-172.00
2025-12-25 15:56:04.060593,599616286613189581,-160.00
2025-12-25 15:56:04.060593,599616286613189581,-158.00
2025-12-25 15:56:04.060593,599616286613189581,-158.00
2025-12-25 15:56:04.060593,599616286613189581,-170.00
2025-12-25 15:56:04.060593,599616286613189581,-181.00
2025-12-25 15:56:04.060593,599616286613189581,-179.00
2025-12-25 15:56:04.060593,599616286613189581,-179.00
2025-12-25 15:56:04.060593,599616286613189581,-186.00
2025-12-25 15:56:04.060593,599616286613189581,-186.00
2025-12-25 15:56:04.060593,599616286613189581,-188.00
2025-12-25 15:56:04.060593,599616286613189581,-190.00
2025-12-25 15:56:04.060593,599616286613189581,-188.00
2025-12-25 15:56:04.060593,599616286613189581,-179.00
2025-12-25 15:56:04.060593,599616286613189581,-174.00
2025-12-25 15:56:04.060593,599616286613189581,-174.00
2025-12-25 15:56:04.060593,599616286613189581,-181.00
2025-12-25 15:56:04.060593,599616286613189581,-190.00
2025-12-25 15:56:04.060593,599616286613189581,-172.00
2025-12-25 15:56:04.060593,599616286613189581,-64.00
2025-12-25 15:56:04.060593,599616286613189581,114.00
2025-12-25 15:56:04.060593,599616286613189581,105.00
2025-12-25 15:56:04.060593,599616286613189581,-225.00
2025-12-25 15:56:04.060593,599616286613189581,-471.00
2025-12-25 15:56:04.060593,599616286613189581,-393.00
2025-12-25 15:56:04.060593,599616286613189581,-291.00
2025-12-25 15:56:04.060593,599616286613189581,-266.00
2025-12-25 15:56:04.060593,599616286613189581,-190.00
2025-12-25 15:56:04.612314,599616287174013782,-142.00
2025-12-25 15:56:04.612314,599616287174013782,-163.00
2025-12-25 15:56:04.612314,599616287174013782,-165.00
2025-12-25 15:56:04.612314,599616287174013782,-142.00
2025-12-25 15:56:04.612314,599616287174013782,-135.00
2025-12-25 15:56:04.612314,599616287174013782,-137.00
2025-12-25 15:56:04.612314,599616287174013782,-128.00
2025-12-25 15:56:04.612314,599616287174013782,-114.00
2025-12-25 15:56:04.612314,599616287174013782,-108.00
2025-12-25 15:56:04.612314,599616287174013782,-108.00
2025-12-25 15:56:04.612314,599616287174013782,-108.00
2025-12-25 15:56:04.612314,599616287174013782,-103.00
2025-12-25 15:56:04.612314,599616287174013782,-103.00
2025-12-25 15:56:04.612314,599616287174013782,-91.00
2025-12-25 15:56:04.612314,599616287174013782,-73.00
2025-12-25 15:56:04.612314,599616287174013782,-73.00
2025-12-25 15:56:04.612314,599616287174013782,-78.00
2025-12-25 15:56:04.612314,599616287174013782,-73.00
2025-12-25 15:56:04.612314,599616287174013782,-71.00
2025-12-25 15:56:04.612314,599616287174013782,-71.00
2025-12-25 15:56:04.612314,599616287174013782,-78.00
2025-12-25 15:56:04.612314,599616287174013782,-87.00
2025-12-25 15:56:04.612314,599616287174013782,-78.00
2025-12-25 15:56:04.612314,599616287174013782,-73.00
2025-12-25 15:56:04.612314,599616287174013782,-94.00
2025-12-25 15:56:04.612314,599616287174013782,-105.00
2025-12-25 15:56:04.612314,599616287174013782,-117.00
2025-12-25 15:56:04.612314,599616287174013782,-131.00
2025-12-25 15:56:04.612314,599616287174013782,-144.00
2025-12-25 15:56:04.612314,599616287174013782,-163.00
2025-12-25 15:56:04.612314,599616287174013782,-179.00
2025-12-25 15:56:04.612314,599616287174013782,-181.00
2025-12-25 15:56:04.612314,599616287174013782,-179.00
2025-12-25 15:56:04.612314,599616287174013782,-186.00
2025-12-25 15:56:04.612314,599616287174013782,-188.00
2025-12-25 15:56:04.612314,599616287174013782,-183.00
2025-12-25 15:56:04.612314,599616287174013782,-177.00
2025-12-25 15:56:04.612314,599616287174013782,-179.00
2025-12-25 15:56:04.612314,599616287174013782,-179.00
2025-12-25 15:56:04.612314,599616287174013782,-174.00
2025-12-25 15:56:04.612314,599616287174013782,-177.00
2025-12-25 15:56:04.612314,599616287174013782,-179.00
2025-12-25 15:56:04.612314,599616287174013782,-179.00
2025-12-25 15:56:04.612314,599616287174013782,-174.00
2025-12-25 15:56:04.612314,599616287174013782,-177.00
2025-12-25 15:56:04.612314,599616287174013782,-186.00
2025-12-25 15:56:04.612314,599616287174013782,-186.00
2025-12-25 15:56:04.612314,599616287174013782,-183.00
2025-12-25 15:56:04.612314,599616287174013782,-181.00
2025-12-25 15:56:04.612314,599616287174013782,-181.00
2025-12-25 15:56:04.612314,599616287174013782,-181.00
2025-12-25 15:56:04.612314,599616287174013782,-188.00
2025-12-25 15:56:04.612314,599616287174013782,-195.00
2025-12-25 15:56:04.612314,599616287174013782,-188.00
2025-12-25 15:56:04.612314,599616287174013782,-186.00
2025-12-25 15:56:04.612314,599616287174013782,-188.00
2025-12-25 15:56:04.612314,599616287174013782,-190.00
2025-12-25 15:56:04.612314,599616287174013782,-193.00
2025-12-25 15:56:04.612314,599616287174013782,-190.00
2025-12-25 15:56:04.612314,599616287174013782,-179.00
2025-12-25 15:56:04.612314,599616287174013782,-179.00
2025-12-25 15:56:04.612314,599616287174013782,-188.00
2025-12-25 15:56:04.612314,599616287174013782,-188.00
2025-12-25 15:56:04.612314,599616287174013782,-181.00
2025-12-25 15:56:04.612314,599616287174013782,-183.00
2025-12-25 15:56:04.612314,599616287174013782,-177.00
2025-12-25 15:56:04.612314,599616287174013782,-165.00
2025-12-25 15:56:04.612314,599616287174013782,-174.00
2025-12-25 15:56:04.612314,599616287174013782,-188.00
2025-12-25 15:56:04.612314,599616287174013782,-188.00
2025-12-25 15:56:04.612314,599616287174013782,-183.00
2025-12-25 15:56:04.612314,599616287174013782,-183.00
2025-12-25 15:56:04.612314,599616287174013782,-181.00
2025-12-25 15:56:05.264032,599616287734863415,-181.00
2025-12-25 15:56:05.264032,599616287734863415,-186.00
2025-12-25 15:56:05.264032,599616287734863415,-181.00
2025-12-25 15:56:05.264032,599616287734863415,-181.00
2025-12-25 15:56:05.264032,599616287734863415,-177.00
2025-12-25 15:56:05.264032,599616287734863415,-170.00
2025-12-25 15:56:05.264032,599616287734863415,-170.00
2025-12-25 15:56:05.264032,599616287734863415,-172.00
2025-12-25 15:56:05.264032,599616287734863415,-147.00
2025-12-25 15:56:05.264032,599616287734863415,-27.00
2025-12-25 15:56:05.264032,599616287734863415,149.00
2025-12-25 15:56:05.264032,599616287734863415,96.00
2025-12-25 15:56:05.264032,599616287734863415,-257.00
2025-12-25 15:56:05.264032,599616287734863415,-455.00
2025-12-25 15:56:05.264032,599616287734863415,-347.00
2025-12-25 15:56:05.264032,599616287734863415,-259.00
2025-12-25 15:56:05.264032,599616287734863415,-223.00
2025-12-25 15:56:05.264032,599616287734863415,-133.00
2025-12-25 15:56:05.264032,599616287734863415,-96.00
2025-12-25 15:56:05.264032,599616287734863415,-126.00
2025-12-25 15:56:05.264032,599616287734863415,-119.00
2025-12-25 15:56:05.264032,599616287734863415,-98.00
2025-12-25 15:56:05.264032,599616287734863415,-101.00
2025-12-25 15:56:05.264032,599616287734863415,-105.00
2025-12-25 15:56:05.264032,599616287734863415,-98.00
2025-12-25 15:56:05.264032,599616287734863415,-103.00
2025-12-25 15:56:05.264032,599616287734863415,-112.00
2025-12-25 15:56:05.264032,599616287734863415,-105.00
2025-12-25 15:56:05.264032,599616287734863415,-98.00
2025-12-25 15:56:05.264032,599616287734863415,-103.00
2025-12-25 15:56:05.264032,599616287734863415,-101.00
2025-12-25 15:56:05.264032,599616287734863415,-94.00
2025-12-25 15:56:05.264032,599616287734863415,-96.00
2025-12-25 15:56:05.264032,599616287734863415,-96.00
2025-12-25 15:56:05.264032,599616287734863415,-87.00
2025-12-25 15:56:05.264032,599616287734863415,-82.00
2025-12-25 15:56:05.264032,599616287734863415,-82.00
2025-12-25 15:56:05.264032,599616287734863415,-82.00
2025-12-25 15:56:05.264032,599616287734863415,-82.00
2025-12-25 15:56:05.264032,599616287734863415,-82.00
2025-12-25 15:56:05.264032,599616287734863415,-89.00
2025-12-25 15:56:05.264032,599616287734863415,-105.00
2025-12-25 15:56:05.264032,599616287734863415,-117.00
2025-12-25 15:56:05.264032,599616287734863415,-128.00
2025-12-25 15:56:05.264032,599616287734863415,-147.00
2025-12-25 15:56:05.264032,599616287734863415,-165.00
2025-12-25 15:56:05.264032,599616287734863415,-177.00
2025-12-25 15:56:05.264032,599616287734863415,-186.00
2025-12-25 15:56:05.264032,599616287734863415,-197.00
2025-12-25 15:56:05.264032,599616287734863415,-204.00
2025-12-25 15:56:05.264032,599616287734863415,-195.00
2025-12-25 15:56:05.264032,599616287734863415,-186.00
2025-12-25 15:56:05.264032,599616287734863415,-186.00
2025-12-25 15:56:05.264032,599616287734863415,-190.00
2025-12-25 15:56:05.264032,599616287734863415,-195.00
2025-12-25 15:56:05.264032,599616287734863415,-193.00
2025-12-25 15:56:05.264032,599616287734863415,-183.00
2025-12-25 15:56:05.264032,599616287734863415,-179.00
2025-12-25 15:56:05.264032,599616287734863415,-179.00
2025-12-25 15:56:05.264032,599616287734863415,-181.00
2025-12-25 15:56:05.264032,599616287734863415,-186.00
2025-12-25 15:56:05.264032,599616287734863415,-186.00
2025-12-25 15:56:05.264032,599616287734863415,-183.00
2025-12-25 15:56:05.264032,599616287734863415,-181.00
2025-12-25 15:56:05.264032,599616287734863415,-174.00
2025-12-25 15:56:05.264032,599616287734863415,-179.00
2025-12-25 15:56:05.264032,599616287734863415,-190.00
2025-12-25 15:56:05.264032,599616287734863415,-190.00
2025-12-25 15:56:05.264032,599616287734863415,-186.00
2025-12-25 15:56:05.264032,599616287734863415,-183.00
2025-12-25 15:56:05.264032,599616287734863415,-179.00
2025-12-25 15:56:05.264032,599616287734863415,-186.00
2025-12-25 15:56:05.264032,599616287734863415,-195.00
2025-12-25 15:56:05.966262,599616288295692700,-193.00
2025-12-25 15:56:05.966262,599616288295692700,-183.00
2025-12-25 15:56:05.966262,599616288295692700,-183.00
2025-12-25 15:56:05.966262,599616288295692700,-186.00
2025-12-25 15:56:05.966262,599616288295692700,-183.00
2025-12-25 15:56:05.966262,599616288295692700,-186.00
2025-12-25 15:56:05.966262,599616288295692700,-195.00
2025-12-25 15:56:05.966262,599616288295692700,-197.00
2025-12-25 15:56:05.966262,599616288295692700,-190.00
2025-12-25 15:56:05.966262,599616288295692700,-170.00
2025-12-25 15:56:05.966262,599616288295692700,-144.00
2025-12-25 15:56:05.966262,599616288295692700,-140.00
2025-12-25 15:56:05.966262,599616288295692700,-154.00
2025-12-25 15:56:05.966262,599616288295692700,-156.00
2025-12-25 15:56:05.966262,599616288295692700,-147.00
2025-12-25 15:56:05.966262,599616288295692700,-149.00
2025-12-25 15:56:05.966262,599616288295692700,-160.00
2025-12-25 15:56:05.966262,599616288295692700,-156.00
2025-12-25 15:56:05.966262,599616288295692700,-154.00
2025-12-25 15:56:05.966262,599616288295692700,-154.00
2025-12-25 15:56:05.966262,599616288295692700,-144.00
2025-12-25 15:56:05.966262,599616288295692700,-135.00
2025-12-25 15:56:05.966262,599616288295692700,-137.00
2025-12-25 15:56:05.966262,599616288295692700,-144.00
2025-12-25 15:56:05.966262,599616288295692700,-144.00
2025-12-25 15:56:05.966262,599616288295692700,-149.00
2025-12-25 15:56:05.966262,599616288295692700,-142.00
2025-12-25 15:56:05.966262,599616288295692700,-85.00
2025-12-25 15:56:05.966262,599616288295692700,64.00
2025-12-25 15:56:05.966262,599616288295692700,181.00
2025-12-25 15:56:05.966262,599616288295692700,-4.00
2025-12-25 15:56:05.966262,599616288295692700,-347.00
2025-12-25 15:56:05.966262,599616288295692700,-416.00
2025-12-25 15:56:05.966262,599616288295692700,-291.00
2025-12-25 15:56:05.966262,599616288295692700,-236.00
2025-12-25 15:56:05.966262,599616288295692700,-186.00
2025-12-25 15:56:05.966262,599616288295692700,-124.00
2025-12-25 15:56:05.966262,599616288295692700,-121.00
2025-12-25 15:56:05.966262,599616288295692700,-131.00
2025-12-25 15:56:05.966262,599616288295692700,-119.00
2025-12-25 15:56:05.966262,599616288295692700,-112.00
2025-12-25 15:56:05.966262,599616288295692700,-108.00
2025-12-25 15:56:05.966262,599616288295692700,-103.00
2025-12-25 15:56:05.966262,599616288295692700,-108.00
2025-12-25 15:56:05.966262,599616288295692700,-112.00
2025-12-25 15:56:05.966262,599616288295692700,-108.00
2025-12-25 15:56:05.966262,599616288295692700,-103.00
2025-12-25 15:56:05.966262,599616288295692700,-103.00
2025-12-25 15:56:05.966262,599616288295692700,-105.00
2025-12-25 15:56:05.966262,599616288295692700,-96.00
2025-12-25 15:56:05.966262,599616288295692700,-89.00
2025-12-25 15:56:05.966262,599616288295692700,-94.00
2025-12-25 15:56:05.966262,599616288295692700,-96.00
2025-12-25 15:56:05.966262,599616288295692700,-85.00
2025-12-25 15:56:05.966262,599616288295692700,-75.00
2025-12-25 15:56:05.966262,599616288295692700,-75.00
2025-12-25 15:56:05.966262,599616288295692700,-75.00
2025-12-25 15:56:05.966262,599616288295692700,-80.00
2025-12-25 15:56:05.966262,599616288295692700,-94.00
2025-12-25 15:56:05.966262,599616288295692700,-96.00
2025-12-25 15:56:05.966262,599616288295692700,-94.00
2025-12-25 15:56:05.966262,599616288295692700,-105.00
2025-12-25 15:56:05.966262,599616288295692700,-131.00
2025-12-25 15:56:05.966262,599616288295692700,-154.00
2025-12-25 15:56:05.966262,599616288295692700,-160.00
2025-12-25 15:56:05.966262,599616288295692700,-167.00
2025-12-25 15:56:05.966262,599616288295692700,-177.00
2025-12-25 15:56:05.966262,599616288295692700,-183.00
2025-12-25 15:56:05.966262,599616288295692700,-190.00
2025-12-25 15:56:05.966262,599616288295692700,-188.00
2025-12-25 15:56:05.966262,599616288295692700,-183.00
2025-12-25 15:56:05.966262,599616288295692700,-183.00
2025-12-25 15:56:05.966262,599616288295692700,-183.00
2025-12-25 15:56:06.317515,599616288856532159,-179.00
2025-12-25 15:56:06.317515,599616288856532159,-179.00
2025-12-25 15:56:06.317515,599616288856532159,-170.00
2025-12-25 15:56:06.317515,599616288856532159,-158.00
2025-12-25 15:56:06.317515,599616288856532159,-160.00
2025-12-25 15:56:06.317515,599616288856532159,-165.00
2025-12-25 15:56:06.317515,599616288856532159,-165.00
2025-12-25 15:56:06.317515,599616288856532159,-165.00
2025-12-25 15:56:06.317515,599616288856532159,-165.00
2025-12-25 15:56:06.317515,599616288856532159,-163.00
2025-12-25 15:56:06.317515,599616288856532159,-165.00
2025-12-25 15:56:06.317515,599616288856532159,-156.00
2025-12-25 15:56:06.317515,599616288856532159,-147.00
2025-12-25 15:56:06.317515,599616288856532159,-156.00
2025-12-25 15:56:06.317515,599616288856532159,-163.00
2025-12-25 15:56:06.317515,599616288856532159,-158.00
2025-12-25 15:56:06.317515,599616288856532159,-156.00
2025-12-25 15:56:06.317515,599616288856532159,-149.00
2025-12-25 15:56:06.317515,599616288856532159,-140.00
2025-12-25 15:56:06.317515,599616288856532159,-144.00
2025-12-25 15:56:06.317515,599616288856532159,-149.00
2025-12-25 15:56:06.317515,599616288856532159,-151.00
2025-12-25 15:56:06.317515,599616288856532159,-149.00
2025-12-25 15:56:06.317515,599616288856532159,-137.00
2025-12-25 15:56:06.317515,599616288856532159,-133.00
2025-12-25 15:56:06.317515,599616288856532159,-135.00
2025-12-25 15:56:06.317515,599616288856532159,-140.00
2025-12-25 15:56:06.317515,599616288856532159,-140.00
2025-12-25 15:56:06.317515,599616288856532159,-131.00
2025-12-25 15:56:06.317515,599616288856532159,-112.00
2025-12-25 15:56:06.317515,599616288856532159,-103.00
2025-12-25 15:56:06.317515,599616288856532159,-105.00
2025-12-25 15:56:06.317515,599616288856532159,-117.00
2025-12-25 15:56:06.317515,599616288856532159,-128.00
2025-12-25 15:56:06.317515,599616288856532159,-121.00
2025-12-25 15:56:06.317515,599616288856532159,-110.00
2025-12-25 15:56:06.317515,599616288856532159,-119.00
2025-12-25 15:56:06.317515,599616288856532159,-126.00
2025-12-25 15:56:06.317515,599616288856532159,-119.00
2025-12-25 15:56:06.317515,599616288856532159,-124.00
2025-12-25 15:56:06.317515,599616288856532159,-121.00
2025-12-25 15:56:06.317515,599616288856532159,-110.00
2025-12-25 15:56:06.317515,599616288856532159,-105.00
2025-12-25 15:56:06.317515,599616288856532159,-112.00
2025-12-25 15:56:06.317515,599616288856532159,-112.00
2025-12-25 15:56:06.317515,599616288856532159,-112.00
2025-12-25 15:56:06.317515,599616288856532159,-103.00
2025-12-25 15:56:06.317515,599616288856532159,-16.00
2025-12-25 15:56:06.317515,599616288856532159,156.00
2025-12-25 15:56:06.317515,599616288856532159,172.00
2025-12-25 15:56:06.317515,599616288856532159,-135.00
2025-12-25 15:56:06.317515,599616288856532159,-406.00
2025-12-25 15:56:06.317515,599616288856532159,-349.00
2025-12-25 15:56:06.317515,599616288856532159,-236.00
2025-12-25 15:56:06.317515,599616288856532159,-206.00
2025-12-25 15:56:06.317515,599616288856532159,-144.00
2025-12-25 15:56:06.317515,599616288856532159,-108.00
2025-12-25 15:56:06.317515,599616288856532159,-124.00
2025-12-25 15:56:06.317515,599616288856532159,-119.00
2025-12-25 15:56:06.317515,599616288856532159,-105.00
2025-12-25 15:56:06.317515,599616288856532159,-112.00
2025-12-25 15:56:06.317515,599616288856532159,-117.00
2025-12-25 15:56:06.317515,599616288856532159,-108.00
2025-12-25 15:56:06.317515,599616288856532159,-108.00
2025-12-25 15:56:06.317515,599616288856532159,-112.00
2025-12-25 15:56:06.317515,599616288856532159,-105.00
2025-12-25 15:56:06.317515,599616288856532159,-103.00
2025-12-25 15:56:06.317515,599616288856532159,-105.00
2025-12-25 15:56:06.317515,599616288856532159,-96.00
2025-12-25 15:56:06.317515,599616288856532159,-89.00
2025-12-25 15:56:06.317515,599616288856532159,-91.00
2025-12-25 15:56:06.317515,599616288856532159,-91.00
2025-12-25 15:56:06.317515,599616288856532159,-85.00
2025-12-25 15:56:06.869418,599616289417371616,-78.00
2025-12-25 15:56:06.869418,599616289417371616,-75.00
2025-12-25 15:56:06.869418,599616289417371616,-78.00
2025-12-25 15:56:06.869418,599616289417371616,-82.00
2025-12-25 15:56:06.869418,599616289417371616,-89.00
2025-12-25 15:56:06.869418,599616289417371616,-89.00
2025-12-25 15:56:06.869418,599616289417371616,-94.00
2025-12-25 15:56:06.869418,599616289417371616,-112.00
2025-12-25 15:56:06.869418,599616289417371616,-124.00
2025-12-25 15:56:06.869418,599616289417371616,-140.00
2025-12-25 15:56:06.869418,599616289417371616,-163.00
2025-12-25 15:56:06.869418,599616289417371616,-174.00
2025-12-25 15:56:06.869418,599616289417371616,-181.00
2025-12-25 15:56:06.869418,599616289417371616,-190.00
2025-12-25 15:56:06.869418,599616289417371616,-183.00
2025-12-25 15:56:06.869418,599616289417371616,-170.00
2025-12-25 15:56:06.869418,599616289417371616,-179.00
2025-12-25 15:56:06.869418,599616289417371616,-190.00
2025-12-25 15:56:06.869418,599616289417371616,-181.00
2025-12-25 15:56:06.869418,599616289417371616,-174.00
2025-12-25 15:56:06.869418,599616289417371616,-179.00
2025-12-25 15:56:06.869418,599616289417371616,-181.00
2025-12-25 15:56:06.869418,599616289417371616,-177.00
2025-12-25 15:56:06.869418,599616289417371616,-170.00
2025-12-25 15:56:06.869418,599616289417371616,-167.00
2025-12-25 15:56:06.869418,599616289417371616,-167.00
2025-12-25 15:56:06.869418,599616289417371616,-172.00
2025-12-25 15:56:06.869418,599616289417371616,-177.00
2025-12-25 15:56:06.869418,599616289417371616,-177.00
2025-12-25 15:56:06.869418,599616289417371616,-179.00
2025-12-25 15:56:06.869418,599616289417371616,-174.00
2025-12-25 15:56:06.869418,599616289417371616,-174.00
2025-12-25 15:56:06.869418,599616289417371616,-177.00
2025-12-25 15:56:06.869418,599616289417371616,-181.00
2025-12-25 15:56:06.869418,599616289417371616,-179.00
2025-12-25 15:56:06.869418,599616289417371616,-179.00
2025-12-25 15:56:06.869418,599616289417371616,-181.00
2025-12-25 15:56:06.869418,599616289417371616,-181.00
2025-12-25 15:56:06.869418,599616289417371616,-179.00
2025-12-25 15:56:06.869418,599616289417371616,-181.00
2025-12-25 15:56:06.869418,599616289417371616,-181.00
2025-12-25 15:56:06.869418,599616289417371616,-179.00
2025-12-25 15:56:06.869418,599616289417371616,-183.00
2025-12-25 15:56:06.869418,599616289417371616,-181.00
2025-12-25 15:56:06.869418,599616289417371616,-174.00
2025-12-25 15:56:06.869418,599616289417371616,-179.00
2025-12-25 15:56:06.869418,599616289417371616,-188.00
2025-12-25 15:56:06.869418,599616289417371616,-181.00
2025-12-25 15:56:06.869418,599616289417371616,-167.00
2025-12-25 15:56:06.869418,599616289417371616,-160.00
2025-12-25 15:56:06.869418,599616289417371616,-151.00
2025-12-25 15:56:06.869418,599616289417371616,-149.00
2025-12-25 15:56:06.869418,599616289417371616,-165.00
2025-12-25 15:56:06.869418,599616289417371616,-179.00
2025-12-25 15:56:06.869418,599616289417371616,-177.00
2025-12-25 15:56:06.869418,599616289417371616,-179.00
2025-12-25 15:56:06.869418,599616289417371616,-177.00
2025-12-25 15:56:06.869418,599616289417371616,-177.00
2025-12-25 15:56:06.869418,599616289417371616,-179.00
2025-12-25 15:56:06.869418,599616289417371616,-174.00
2025-12-25 15:56:06.869418,599616289417371616,-158.00
2025-12-25 15:56:06.869418,599616289417371616,-142.00
2025-12-25 15:56:06.869418,599616289417371616,-144.00
2025-12-25 15:56:06.869418,599616289417371616,-144.00
2025-12-25 15:56:06.869418,599616289417371616,-142.00
2025-12-25 15:56:06.869418,599616289417371616,-149.00
2025-12-25 15:56:06.869418,599616289417371616,-119.00
2025-12-25 15:56:06.869418,599616289417371616,13.00
2025-12-25 15:56:06.869418,599616289417371616,170.00
2025-12-25 15:56:06.869418,599616289417371616,52.00
2025-12-25 15:56:06.869418,599616289417371616,-303.00
2025-12-25 15:56:06.869418,599616289417371616,-439.00
2025-12-25 15:56:06.869418,599616289417371616,-328.00
2025-12-25 15:56:07.420968,599616289978200903,-271.00
2025-12-25 15:56:07.420968,599616289978200903,-227.00
2025-12-25 15:56:07.420968,599616289978200903,-140.00
2025-12-25 15:56:07.420968,599616289978200903,-126.00
2025-12-25 15:56:07.420968,599616289978200903,-151.00
2025-12-25 15:56:07.420968,599616289978200903,-133.00
2025-12-25 15:56:07.420968,599616289978200903,-119.00
2025-12-25 15:56:07.420968,599616289978200903,-128.00
2025-12-25 15:56:07.420968,599616289978200903,-126.00
2025-12-25 15:56:07.420968,599616289978200903,-121.00
2025-12-25 15:56:07.420968,599616289978200903,-126.00
2025-12-25 15:56:07.420968,599616289978200903,-119.00
2025-12-25 15:56:07.420968,599616289978200903,-101.00
2025-12-25 15:56:07.420968,599616289978200903,-94.00
2025-12-25 15:56:07.420968,599616289978200903,-96.00
2025-12-25 15:56:07.420968,599616289978200903,-96.00
2025-12-25 15:56:07.420968,599616289978200903,-98.00
2025-12-25 15:56:07.420968,599616289978200903,-91.00
2025-12-25 15:56:07.420968,599616289978200903,-85.00
2025-12-25 15:56:07.420968,599616289978200903,-87.00
2025-12-25 15:56:07.420968,599616289978200903,-85.00
2025-12-25 15:56:07.420968,599616289978200903,-78.00
2025-12-25 15:56:07.420968,599616289978200903,-82.00
2025-12-25 15:56:07.420968,599616289978200903,-89.00
2025-12-25 15:56:07.420968,599616289978200903,-89.00
2025-12-25 15:56:07.420968,599616289978200903,-91.00
2025-12-25 15:56:07.420968,599616289978200903,-105.00
2025-12-25 15:56:07.420968,599616289978200903,-114.00
2025-12-25 15:56:07.420968,599616289978200903,-126.00
2025-12-25 15:56:07.420968,599616289978200903,-142.00
2025-12-25 15:56:07.420968,599616289978200903,-163.00
2025-12-25 15:56:07.420968,599616289978200903,-181.00
2025-12-25 15:56:07.420968,599616289978200903,-186.00
2025-12-25 15:56:07.420968,599616289978200903,-190.00
2025-12-25 15:56:07.420968,599616289978200903,-202.00
2025-12-25 15:56:07.420968,599616289978200903,-202.00
2025-12-25 15:56:07.420968,599616289978200903,-195.00
2025-12-25 15:56:07.420968,599616289978200903,-197.00
2025-12-25 15:56:07.420968,599616289978200903,-200.00
2025-12-25 15:56:07.420968,599616289978200903,-200.00
2025-12-25 15:56:07.420968,599616289978200903,-193.00
2025-12-25 15:56:07.420968,599616289978200903,-186.00
2025-12-25 15:56:07.420968,599616289978200903,-186.00
2025-12-25 15:56:07.420968,599616289978200903,-190.00
2025-12-25 15:56:07.420968,599616289978200903,-188.00
2025-12-25 15:56:07.420968,599616289978200903,-186.00
2025-12-25 15:56:07.420968,599616289978200903,-188.00
2025-12-25 15:56:07.420968,599616289978200903,-188.00
2025-12-25 15:56:07.420968,599616289978200903,-183.00
2025-12-25 15:56:07.420968,599616289978200903,-183.00
2025-12-25 15:56:07.420968,599616289978200903,-188.00
2025-12-25 15:56:07.420968,599616289978200903,-193.00
2025-12-25 15:56:07.420968,599616289978200903,-190.00
2025-12-25 15:56:07.420968,599616289978200903,-177.00
2025-12-25 15:56:07.420968,599616289978200903,-174.00
2025-12-25 15:56:07.420968,599616289978200903,-181.00
2025-12-25 15:56:07.420968,599616289978200903,-186.00
2025-12-25 15:56:07.420968,599616289978200903,-179.00
2025-12-25 15:56:07.420968,599616289978200903,-174.00
2025-12-25 15:56:07.420968,599616289978200903,-181.00
2025-12-25 15:56:07.420968,599616289978200903,-183.00
2025-12-25 15:56:07.420968,599616289978200903,-183.00
2025-12-25 15:56:07.420968,599616289978200903,-188.00
2025-12-25 15:56:07.420968,599616289978200903,-186.00
2025-12-25 15:56:07.420968,599616289978200903,-181.00
2025-12-25 15:56:07.420968,599616289978200903,-177.00
2025-12-25 15:56:07.420968,599616289978200903,-165.00
2025-12-25 15:56:07.420968,599616289978200903,-151.00
2025-12-25 15:56:07.420968,599616289978200903,-154.00
2025-12-25 15:56:07.420968,599616289978200903,-170.00
2025-12-25 15:56:07.420968,599616289978200903,-177.00
2025-12-25 15:56:07.420968,599616289978200903,-172.00
2025-12-25 15:56:07.420968,599616289978200903,-179.00
2025-12-25 15:56:07.922156,599616290539050534,-183.00
2025-12-25 15:56:07.922156,599616290539050534,-179.00
2025-12-25 15:56:07.922156,599616290539050534,-181.00
2025-12-25 15:56:07.922156,599616290539050534,-186.00
2025-12-25 15:56:07.922156,599616290539050534,-174.00
2025-12-25 15:56:07.922156,599616290539050534,-160.00
2025-12-25 15:56:07.922156,599616290539050534,-156.00
2025-12-25 15:56:07.922156,599616290539050534,-154.00
2025-12-25 15:56:07.922156,599616290539050534,-151.00
2025-12-25 15:56:07.922156,599616290539050534,-142.00
2025-12-25 15:56:07.922156,599616290539050534,-108.00
2025-12-25 15:56:07.922156,599616290539050534,6.00
2025-12-25 15:56:07.922156,599616290539050534,167.00
2025-12-25 15:56:07.922156,599616290539050534,78.00
2025-12-25 15:56:07.922156,599616290539050534,-282.00
2025-12-25 15:56:07.922156,599616290539050534,-439.00
2025-12-25 15:56:07.922156,599616290539050534,-319.00
2025-12-25 15:56:07.922156,599616290539050534,-250.00
2025-12-25 15:56:07.922156,599616290539050534,-223.00
2025-12-25 15:56:07.922156,599616290539050534,-151.00
2025-12-25 15:56:07.922156,599616290539050534,-121.00
2025-12-25 15:56:07.922156,599616290539050534,-128.00
2025-12-25 15:56:07.922156,599616290539050534,-117.00
2025-12-25 15:56:07.922156,599616290539050534,-110.00
2025-12-25 15:56:07.922156,599616290539050534,-121.00
2025-12-25 15:56:07.922156,599616290539050534,-126.00
2025-12-25 15:56:07.922156,599616290539050534,-117.00
2025-12-25 15:56:07.922156,599616290539050534,-114.00
2025-12-25 15:56:07.922156,599616290539050534,-119.00
2025-12-25 15:56:07.922156,599616290539050534,-117.00
2025-12-25 15:56:07.922156,599616290539050534,-112.00
2025-12-25 15:56:07.922156,599616290539050534,-114.00
2025-12-25 15:56:07.922156,599616290539050534,-119.00
2025-12-25 15:56:07.922156,599616290539050534,-114.00
2025-12-25 15:56:07.922156,599616290539050534,-103.00
2025-12-25 15:56:07.922156,599616290539050534,-103.00
2025-12-25 15:56:07.922156,599616290539050534,-101.00
2025-12-25 15:56:07.922156,599616290539050534,-91.00
2025-12-25 15:56:07.922156,599616290539050534,-87.00
2025-12-25 15:56:07.922156,599616290539050534,-89.00
2025-12-25 15:56:07.922156,599616290539050534,-89.00
2025-12-25 15:56:07.922156,599616290539050534,-94.00
2025-12-25 15:56:07.922156,599616290539050534,-103.00
2025-12-25 15:56:07.922156,599616290539050534,-112.00
2025-12-25 15:56:07.922156,599616290539050534,-119.00
2025-12-25 15:56:07.922156,599616290539050534,-126.00
2025-12-25 15:56:07.922156,599616290539050534,-137.00
2025-12-25 15:56:07.922156,599616290539050534,-156.00
2025-12-25 15:56:07.922156,599616290539050534,-170.00
2025-12-25 15:56:07.922156,599616290539050534,-177.00
2025-12-25 15:56:07.922156,599616290539050534,-186.00
2025-12-25 15:56:07.922156,599616290539050534,-190.00
2025-12-25 15:56:07.922156,599616290539050534,-188.00
2025-12-25 15:56:07.922156,599616290539050534,-188.00
2025-12-25 15:56:07.922156,599616290539050534,-190.00
2025-12-25 15:56:07.922156,599616290539050534,-188.00
2025-12-25 15:56:07.922156,599616290539050534,-186.00
2025-12-25 15:56:07.922156,599616290539050534,-186.00
2025-12-25 15:56:07.922156,599616290539050534,-186.00
2025-12-25 15:56:07.922156,599616290539050534,-188.00
2025-12-25 15:56:07.922156,599616290539050534,-186.00
2025-12-25 15:56:07.922156,599616290539050534,-181.00
2025-12-25 15:56:07.922156,599616290539050534,-181.00
2025-12-25 15:56:07.922156,599616290539050534,-188.00
2025-12-25 15:56:07.922156,599616290539050534,-186.00
2025-12-25 15:56:07.922156,599616290539050534,-179.00
2025-12-25 15:56:07.922156,599616290539050534,-183.00
2025-12-25 15:56:07.922156,599616290539050534,-188.00
2025-12-25 15:56:07.922156,599616290539050534,-186.00
2025-12-25 15:56:07.922156,599616290539050534,-183.00
2025-12-25 15:56:07.922156,599616290539050534,-174.00
2025-12-25 15:56:07.922156,599616290539050534,-172.00
2025-12-25 15:56:07.922156,599616290539050534,-181.00
2025-12-25 15:56:08.623791,599616291099900167,-186.00
2025-12-25 15:56:08.623791,599616291099900167,-181.00
2025-12-25 15:56:08.623791,599616291099900167,-179.00
2025-12-25 15:56:08.623791,599616291099900167,-183.00
2025-12-25 15:56:08.623791,599616291099900167,-186.00
2025-12-25 15:56:08.623791,599616291099900167,-179.00
2025-12-25 15:56:08.623791,599616291099900167,-165.00
2025-12-25 15:56:08.623791,599616291099900167,-156.00
2025-12-25 15:56:08.623791,599616291099900167,-156.00
2025-12-25 15:56:08.623791,599616291099900167,-140.00
2025-12-25 15:56:08.623791,599616291099900167,-133.00
2025-12-25 15:56:08.623791,599616291099900167,-151.00
2025-12-25 15:56:08.623791,599616291099900167,-165.00
2025-12-25 15:56:08.623791,599616291099900167,-163.00
2025-12-25 15:56:08.623791,599616291099900167,-160.00
2025-12-25 15:56:08.623791,599616291099900167,-165.00
2025-12-25 15:56:08.623791,599616291099900167,-163.00
2025-12-25 15:56:08.623791,599616291099900167,-160.00
2025-12-25 15:56:08.623791,599616291099900167,-170.00
2025-12-25 15:56:08.623791,599616291099900167,-172.00
2025-12-25 15:56:08.623791,599616291099900167,-163.00
2025-12-25 15:56:08.623791,599616291099900167,-158.00
2025-12-25 15:56:08.623791,599616291099900167,-172.00
2025-12-25 15:56:08.623791,599616291099900167,-167.00
2025-12-25 15:56:08.623791,599616291099900167,-149.00
2025-12-25 15:56:08.623791,599616291099900167,-156.00
2025-12-25 15:56:08.623791,599616291099900167,-151.00
2025-12-25 15:56:08.623791,599616291099900167,-57.00
2025-12-25 15:56:08.623791,599616291099900167,131.00
2025-12-25 15:56:08.623791,599616291099900167,158.00
2025-12-25 15:56:08.623791,599616291099900167,-163.00
2025-12-25 15:56:08.623791,599616291099900167,-441.00
2025-12-25 15:56:08.623791,599616291099900167,-377.00
2025-12-25 15:56:08.623791,599616291099900167,-264.00
2025-12-25 15:56:08.623791,599616291099900167,-236.00
2025-12-25 15:56:08.623791,599616291099900167,-172.00
2025-12-25 15:56:08.623791,599616291099900167,-131.00
2025-12-25 15:56:08.623791,599616291099900167,-137.00
2025-12-25 15:56:08.623791,599616291099900167,-124.00
2025-12-25 15:56:08.623791,599616291099900167,-101.00
2025-12-25 15:56:08.623791,599616291099900167,-101.00
2025-12-25 15:56:08.623791,599616291099900167,-105.00
2025-12-25 15:56:08.623791,599616291099900167,-98.00
2025-12-25 15:56:08.623791,599616291099900167,-103.00
2025-12-25 15:56:08.623791,599616291099900167,-117.00
2025-12-25 15:56:08.623791,599616291099900167,-108.00
2025-12-25 15:56:08.623791,599616291099900167,-91.00
2025-12-25 15:56:08.623791,599616291099900167,-108.00
2025-12-25 15:56:08.623791,599616291099900167,-112.00
2025-12-25 15:56:08.623791,599616291099900167,-80.00
2025-12-25 15:56:08.623791,599616291099900167,-75.00
2025-12-25 15:56:08.623791,599616291099900167,-94.00
2025-12-25 15:56:08.623791,599616291099900167,-85.00
2025-12-25 15:56:08.623791,599616291099900167,-73.00
2025-12-25 15:56:08.623791,599616291099900167,-71.00
2025-12-25 15:56:08.623791,599616291099900167,-75.00
2025-12-25 15:56:08.623791,599616291099900167,-89.00
2025-12-25 15:56:08.623791,599616291099900167,-96.00
2025-12-25 15:56:08.623791,599616291099900167,-96.00
2025-12-25 15:56:08.623791,599616291099900167,-96.00
2025-12-25 15:56:08.623791,599616291099900167,-91.00
2025-12-25 15:56:08.623791,599616291099900167,-94.00
2025-12-25 15:56:08.623791,599616291099900167,-131.00
2025-12-25 15:56:08.623791,599616291099900167,-170.00
2025-12-25 15:56:08.623791,599616291099900167,-144.00
2025-12-25 15:56:08.623791,599616291099900167,-131.00
2025-12-25 15:56:08.623791,599616291099900167,-181.00
2025-12-25 15:56:08.623791,599616291099900167,-204.00
2025-12-25 15:56:08.623791,599616291099900167,-174.00
2025-12-25 15:56:08.623791,599616291099900167,-170.00
2025-12-25 15:56:08.623791,599616291099900167,-186.00
2025-12-25 15:56:08.623791,599616291099900167,-186.00
2025-12-25 15:56:08.623791,599616291099900167,-181.00
2025-12-25 15:56:09.275473,599616291660749798,-179.00
2025-12-25 15:56:09.275473,599616291660749798,-170.00
2025-12-25 15:56:09.275473,599616291660749798,-170.00
2025-12-25 15:56:09.275473,599616291660749798,-177.00
2025-12-25 15:56:09.275473,599616291660749798,-165.00
2025-12-25 15:56:09.275473,599616291660749798,-165.00
2025-12-25 15:56:09.275473,599616291660749798,-177.00
2025-12-25 15:56:09.275473,599616291660749798,-170.00
2025-12-25 15:56:09.275473,599616291660749798,-163.00
2025-12-25 15:56:09.275473,599616291660749798,-165.00
2025-12-25 15:56:09.275473,599616291660749798,-158.00
2025-12-25 15:56:09.275473,599616291660749798,-160.00
2025-12-25 15:56:09.275473,599616291660749798,-158.00
2025-12-25 15:56:09.275473,599616291660749798,-149.00
2025-12-25 15:56:09.275473,599616291660749798,-151.00
2025-12-25 15:56:09.275473,599616291660749798,-151.00
2025-12-25 15:56:09.275473,599616291660749798,-142.00
2025-12-25 15:56:09.275473,599616291660749798,-131.00
2025-12-25 15:56:09.275473,599616291660749798,-140.00
2025-12-25 15:56:09.275473,599616291660749798,-165.00
2025-12-25 15:56:09.275473,599616291660749798,-151.00
2025-12-25 15:56:09.275473,599616291660749798,-126.00
2025-12-25 15:56:09.275473,599616291660749798,-133.00
2025-12-25 15:56:09.275473,599616291660749798,-140.00
2025-12-25 15:56:09.275473,599616291660749798,-128.00
2025-12-25 15:56:09.275473,599616291660749798,-114.00
2025-12-25 15:56:09.275473,599616291660749798,-119.00
2025-12-25 15:56:09.275473,599616291660749798,-135.00
2025-12-25 15:56:09.275473,599616291660749798,-128.00
2025-12-25 15:56:09.275473,599616291660749798,-114.00
2025-12-25 15:56:09.275473,599616291660749798,-131.00
2025-12-25 15:56:09.275473,599616291660749798,-137.00
2025-12-25 15:56:09.275473,599616291660749798,-121.00
2025-12-25 15:56:09.275473,599616291660749798,-126.00
2025-12-25 15:56:09.275473,599616291660749798,-135.00
2025-12-25 15:56:09.275473,599616291660749798,-119.00
2025-12-25 15:56:09.275473,599616291660749798,-117.00
2025-12-25 15:56:09.275473,599616291660749798,-133.00
2025-12-25 15:56:09.275473,599616291660749798,-137.00
2025-12-25 15:56:09.275473,599616291660749798,-124.00
2025-12-25 15:56:09.275473,599616291660749798,-110.00
2025-12-25 15:56:09.275473,599616291660749798,-94.00
2025-12-25 15:56:09.275473,599616291660749798,11.00
2025-12-25 15:56:09.275473,599616291660749798,188.00
2025-12-25 15:56:09.275473,599616291660749798,154.00
2025-12-25 15:56:09.275473,599616291660749798,-186.00
2025-12-25 15:56:09.275473,599616291660749798,-406.00
2025-12-25 15:56:09.275473,599616291660749798,-331.00
2025-12-25 15:56:09.275473,599616291660749798,-241.00
2025-12-25 15:56:09.275473,599616291660749798,-183.00
2025-12-25 15:56:09.275473,599616291660749798,-96.00
2025-12-25 15:56:09.275473,599616291660749798,-75.00
2025-12-25 15:56:09.275473,599616291660749798,-110.00
2025-12-25 15:56:09.275473,599616291660749798,-105.00
2025-12-25 15:56:09.275473,599616291660749798,-85.00
2025-12-25 15:56:09.275473,599616291660749798,-94.00
2025-12-25 15:56:09.275473,599616291660749798,-98.00
2025-12-25 15:56:09.275473,599616291660749798,-91.00
2025-12-25 15:56:09.275473,599616291660749798,-91.00
2025-12-25 15:56:09.275473,599616291660749798,-94.00
2025-12-25 15:56:09.275473,599616291660749798,-91.00
2025-12-25 15:56:09.275473,599616291660749798,-87.00
2025-12-25 15:56:09.275473,599616291660749798,-91.00
2025-12-25 15:56:09.275473,599616291660749798,-110.00
2025-12-25 15:56:09.275473,599616291660749798,-108.00
2025-12-25 15:56:09.275473,599616291660749798,-73.00
2025-12-25 15:56:09.275473,599616291660749798,-66.00
2025-12-25 15:56:09.275473,599616291660749798,-91.00
2025-12-25 15:56:09.275473,599616291660749798,-91.00
2025-12-25 15:56:09.275473,599616291660749798,-75.00
2025-12-25 15:56:09.275473,599616291660749798,-75.00
2025-12-25 15:56:09.275473,599616291660749798,-80.00
2025-12-25 15:56:09.275473,599616291660749798,-82.00
2025-12-25 15:56:09.726797,599616292221584169,-85.00
2025-12-25 15:56:09.726797,599616292221584169,-94.00
2025-12-25 15:56:09.726797,599616292221584169,-110.00
2025-12-25 15:56:09.726797,599616292221584169,-119.00
2025-12-25 15:56:09.726797,599616292221584169,-128.00
2025-12-25 15:56:09.726797,599616292221584169,-140.00
2025-12-25 15:56:09.726797,599616292221584169,-156.00
2025-12-25 15:56:09.726797,599616292221584169,-165.00
2025-12-25 15:56:09.726797,599616292221584169,-170.00
2025-12-25 15:56:09.726797,599616292221584169,-174.00
2025-12-25 15:56:09.726797,599616292221584169,-179.00
2025-12-25 15:56:09.726797,599616292221584169,-177.00
2025-12-25 15:56:09.726797,599616292221584169,-167.00
2025-12-25 15:56:09.726797,599616292221584169,-167.00
2025-12-25 15:56:09.726797,599616292221584169,-165.00
2025-12-25 15:56:09.726797,599616292221584169,-160.00
2025-12-25 15:56:09.726797,599616292221584169,-163.00
2025-12-25 15:56:09.726797,599616292221584169,-160.00
2025-12-25 15:56:09.726797,599616292221584169,-144.00
2025-12-25 15:56:09.726797,599616292221584169,-135.00
2025-12-25 15:56:09.726797,599616292221584169,-144.00
2025-12-25 15:56:09.726797,599616292221584169,-154.00
2025-12-25 15:56:09.726797,599616292221584169,-158.00
2025-12-25 15:56:09.726797,599616292221584169,-149.00
2025-12-25 15:56:09.726797,599616292221584169,-142.00
2025-12-25 15:56:09.726797,599616292221584169,-151.00
2025-12-25 15:56:09.726797,599616292221584169,-154.00
2025-12-25 15:56:09.726797,599616292221584169,-144.00
2025-12-25 15:56:09.726797,599616292221584169,-144.00
2025-12-25 15:56:09.726797,599616292221584169,-147.00
2025-12-25 15:56:09.726797,599616292221584169,-135.00
2025-12-25 15:56:09.726797,599616292221584169,-124.00
2025-12-25 15:56:09.726797,599616292221584169,-140.00
2025-12-25 15:56:09.726797,599616292221584169,-151.00
2025-12-25 15:56:09.726797,599616292221584169,-137.00
2025-12-25 15:56:09.726797,599616292221584169,-128.00
2025-12-25 15:56:09.726797,599616292221584169,-124.00
2025-12-25 15:56:09.726797,599616292221584169,-114.00
2025-12-25 15:56:09.726797,599616292221584169,-110.00
2025-12-25 15:56:09.726797,599616292221584169,-103.00
2025-12-25 15:56:09.726797,599616292221584169,-108.00
2025-12-25 15:56:09.726797,599616292221584169,-131.00
2025-12-25 15:56:09.726797,599616292221584169,-142.00
2025-12-25 15:56:09.726797,599616292221584169,-133.00
2025-12-25 15:56:09.726797,599616292221584169,-126.00
2025-12-25 15:56:09.726797,599616292221584169,-128.00
2025-12-25 15:56:09.726797,599616292221584169,-131.00
2025-12-25 15:56:09.726797,599616292221584169,-131.00
2025-12-25 15:56:09.726797,599616292221584169,-131.00
2025-12-25 15:56:09.726797,599616292221584169,-131.00
2025-12-25 15:56:09.726797,599616292221584169,-126.00
2025-12-25 15:56:09.726797,599616292221584169,-131.00
2025-12-25 15:56:09.726797,599616292221584169,-137.00
2025-12-25 15:56:09.726797,599616292221584169,-135.00
2025-12-25 15:56:09.726797,599616292221584169,-131.00
2025-12-25 15:56:09.726797,599616292221584169,-101.00
2025-12-25 15:56:09.726797,599616292221584169,16.00
2025-12-25 15:56:09.726797,599616292221584169,167.00
2025-12-25 15:56:09.726797,599616292221584169,71.00
2025-12-25 15:56:09.726797,599616292221584169,-262.00
2025-12-25 15:56:09.726797,599616292221584169,-411.00
2025-12-25 15:56:09.726797,599616292221584169,-301.00
2025-12-25 15:56:09.726797,599616292221584169,-218.00
2025-12-25 15:56:09.726797,599616292221584169,-186.00
2025-12-25 15:56:09.726797,599616292221584169,-133.00
2025-12-25 15:56:09.726797,599616292221584169,-110.00
2025-12-25 15:56:09.726797,599616292221584169,-114.00
2025-12-25 15:56:09.726797,599616292221584169,-112.00
2025-12-25 15:56:09.726797,599616292221584169,-108.00
2025-12-25 15:56:09.726797,599616292221584169,-114.00
2025-12-25 15:56:09.726797,599616292221584169,-117.00
2025-12-25 15:56:09.726797,599616292221584169,-105.00
2025-12-25 15:56:09.726797,599616292221584169,-94.00
2025-12-25 15:56:10.177949,599616292782408368,-89.00
2025-12-25 15:56:10.177949,599616292782408368,-89.00
2025-12-25 15:56:10.177949,599616292782408368,-101.00
2025-12-25 15:56:10.177949,599616292782408368,-96.00
2025-12-25 15:56:10.177949,599616292782408368,-73.00
2025-12-25 15:56:10.177949,599616292782408368,-71.00
2025-12-25 15:56:10.177949,599616292782408368,-87.00
2025-12-25 15:56:10.177949,599616292782408368,-87.00
2025-12-25 15:56:10.177949,599616292782408368,-82.00
2025-12-25 15:56:10.177949,599616292782408368,-78.00
2025-12-25 15:56:10.177949,599616292782408368,-68.00
2025-12-25 15:56:10.177949,599616292782408368,-71.00
2025-12-25 15:56:10.177949,599616292782408368,-80.00
2025-12-25 15:56:10.177949,599616292782408368,-87.00
2025-12-25 15:56:10.177949,599616292782408368,-94.00
2025-12-25 15:56:10.177949,599616292782408368,-98.00
2025-12-25 15:56:10.177949,599616292782408368,-94.00
2025-12-25 15:56:10.177949,599616292782408368,-98.00
2025-12-25 15:56:10.177949,599616292782408368,-117.00
2025-12-25 15:56:10.177949,599616292782408368,-133.00
2025-12-25 15:56:10.177949,599616292782408368,-142.00
2025-12-25 15:56:10.177949,599616292782408368,-147.00
2025-12-25 15:56:10.177949,599616292782408368,-142.00
2025-12-25 15:56:10.177949,599616292782408368,-142.00
2025-12-25 15:56:10.177949,599616292782408368,-144.00
2025-12-25 15:56:10.177949,599616292782408368,-142.00
2025-12-25 15:56:10.177949,599616292782408368,-140.00
2025-12-25 15:56:10.177949,599616292782408368,-144.00
2025-12-25 15:56:10.177949,599616292782408368,-149.00
2025-12-25 15:56:10.177949,599616292782408368,-149.00
2025-12-25 15:56:10.177949,599616292782408368,-144.00
2025-12-25 15:56:10.177949,599616292782408368,-142.00
2025-12-25 15:56:10.177949,599616292782408368,-140.00
2025-12-25 15:56:10.177949,599616292782408368,-140.00
2025-12-25 15:56:10.177949,599616292782408368,-140.00
2025-12-25 15:56:10.177949,599616292782408368,-137.00
2025-12-25 15:56:10.177949,599616292782408368,-135.00
2025-12-25 15:56:10.177949,599616292782408368,-142.00
2025-12-25 15:56:10.177949,599616292782408368,-147.00
2025-12-25 15:56:10.177949,599616292782408368,-140.00
2025-12-25 15:56:10.177949,599616292782408368,-142.00
2025-12-25 15:56:10.177949,599616292782408368,-151.00
2025-12-25 15:56:10.177949,599616292782408368,-154.00
2025-12-25 15:56:10.177949,599616292782408368,-154.00
2025-12-25 15:56:10.177949,599616292782408368,-151.00
2025-12-25 15:56:10.177949,599616292782408368,-156.00
2025-12-25 15:56:10.177949,599616292782408368,-160.00
2025-12-25 15:56:10.177949,599616292782408368,-151.00
2025-12-25 15:56:10.177949,599616292782408368,-140.00
2025-12-25 15:56:10.177949,599616292782408368,-140.00
2025-12-25 15:56:10.177949,599616292782408368,-154.00
2025-12-25 15:56:10.177949,599616292782408368,-167.00
2025-12-25 15:56:10.177949,599616292782408368,-177.00
2025-12-25 15:56:10.177949,599616292782408368,-177.00
2025-12-25 15:56:10.177949,599616292782408368,-170.00
2025-12-25 15:56:10.177949,599616292782408368,-174.00
2025-12-25 15:56:10.177949,599616292782408368,-186.00
2025-12-25 15:56:10.177949,599616292782408368,-186.00
2025-12-25 15:56:10.177949,599616292782408368,-177.00
2025-12-25 15:56:10.177949,599616292782408368,-172.00
2025-12-25 15:56:10.177949,599616292782408368,-177.00
2025-12-25 15:56:10.177949,599616292782408368,-181.00
2025-12-25 15:56:10.177949,599616292782408368,-177.00
2025-12-25 15:56:10.177949,599616292782408368,-170.00
2025-12-25 15:56:10.177949,599616292782408368,-110.00
2025-12-25 15:56:10.177949,599616292782408368,66.00
2025-12-25 15:56:10.177949,599616292782408368,181.00
2025-12-25 15:56:10.177949,599616292782408368,-59.00
2025-12-25 15:56:10.177949,599616292782408368,-409.00
2025-12-25 15:56:10.177949,599616292782408368,-427.00
2025-12-25 15:56:10.177949,599616292782408368,-312.00
2025-12-25 15:56:10.177949,599616292782408368,-282.00
2025-12-25 15:56:10.177949,599616292782408368,-218.00
2025-12-25 15:56:10.729386,599616293343237655,-149.00
2025-12-25 15:56:10.729386,599616293343237655,-154.00
2025-12-25 15:56:10.729386,599616293343237655,-160.00
2025-12-25 15:56:10.729386,599616293343237655,-147.00
2025-12-25 15:56:10.729386,599616293343237655,-147.00
2025-12-25 15:56:10.729386,599616293343237655,-147.00
2025-12-25 15:56:10.729386,599616293343237655,-133.00
2025-12-25 15:56:10.729386,599616293343237655,-114.00
2025-12-25 15:56:10.729386,599616293343237655,-112.00
2025-12-25 15:56:10.729386,599616293343237655,-121.00
2025-12-25 15:56:10.729386,599616293343237655,-110.00
2025-12-25 15:56:10.729386,599616293343237655,-91.00
2025-12-25 15:56:10.729386,599616293343237655,-91.00
2025-12-25 15:56:10.729386,599616293343237655,-94.00
2025-12-25 15:56:10.729386,599616293343237655,-91.00
2025-12-25 15:56:10.729386,599616293343237655,-87.00
2025-12-25 15:56:10.729386,599616293343237655,-82.00
2025-12-25 15:56:10.729386,599616293343237655,-78.00
2025-12-25 15:56:10.729386,599616293343237655,-71.00
2025-12-25 15:56:10.729386,599616293343237655,-66.00
2025-12-25 15:56:10.729386,599616293343237655,-71.00
2025-12-25 15:56:10.729386,599616293343237655,-75.00
2025-12-25 15:56:10.729386,599616293343237655,-87.00
2025-12-25 15:56:10.729386,599616293343237655,-98.00
2025-12-25 15:56:10.729386,599616293343237655,-108.00
2025-12-25 15:56:10.729386,599616293343237655,-119.00
2025-12-25 15:56:10.729386,599616293343237655,-140.00
2025-12-25 15:56:10.729386,599616293343237655,-156.00
2025-12-25 15:56:10.729386,599616293343237655,-160.00
2025-12-25 15:56:10.729386,599616293343237655,-170.00
2025-12-25 15:56:10.729386,599616293343237655,-181.00
2025-12-25 15:56:10.729386,599616293343237655,-186.00
2025-12-25 15:56:10.729386,599616293343237655,-190.00
2025-12-25 15:56:10.729386,599616293343237655,-193.00
2025-12-25 15:56:10.729386,599616293343237655,-183.00
2025-12-25 15:56:10.729386,599616293343237655,-188.00
2025-12-25 15:56:10.729386,599616293343237655,-197.00
2025-12-25 15:56:10.729386,599616293343237655,-188.00
2025-12-25 15:56:10.729386,599616293343237655,-179.00
2025-12-25 15:56:10.729386,599616293343237655,-183.00
2025-12-25 15:56:10.729386,599616293343237655,-188.00
2025-12-25 15:56:10.729386,599616293343237655,-181.00
2025-12-25 15:56:10.729386,599616293343237655,-174.00
2025-12-25 15:56:10.729386,599616293343237655,-177.00
2025-12-25 15:56:10.729386,599616293343237655,-186.00
2025-12-25 15:56:10.729386,599616293343237655,-186.00
2025-12-25 15:56:10.729386,599616293343237655,-188.00
2025-12-25 15:56:10.729386,599616293343237655,-190.00
2025-12-25 15:56:10.729386,599616293343237655,-188.00
2025-12-25 15:56:10.729386,599616293343237655,-188.00
2025-12-25 15:56:10.729386,599616293343237655,-197.00
2025-12-25 15:56:10.729386,599616293343237655,-204.00
2025-12-25 15:56:10.729386,599616293343237655,-193.00
2025-12-25 15:56:10.729386,599616293343237655,-172.00
2025-12-25 15:56:10.729386,599616293343237655,-170.00
2025-12-25 15:56:10.729386,599616293343237655,-179.00
2025-12-25 15:56:10.729386,599616293343237655,-183.00
2025-12-25 15:56:10.729386,599616293343237655,-183.00
2025-12-25 15:56:10.729386,599616293343237655,-181.00
2025-12-25 15:56:10.729386,599616293343237655,-181.00
2025-12-25 15:56:10.729386,599616293343237655,-177.00
2025-12-25 15:56:10.729386,599616293343237655,-177.00
2025-12-25 15:56:10.729386,599616293343237655,-179.00
2025-12-25 15:56:10.729386,599616293343237655,-174.00
2025-12-25 15:56:10.729386,599616293343237655,-172.00
2025-12-25 15:56:10.729386,599616293343237655,-174.00
2025-12-25 15:56:10.729386,599616293343237655,-170.00
2025-12-25 15:56:10.729386,599616293343237655,-170.00
2025-12-25 15:56:10.729386,599616293343237655,-174.00
2025-12-25 15:56:10.729386,599616293343237655,-144.00
2025-12-25 15:56:10.729386,599616293343237655,-6.00
2025-12-25 15:56:10.729386,599616293343237655,181.00
2025-12-25 15:56:10.729386,599616293343237655,96.00
2025-12-25 15:56:11.367990,599616293904087284,-301.00
2025-12-25 15:56:11.367990,599616293904087284,-485.00
2025-12-25 15:56:11.367990,599616293904087284,-363.00
2025-12-25 15:56:11.367990,599616293904087284,-296.00
2025-12-25 15:56:11.367990,599616293904087284,-257.00
2025-12-25 15:56:11.367990,599616293904087284,-154.00
2025-12-25 15:56:11.367990,599616293904087284,-117.00
2025-12-25 15:56:11.367990,599616293904087284,-137.00
2025-12-25 15:56:11.367990,599616293904087284,-126.00
2025-12-25 15:56:11.367990,599616293904087284,-110.00
2025-12-25 15:56:11.367990,599616293904087284,-114.00
2025-12-25 15:56:11.367990,599616293904087284,-112.00
2025-12-25 15:56:11.367990,599616293904087284,-108.00
2025-12-25 15:56:11.367990,599616293904087284,-108.00
2025-12-25 15:56:11.367990,599616293904087284,-108.00
2025-12-25 15:56:11.367990,599616293904087284,-108.00
2025-12-25 15:56:11.367990,599616293904087284,-105.00
2025-12-25 15:56:11.367990,599616293904087284,-94.00
2025-12-25 15:56:11.367990,599616293904087284,-87.00
2025-12-25 15:56:11.367990,599616293904087284,-94.00
2025-12-25 15:56:11.367990,599616293904087284,-96.00
2025-12-25 15:56:11.367990,599616293904087284,-85.00
2025-12-25 15:56:11.367990,599616293904087284,-75.00
2025-12-25 15:56:11.367990,599616293904087284,-75.00
2025-12-25 15:56:11.367990,599616293904087284,-73.00
2025-12-25 15:56:11.367990,599616293904087284,-71.00
2025-12-25 15:56:11.367990,599616293904087284,-75.00
2025-12-25 15:56:11.367990,599616293904087284,-78.00
2025-12-25 15:56:11.367990,599616293904087284,-75.00
2025-12-25 15:56:11.367990,599616293904087284,-85.00
2025-12-25 15:56:11.367990,599616293904087284,-103.00
2025-12-25 15:56:11.367990,599616293904087284,-124.00
2025-12-25 15:56:11.367990,599616293904087284,-140.00
2025-12-25 15:56:11.367990,599616293904087284,-156.00
2025-12-25 15:56:11.367990,599616293904087284,-167.00
2025-12-25 15:56:11.367990,599616293904087284,-174.00
2025-12-25 15:56:11.367990,599616293904087284,-179.00
2025-12-25 15:56:11.367990,599616293904087284,-179.00
2025-12-25 15:56:11.367990,599616293904087284,-179.00
2025-12-25 15:56:11.367990,599616293904087284,-179.00
2025-12-25 15:56:11.367990,599616293904087284,-174.00
2025-12-25 15:56:11.367990,599616293904087284,-172.00
2025-12-25 15:56:11.367990,599616293904087284,-174.00
2025-12-25 15:56:11.367990,599616293904087284,-174.00
2025-12-25 15:56:11.367990,599616293904087284,-167.00
2025-12-25 15:56:11.367990,599616293904087284,-163.00
2025-12-25 15:56:11.367990,599616293904087284,-165.00
2025-12-25 15:56:11.367990,599616293904087284,-167.00
2025-12-25 15:56:11.367990,599616293904087284,-165.00
2025-12-25 15:56:11.367990,599616293904087284,-163.00
2025-12-25 15:56:11.367990,599616293904087284,-165.00
2025-12-25 15:56:11.367990,599616293904087284,-163.00
2025-12-25 15:56:11.367990,599616293904087284,-160.00
2025-12-25 15:56:11.367990,599616293904087284,-170.00
2025-12-25 15:56:11.367990,599616293904087284,-172.00
2025-12-25 15:56:11.367990,599616293904087284,-170.00
2025-12-25 15:56:11.367990,599616293904087284,-172.00
2025-12-25 15:56:11.367990,599616293904087284,-160.00
2025-12-25 15:56:11.367990,599616293904087284,-151.00
2025-12-25 15:56:11.367990,599616293904087284,-156.00
2025-12-25 15:56:11.367990,599616293904087284,-163.00
2025-12-25 15:56:11.367990,599616293904087284,-167.00
2025-12-25 15:56:11.367990,599616293904087284,-179.00
2025-12-25 15:56:11.367990,599616293904087284,-179.00
2025-12-25 15:56:11.367990,599616293904087284,-170.00
2025-12-25 15:56:11.367990,599616293904087284,-167.00
2025-12-25 15:56:11.367990,599616293904087284,-172.00
2025-12-25 15:56:11.367990,599616293904087284,-172.00
2025-12-25 15:56:11.367990,599616293904087284,-160.00
