Timestamp,Device Timestamp (ns),ECG Value (uV)
2025-12-25 16:59:20.152834,599620082062156778,-108.00
2025-12-25 16:59:20.152834,599620082062156778,-101.00
2025-12-25 16:59:20.152834,599620082062156778,-103.00
2025-12-25 16:59:20.152834,599620082062156778,-108.00
2025-12-25 16:59:20.152834,599620082062156778,-108.00
2025-12-25 16:59:20.152834,599620082062156778,-108.00
2025-12-25 16:59:20.152834,599620082062156778,-108.00
2025-12-25 16:59:20.152834,599620082062156778,-105.00
2025-12-25 16:59:20.152834,599620082062156778,-103.00
2025-12-25 16:59:20.152834,599620082062156778,-103.00
2025-12-25 16:59:20.152834,599620082062156778,-94.00
2025-12-25 16:59:20.152834,599620082062156778,-85.00
2025-12-25 16:59:20.152834,599620082062156778,-87.00
2025-12-25 16:59:20.152834,599620082062156778,-94.00
2025-12-25 16:59:20.152834,599620082062156778,-94.00
2025-12-25 16:59:20.152834,599620082062156778,-96.00
2025-12-25 16:59:20.152834,599620082062156778,-98.00
2025-12-25 16:59:20.152834,599620082062156778,-94.00
2025-12-25 16:59:20.152834,599620082062156778,-89.00
2025-12-25 16:59:20.152834,599620082062156778,-91.00
2025-12-25 16:59:20.152834,599620082062156778,-91.00
2025-12-25 16:59:20.152834,599620082062156778,-91.00
2025-12-25 16:59:20.152834,599620082062156778,-94.00
2025-12-25 16:59:20.152834,599620082062156778,-91.00
2025-12-25 16:59:20.152834,599620082062156778,-71.00
2025-12-25 16:59:20.152834,599620082062156778,-48.00
2025-12-25 16:59:20.152834,599620082062156778,-39.00
2025-12-25 16:59:20.152834,599620082062156778,-48.00
2025-12-25 16:59:20.152834,599620082062156778,-66.00
2025-12-25 16:59:20.152834,599620082062156778,-80.00
2025-12-25 16:59:20.152834,599620082062156778,-87.00
2025-12-25 16:59:20.152834,599620082062156778,-94.00
2025-12-25 16:59:20.152834,599620082062156778,-94.00
2025-12-25 16:59:20.152834,599620082062156778,-87.00
2025-12-25 16:59:20.152834,599620082062156778,-85.00
2025-12-25 16:59:20.152834,599620082062156778,-82.00
2025-12-25 16:59:20.152834,599620082062156778,-78.00
2025-12-25 16:59:20.152834,599620082062156778,-62.00
2025-12-25 16:59:20.152834,599620082062156778,36.00
2025-12-25 16:59:20.152834,599620082062156778,298.00
2025-12-25 16:59:20.152834,599620082062156778,593.00
2025-12-25 16:59:20.152834,599620082062156778,436.00
2025-12-25 16:59:20.152834,599620082062156778,-402.00
2025-12-25 16:59:20.152834,599620082062156778,-1041.00
2025-12-25 16:59:20.152834,599620082062156778,-733.00
2025-12-25 16:59:20.152834,599620082062156778,-232.00
2025-12-25 16:59:20.152834,599620082062156778,-131.00
2025-12-25 16:59:20.152834,599620082062156778,-87.00
2025-12-25 16:59:20.152834,599620082062156778,-13.00
2025-12-25 16:59:20.152834,599620082062156778,-32.00
2025-12-25 16:59:20.152834,599620082062156778,-41.00
2025-12-25 16:59:20.152834,599620082062156778,-9.00
2025-12-25 16:59:20.152834,599620082062156778,-2.00
2025-12-25 16:59:20.152834,599620082062156778,-9.00
2025-12-25 16:59:20.152834,599620082062156778,-2.00
2025-12-25 16:59:20.152834,599620082062156778,2.00
2025-12-25 16:59:20.152834,599620082062156778,0.00
2025-12-25 16:59:20.152834,599620082062156778,4.00
2025-12-25 16:59:20.152834,599620082062156778,9.00
2025-12-25 16:59:20.152834,599620082062156778,11.00
2025-12-25 16:59:20.152834,599620082062156778,13.00
2025-12-25 16:59:20.152834,599620082062156778,20.00
2025-12-25 16:59:20.152834,599620082062156778,25.00
2025-12-25 16:59:20.152834,599620082062156778,32.00
2025-12-25 16:59:20.152834,599620082062156778,43.00
2025-12-25 16:59:20.152834,599620082062156778,55.00
2025-12-25 16:59:20.152834,599620082062156778,59.00
2025-12-25 16:59:20.152834,599620082062156778,64.00
2025-12-25 16:59:20.152834,599620082062156778,75.00
2025-12-25 16:59:20.152834,599620082062156778,87.00
2025-12-25 16:59:20.152834,599620082062156778,91.00
2025-12-25 16:59:20.152834,599620082062156778,89.00
2025-12-25 16:59:20.152834,599620082062156778,85.00
2025-12-25 16:59:20.232188,599620082623042013,78.00
2025-12-25 16:59:20.232188,599620082623042013,66.00
2025-12-25 16:59:20.232188,599620082623042013,45.00
2025-12-25 16:59:20.232188,599620082623042013,13.00
2025-12-25 16:59:20.232188,599620082623042013,-22.00
2025-12-25 16:59:20.232188,599620082623042013,-57.00
2025-12-25 16:59:20.232188,599620082623042013,-82.00
2025-12-25 16:59:20.232188,599620082623042013,-103.00
2025-12-25 16:59:20.232188,599620082623042013,-117.00
2025-12-25 16:59:20.232188,599620082623042013,-126.00
2025-12-25 16:59:20.232188,599620082623042013,-131.00
2025-12-25 16:59:20.232188,599620082623042013,-133.00
2025-12-25 16:59:20.232188,599620082623042013,-128.00
2025-12-25 16:59:20.232188,599620082623042013,-112.00
2025-12-25 16:59:20.232188,599620082623042013,-98.00
2025-12-25 16:59:20.232188,599620082623042013,-98.00
2025-12-25 16:59:20.232188,599620082623042013,-101.00
2025-12-25 16:59:20.232188,599620082623042013,-94.00
2025-12-25 16:59:20.232188,599620082623042013,-82.00
2025-12-25 16:59:20.232188,599620082623042013,-68.00
2025-12-25 16:59:20.232188,599620082623042013,-57.00
2025-12-25 16:59:20.232188,599620082623042013,-57.00
2025-12-25 16:59:20.232188,599620082623042013,-64.00
2025-12-25 16:59:20.232188,599620082623042013,-57.00
2025-12-25 16:59:20.232188,599620082623042013,-48.00
2025-12-25 16:59:20.232188,599620082623042013,-50.00
2025-12-25 16:59:20.232188,599620082623042013,-52.00
2025-12-25 16:59:20.232188,599620082623042013,-55.00
2025-12-25 16:59:20.232188,599620082623042013,-59.00
2025-12-25 16:59:20.232188,599620082623042013,-64.00
2025-12-25 16:59:20.232188,599620082623042013,-66.00
2025-12-25 16:59:20.232188,599620082623042013,-66.00
2025-12-25 16:59:20.232188,599620082623042013,-71.00
2025-12-25 16:59:20.232188,599620082623042013,-80.00
2025-12-25 16:59:20.232188,599620082623042013,-82.00
2025-12-25 16:59:20.232188,599620082623042013,-80.00
2025-12-25 16:59:20.232188,599620082623042013,-82.00
2025-12-25 16:59:20.232188,599620082623042013,-80.00
2025-12-25 16:59:20.232188,599620082623042013,-78.00
2025-12-25 16:59:20.232188,599620082623042013,-85.00
2025-12-25 16:59:20.232188,599620082623042013,-89.00
2025-12-25 16:59:20.232188,599620082623042013,-87.00
2025-12-25 16:59:20.232188,599620082623042013,-89.00
2025-12-25 16:59:20.232188,599620082623042013,-91.00
2025-12-25 16:59:20.232188,599620082623042013,-89.00
2025-12-25 16:59:20.232188,599620082623042013,-91.00
2025-12-25 16:59:20.232188,599620082623042013,-96.00
2025-12-25 16:59:20.232188,599620082623042013,-98.00
2025-12-25 16:59:20.232188,599620082623042013,-96.00
2025-12-25 16:59:20.232188,599620082623042013,-96.00
2025-12-25 16:59:20.232188,599620082623042013,-98.00
2025-12-25 16:59:20.232188,599620082623042013,-103.00
2025-12-25 16:59:20.232188,599620082623042013,-108.00
2025-12-25 16:59:20.232188,599620082623042013,-110.00
2025-12-25 16:59:20.232188,599620082623042013,-110.00
2025-12-25 16:59:20.232188,599620082623042013,-105.00
2025-12-25 16:59:20.232188,599620082623042013,-101.00
2025-12-25 16:59:20.232188,599620082623042013,-103.00
2025-12-25 16:59:20.232188,599620082623042013,-103.00
2025-12-25 16:59:20.232188,599620082623042013,-96.00
2025-12-25 16:59:20.232188,599620082623042013,-82.00
2025-12-25 16:59:20.232188,599620082623042013,-68.00
2025-12-25 16:59:20.232188,599620082623042013,-55.00
2025-12-25 16:59:20.232188,599620082623042013,-62.00
2025-12-25 16:59:20.232188,599620082623042013,-89.00
2025-12-25 16:59:20.232188,599620082623042013,-103.00
2025-12-25 16:59:20.232188,599620082623042013,-101.00
2025-12-25 16:59:20.232188,599620082623042013,-105.00
2025-12-25 16:59:20.232188,599620082623042013,-110.00
2025-12-25 16:59:20.232188,599620082623042013,-110.00
2025-12-25 16:59:20.232188,599620082623042013,-112.00
2025-12-25 16:59:20.232188,599620082623042013,-117.00
2025-12-25 16:59:20.232188,599620082623042013,-112.00
2025-12-25 16:59:20.534550,599620083183906904,-91.00
2025-12-25 16:59:20.534550,599620083183906904,2.00
2025-12-25 16:59:20.534550,599620083183906904,262.00
2025-12-25 16:59:20.534550,599620083183906904,556.00
2025-12-25 16:59:20.534550,599620083183906904,400.00
2025-12-25 16:59:20.534550,599620083183906904,-441.00
2025-12-25 16:59:20.534550,599620083183906904,-1066.00
2025-12-25 16:59:20.534550,599620083183906904,-721.00
2025-12-25 16:59:20.534550,599620083183906904,-202.00
2025-12-25 16:59:20.534550,599620083183906904,-117.00
2025-12-25 16:59:20.534550,599620083183906904,-80.00
2025-12-25 16:59:20.534550,599620083183906904,6.00
2025-12-25 16:59:20.534550,599620083183906904,-6.00
2025-12-25 16:59:20.534550,599620083183906904,-22.00
2025-12-25 16:59:20.534550,599620083183906904,9.00
2025-12-25 16:59:20.534550,599620083183906904,18.00
2025-12-25 16:59:20.534550,599620083183906904,18.00
2025-12-25 16:59:20.534550,599620083183906904,41.00
2025-12-25 16:59:20.534550,599620083183906904,50.00
2025-12-25 16:59:20.534550,599620083183906904,39.00
2025-12-25 16:59:20.534550,599620083183906904,39.00
2025-12-25 16:59:20.534550,599620083183906904,50.00
2025-12-25 16:59:20.534550,599620083183906904,57.00
2025-12-25 16:59:20.534550,599620083183906904,66.00
2025-12-25 16:59:20.534550,599620083183906904,71.00
2025-12-25 16:59:20.534550,599620083183906904,68.00
2025-12-25 16:59:20.534550,599620083183906904,68.00
2025-12-25 16:59:20.534550,599620083183906904,75.00
2025-12-25 16:59:20.534550,599620083183906904,89.00
2025-12-25 16:59:20.534550,599620083183906904,103.00
2025-12-25 16:59:20.534550,599620083183906904,110.00
2025-12-25 16:59:20.534550,599620083183906904,110.00
2025-12-25 16:59:20.534550,599620083183906904,110.00
2025-12-25 16:59:20.534550,599620083183906904,112.00
2025-12-25 16:59:20.534550,599620083183906904,114.00
2025-12-25 16:59:20.534550,599620083183906904,110.00
2025-12-25 16:59:20.534550,599620083183906904,98.00
2025-12-25 16:59:20.534550,599620083183906904,85.00
2025-12-25 16:59:20.534550,599620083183906904,57.00
2025-12-25 16:59:20.534550,599620083183906904,20.00
2025-12-25 16:59:20.534550,599620083183906904,-11.00
2025-12-25 16:59:20.534550,599620083183906904,-41.00
2025-12-25 16:59:20.534550,599620083183906904,-68.00
2025-12-25 16:59:20.534550,599620083183906904,-91.00
2025-12-25 16:59:20.534550,599620083183906904,-108.00
2025-12-25 16:59:20.534550,599620083183906904,-119.00
2025-12-25 16:59:20.534550,599620083183906904,-121.00
2025-12-25 16:59:20.534550,599620083183906904,-117.00
2025-12-25 16:59:20.534550,599620083183906904,-114.00
2025-12-25 16:59:20.534550,599620083183906904,-119.00
2025-12-25 16:59:20.534550,599620083183906904,-119.00
2025-12-25 16:59:20.534550,599620083183906904,-119.00
2025-12-25 16:59:20.534550,599620083183906904,-117.00
2025-12-25 16:59:20.534550,599620083183906904,-114.00
2025-12-25 16:59:20.534550,599620083183906904,-112.00
2025-12-25 16:59:20.534550,599620083183906904,-112.00
2025-12-25 16:59:20.534550,599620083183906904,-110.00
2025-12-25 16:59:20.534550,599620083183906904,-108.00
2025-12-25 16:59:20.534550,599620083183906904,-105.00
2025-12-25 16:59:20.534550,599620083183906904,-103.00
2025-12-25 16:59:20.534550,599620083183906904,-101.00
2025-12-25 16:59:20.534550,599620083183906904,-101.00
2025-12-25 16:59:20.534550,599620083183906904,-105.00
2025-12-25 16:59:20.534550,599620083183906904,-108.00
2025-12-25 16:59:20.534550,599620083183906904,-103.00
2025-12-25 16:59:20.534550,599620083183906904,-101.00
2025-12-25 16:59:20.534550,599620083183906904,-101.00
2025-12-25 16:59:20.534550,599620083183906904,-105.00
2025-12-25 16:59:20.534550,599620083183906904,-110.00
2025-12-25 16:59:20.534550,599620083183906904,-110.00
2025-12-25 16:59:20.534550,599620083183906904,-112.00
2025-12-25 16:59:20.534550,599620083183906904,-114.00
2025-12-25 16:59:20.534550,599620083183906904,-114.00
2025-12-25 16:59:21.082886,599620083744787053,-110.00
2025-12-25 16:59:21.082886,599620083744787053,-114.00
2025-12-25 16:59:21.082886,599620083744787053,-114.00
2025-12-25 16:59:21.082886,599620083744787053,-105.00
2025-12-25 16:59:21.082886,599620083744787053,-101.00
2025-12-25 16:59:21.082886,599620083744787053,-101.00
2025-12-25 16:59:21.082886,599620083744787053,-101.00
2025-12-25 16:59:21.082886,599620083744787053,-96.00
2025-12-25 16:59:21.082886,599620083744787053,-89.00
2025-12-25 16:59:21.082886,599620083744787053,-80.00
2025-12-25 16:59:21.082886,599620083744787053,-82.00
2025-12-25 16:59:21.082886,599620083744787053,-87.00
2025-12-25 16:59:21.082886,599620083744787053,-87.00
2025-12-25 16:59:21.082886,599620083744787053,-87.00
2025-12-25 16:59:21.082886,599620083744787053,-80.00
2025-12-25 16:59:21.082886,599620083744787053,-71.00
2025-12-25 16:59:21.082886,599620083744787053,-75.00
2025-12-25 16:59:21.082886,599620083744787053,-82.00
2025-12-25 16:59:21.082886,599620083744787053,-80.00
2025-12-25 16:59:21.082886,599620083744787053,-82.00
2025-12-25 16:59:21.082886,599620083744787053,-85.00
2025-12-25 16:59:21.082886,599620083744787053,-87.00
2025-12-25 16:59:21.082886,599620083744787053,-91.00
2025-12-25 16:59:21.082886,599620083744787053,-85.00
2025-12-25 16:59:21.082886,599620083744787053,-75.00
2025-12-25 16:59:21.082886,599620083744787053,-66.00
2025-12-25 16:59:21.082886,599620083744787053,-48.00
2025-12-25 16:59:21.082886,599620083744787053,-48.00
2025-12-25 16:59:21.082886,599620083744787053,-75.00
2025-12-25 16:59:21.082886,599620083744787053,-94.00
2025-12-25 16:59:21.082886,599620083744787053,-89.00
2025-12-25 16:59:21.082886,599620083744787053,-91.00
2025-12-25 16:59:21.082886,599620083744787053,-98.00
2025-12-25 16:59:21.082886,599620083744787053,-101.00
2025-12-25 16:59:21.082886,599620083744787053,-103.00
2025-12-25 16:59:21.082886,599620083744787053,-103.00
2025-12-25 16:59:21.082886,599620083744787053,-105.00
2025-12-25 16:59:21.082886,599620083744787053,-91.00
2025-12-25 16:59:21.082886,599620083744787053,-9.00
2025-12-25 16:59:21.082886,599620083744787053,220.00
2025-12-25 16:59:21.082886,599620083744787053,521.00
2025-12-25 16:59:21.082886,599620083744787053,455.00
2025-12-25 16:59:21.082886,599620083744787053,-319.00
2025-12-25 16:59:21.082886,599620083744787053,-1039.00
2025-12-25 16:59:21.082886,599620083744787053,-795.00
2025-12-25 16:59:21.082886,599620083744787053,-236.00
2025-12-25 16:59:21.082886,599620083744787053,-110.00
2025-12-25 16:59:21.082886,599620083744787053,-98.00
2025-12-25 16:59:21.082886,599620083744787053,-25.00
2025-12-25 16:59:21.082886,599620083744787053,-29.00
2025-12-25 16:59:21.082886,599620083744787053,-43.00
2025-12-25 16:59:21.082886,599620083744787053,-18.00
2025-12-25 16:59:21.082886,599620083744787053,-11.00
2025-12-25 16:59:21.082886,599620083744787053,-16.00
2025-12-25 16:59:21.082886,599620083744787053,-6.00
2025-12-25 16:59:21.082886,599620083744787053,2.00
2025-12-25 16:59:21.082886,599620083744787053,2.00
2025-12-25 16:59:21.082886,599620083744787053,2.00
2025-12-25 16:59:21.082886,599620083744787053,4.00
2025-12-25 16:59:21.082886,599620083744787053,9.00
2025-12-25 16:59:21.082886,599620083744787053,16.00
2025-12-25 16:59:21.082886,599620083744787053,22.00
2025-12-25 16:59:21.082886,599620083744787053,22.00
2025-12-25 16:59:21.082886,599620083744787053,27.00
2025-12-25 16:59:21.082886,599620083744787053,32.00
2025-12-25 16:59:21.082886,599620083744787053,39.00
2025-12-25 16:59:21.082886,599620083744787053,45.00
2025-12-25 16:59:21.082886,599620083744787053,57.00
2025-12-25 16:59:21.082886,599620083744787053,68.00
2025-12-25 16:59:21.082886,599620083744787053,82.00
2025-12-25 16:59:21.082886,599620083744787053,91.00
2025-12-25 16:59:21.082886,599620083744787053,94.00
2025-12-25 16:59:21.082886,599620083744787053,94.00
2025-12-25 16:59:21.845370,599620084305667200,85.00
2025-12-25 16:59:21.845370,599620084305667200,66.00
2025-12-25 16:59:21.845370,599620084305667200,41.00
2025-12-25 16:59:21.845370,599620084305667200,13.00
2025-12-25 16:59:21.845370,599620084305667200,-16.00
2025-12-25 16:59:21.845370,599620084305667200,-41.00
2025-12-25 16:59:21.845370,599620084305667200,-59.00
2025-12-25 16:59:21.845370,599620084305667200,-80.00
2025-12-25 16:59:21.845370,599620084305667200,-98.00
2025-12-25 16:59:21.845370,599620084305667200,-105.00
2025-12-25 16:59:21.845370,599620084305667200,-110.00
2025-12-25 16:59:21.845370,599620084305667200,-101.00
2025-12-25 16:59:21.845370,599620084305667200,-89.00
2025-12-25 16:59:21.845370,599620084305667200,-96.00
2025-12-25 16:59:21.845370,599620084305667200,-101.00
2025-12-25 16:59:21.845370,599620084305667200,-96.00
2025-12-25 16:59:21.845370,599620084305667200,-96.00
2025-12-25 16:59:21.845370,599620084305667200,-94.00
2025-12-25 16:59:21.845370,599620084305667200,-91.00
2025-12-25 16:59:21.845370,599620084305667200,-89.00
2025-12-25 16:59:21.845370,599620084305667200,-89.00
2025-12-25 16:59:21.845370,599620084305667200,-87.00
2025-12-25 16:59:21.845370,599620084305667200,-85.00
2025-12-25 16:59:21.845370,599620084305667200,-85.00
2025-12-25 16:59:21.845370,599620084305667200,-85.00
2025-12-25 16:59:21.845370,599620084305667200,-82.00
2025-12-25 16:59:21.845370,599620084305667200,-87.00
2025-12-25 16:59:21.845370,599620084305667200,-89.00
2025-12-25 16:59:21.845370,599620084305667200,-85.00
2025-12-25 16:59:21.845370,599620084305667200,-80.00
2025-12-25 16:59:21.845370,599620084305667200,-85.00
2025-12-25 16:59:21.845370,599620084305667200,-87.00
2025-12-25 16:59:21.845370,599620084305667200,-89.00
2025-12-25 16:59:21.845370,599620084305667200,-91.00
2025-12-25 16:59:21.845370,599620084305667200,-94.00
2025-12-25 16:59:21.845370,599620084305667200,-94.00
2025-12-25 16:59:21.845370,599620084305667200,-98.00
2025-12-25 16:59:21.845370,599620084305667200,-101.00
2025-12-25 16:59:21.845370,599620084305667200,-105.00
2025-12-25 16:59:21.845370,599620084305667200,-108.00
2025-12-25 16:59:21.845370,599620084305667200,-105.00
2025-12-25 16:59:21.845370,599620084305667200,-101.00
2025-12-25 16:59:21.845370,599620084305667200,-101.00
2025-12-25 16:59:21.845370,599620084305667200,-105.00
2025-12-25 16:59:21.845370,599620084305667200,-108.00
2025-12-25 16:59:21.845370,599620084305667200,-108.00
2025-12-25 16:59:21.845370,599620084305667200,-108.00
2025-12-25 16:59:21.845370,599620084305667200,-105.00
2025-12-25 16:59:21.845370,599620084305667200,-108.00
2025-12-25 16:59:21.845370,599620084305667200,-110.00
2025-12-25 16:59:21.845370,599620084305667200,-112.00
2025-12-25 16:59:21.845370,599620084305667200,-112.00
2025-12-25 16:59:21.845370,599620084305667200,-110.00
2025-12-25 16:59:21.845370,599620084305667200,-110.00
2025-12-25 16:59:21.845370,599620084305667200,-112.00
2025-12-25 16:59:21.845370,599620084305667200,-114.00
2025-12-25 16:59:21.845370,599620084305667200,-119.00
2025-12-25 16:59:21.845370,599620084305667200,-114.00
2025-12-25 16:59:21.845370,599620084305667200,-110.00
2025-12-25 16:59:21.845370,599620084305667200,-114.00
2025-12-25 16:59:21.845370,599620084305667200,-114.00
2025-12-25 16:59:21.845370,599620084305667200,-98.00
2025-12-25 16:59:21.845370,599620084305667200,-82.00
2025-12-25 16:59:21.845370,599620084305667200,-71.00
2025-12-25 16:59:21.845370,599620084305667200,-59.00
2025-12-25 16:59:21.845370,599620084305667200,-71.00
2025-12-25 16:59:21.845370,599620084305667200,-101.00
2025-12-25 16:59:21.845370,599620084305667200,-110.00
2025-12-25 16:59:21.845370,599620084305667200,-110.00
2025-12-25 16:59:21.845370,599620084305667200,-117.00
2025-12-25 16:59:21.845370,599620084305667200,-114.00
2025-12-25 16:59:21.845370,599620084305667200,-108.00
2025-12-25 16:59:21.845370,599620084305667200,-108.00
2025-12-25 16:59:22.266174,599620084866552439,-112.00
2025-12-25 16:59:22.266174,599620084866552439,-110.00
2025-12-25 16:59:22.266174,599620084866552439,-82.00
2025-12-25 16:59:22.266174,599620084866552439,41.00
2025-12-25 16:59:22.266174,599620084866552439,324.00
2025-12-25 16:59:22.266174,599620084866552439,565.00
2025-12-25 16:59:22.266174,599620084866552439,245.00
2025-12-25 16:59:22.266174,599620084866552439,-657.00
2025-12-25 16:59:22.266174,599620084866552439,-1092.00
2025-12-25 16:59:22.266174,599620084866552439,-602.00
2025-12-25 16:59:22.266174,599620084866552439,-142.00
2025-12-25 16:59:22.266174,599620084866552439,-117.00
2025-12-25 16:59:22.266174,599620084866552439,-89.00
2025-12-25 16:59:22.266174,599620084866552439,-25.00
2025-12-25 16:59:22.266174,599620084866552439,-32.00
2025-12-25 16:59:22.266174,599620084866552439,-22.00
2025-12-25 16:59:22.266174,599620084866552439,2.00
2025-12-25 16:59:22.266174,599620084866552439,2.00
2025-12-25 16:59:22.266174,599620084866552439,2.00
2025-12-25 16:59:22.266174,599620084866552439,13.00
2025-12-25 16:59:22.266174,599620084866552439,20.00
2025-12-25 16:59:22.266174,599620084866552439,22.00
2025-12-25 16:59:22.266174,599620084866552439,27.00
2025-12-25 16:59:22.266174,599620084866552439,29.00
2025-12-25 16:59:22.266174,599620084866552439,29.00
2025-12-25 16:59:22.266174,599620084866552439,39.00
2025-12-25 16:59:22.266174,599620084866552439,55.00
2025-12-25 16:59:22.266174,599620084866552439,68.00
2025-12-25 16:59:22.266174,599620084866552439,64.00
2025-12-25 16:59:22.266174,599620084866552439,64.00
2025-12-25 16:59:22.266174,599620084866552439,71.00
2025-12-25 16:59:22.266174,599620084866552439,82.00
2025-12-25 16:59:22.266174,599620084866552439,98.00
2025-12-25 16:59:22.266174,599620084866552439,110.00
2025-12-25 16:59:22.266174,599620084866552439,112.00
2025-12-25 16:59:22.266174,599620084866552439,110.00
2025-12-25 16:59:22.266174,599620084866552439,112.00
2025-12-25 16:59:22.266174,599620084866552439,108.00
2025-12-25 16:59:22.266174,599620084866552439,94.00
2025-12-25 16:59:22.266174,599620084866552439,80.00
2025-12-25 16:59:22.266174,599620084866552439,55.00
2025-12-25 16:59:22.266174,599620084866552439,16.00
2025-12-25 16:59:22.266174,599620084866552439,-22.00
2025-12-25 16:59:22.266174,599620084866552439,-50.00
2025-12-25 16:59:22.266174,599620084866552439,-73.00
2025-12-25 16:59:22.266174,599620084866552439,-94.00
2025-12-25 16:59:22.266174,599620084866552439,-108.00
2025-12-25 16:59:22.266174,599620084866552439,-112.00
2025-12-25 16:59:22.266174,599620084866552439,-119.00
2025-12-25 16:59:22.266174,599620084866552439,-121.00
2025-12-25 16:59:22.266174,599620084866552439,-119.00
2025-12-25 16:59:22.266174,599620084866552439,-117.00
2025-12-25 16:59:22.266174,599620084866552439,-110.00
2025-12-25 16:59:22.266174,599620084866552439,-105.00
2025-12-25 16:59:22.266174,599620084866552439,-98.00
2025-12-25 16:59:22.266174,599620084866552439,-89.00
2025-12-25 16:59:22.266174,599620084866552439,-89.00
2025-12-25 16:59:22.266174,599620084866552439,-94.00
2025-12-25 16:59:22.266174,599620084866552439,-91.00
2025-12-25 16:59:22.266174,599620084866552439,-85.00
2025-12-25 16:59:22.266174,599620084866552439,-87.00
2025-12-25 16:59:22.266174,599620084866552439,-87.00
2025-12-25 16:59:22.266174,599620084866552439,-82.00
2025-12-25 16:59:22.266174,599620084866552439,-82.00
2025-12-25 16:59:22.266174,599620084866552439,-87.00
2025-12-25 16:59:22.266174,599620084866552439,-89.00
2025-12-25 16:59:22.266174,599620084866552439,-89.00
2025-12-25 16:59:22.266174,599620084866552439,-89.00
2025-12-25 16:59:22.266174,599620084866552439,-89.00
2025-12-25 16:59:22.266174,599620084866552439,-94.00
2025-12-25 16:59:22.266174,599620084866552439,-101.00
2025-12-25 16:59:22.266174,599620084866552439,-103.00
2025-12-25 16:59:22.266174,599620084866552439,-103.00
2025-12-25 16:59:22.838210,599620085427427502,-101.00
2025-12-25 16:59:22.838210,599620085427427502,-101.00
2025-12-25 16:59:22.838210,599620085427427502,-105.00
2025-12-25 16:59:22.838210,599620085427427502,-108.00
2025-12-25 16:59:22.838210,599620085427427502,-105.00
2025-12-25 16:59:22.838210,599620085427427502,-105.00
2025-12-25 16:59:22.838210,599620085427427502,-105.00
2025-12-25 16:59:22.838210,599620085427427502,-103.00
2025-12-25 16:59:22.838210,599620085427427502,-103.00
2025-12-25 16:59:22.838210,599620085427427502,-101.00
2025-12-25 16:59:22.838210,599620085427427502,-101.00
2025-12-25 16:59:22.838210,599620085427427502,-96.00
2025-12-25 16:59:22.838210,599620085427427502,-82.00
2025-12-25 16:59:22.838210,599620085427427502,-78.00
2025-12-25 16:59:22.838210,599620085427427502,-85.00
2025-12-25 16:59:22.838210,599620085427427502,-87.00
2025-12-25 16:59:22.838210,599620085427427502,-85.00
2025-12-25 16:59:22.838210,599620085427427502,-80.00
2025-12-25 16:59:22.838210,599620085427427502,-66.00
2025-12-25 16:59:22.838210,599620085427427502,-68.00
2025-12-25 16:59:22.838210,599620085427427502,-78.00
2025-12-25 16:59:22.838210,599620085427427502,-78.00
2025-12-25 16:59:22.838210,599620085427427502,-71.00
2025-12-25 16:59:22.838210,599620085427427502,-62.00
2025-12-25 16:59:22.838210,599620085427427502,-50.00
2025-12-25 16:59:22.838210,599620085427427502,-39.00
2025-12-25 16:59:22.838210,599620085427427502,-50.00
2025-12-25 16:59:22.838210,599620085427427502,-78.00
2025-12-25 16:59:22.838210,599620085427427502,-91.00
2025-12-25 16:59:22.838210,599620085427427502,-89.00
2025-12-25 16:59:22.838210,599620085427427502,-91.00
2025-12-25 16:59:22.838210,599620085427427502,-96.00
2025-12-25 16:59:22.838210,599620085427427502,-96.00
2025-12-25 16:59:22.838210,599620085427427502,-96.00
2025-12-25 16:59:22.838210,599620085427427502,-96.00
2025-12-25 16:59:22.838210,599620085427427502,-91.00
2025-12-25 16:59:22.838210,599620085427427502,-71.00
2025-12-25 16:59:22.838210,599620085427427502,36.00
2025-12-25 16:59:22.838210,599620085427427502,310.00
2025-12-25 16:59:22.838210,599620085427427502,581.00
2025-12-25 16:59:22.838210,599620085427427502,333.00
2025-12-25 16:59:22.838210,599620085427427502,-549.00
2025-12-25 16:59:22.838210,599620085427427502,-1082.00
2025-12-25 16:59:22.838210,599620085427427502,-666.00
2025-12-25 16:59:22.838210,599620085427427502,-179.00
2025-12-25 16:59:22.838210,599620085427427502,-114.00
2025-12-25 16:59:22.838210,599620085427427502,-85.00
2025-12-25 16:59:22.838210,599620085427427502,-16.00
2025-12-25 16:59:22.838210,599620085427427502,-27.00
2025-12-25 16:59:22.838210,599620085427427502,-34.00
2025-12-25 16:59:22.838210,599620085427427502,-6.00
2025-12-25 16:59:22.838210,599620085427427502,-2.00
2025-12-25 16:59:22.838210,599620085427427502,-4.00
2025-12-25 16:59:22.838210,599620085427427502,9.00
2025-12-25 16:59:22.838210,599620085427427502,16.00
2025-12-25 16:59:22.838210,599620085427427502,16.00
2025-12-25 16:59:22.838210,599620085427427502,22.00
2025-12-25 16:59:22.838210,599620085427427502,27.00
2025-12-25 16:59:22.838210,599620085427427502,29.00
2025-12-25 16:59:22.838210,599620085427427502,34.00
2025-12-25 16:59:22.838210,599620085427427502,39.00
2025-12-25 16:59:22.838210,599620085427427502,43.00
2025-12-25 16:59:22.838210,599620085427427502,48.00
2025-12-25 16:59:22.838210,599620085427427502,52.00
2025-12-25 16:59:22.838210,599620085427427502,62.00
2025-12-25 16:59:22.838210,599620085427427502,71.00
2025-12-25 16:59:22.838210,599620085427427502,75.00
2025-12-25 16:59:22.838210,599620085427427502,80.00
2025-12-25 16:59:22.838210,599620085427427502,87.00
2025-12-25 16:59:22.838210,599620085427427502,87.00
2025-12-25 16:59:22.838210,599620085427427502,87.00
2025-12-25 16:59:22.838210,599620085427427502,87.00
2025-12-25 16:59:22.838210,599620085427427502,78.00
2025-12-25 16:59:23.327060,599620085988292391,64.00
2025-12-25 16:59:23.327060,599620085988292391,43.00
2025-12-25 16:59:23.327060,599620085988292391,13.00
2025-12-25 16:59:23.327060,599620085988292391,-18.00
2025-12-25 16:59:23.327060,599620085988292391,-50.00
2025-12-25 16:59:23.327060,599620085988292391,-73.00
2025-12-25 16:59:23.327060,599620085988292391,-94.00
2025-12-25 16:59:23.327060,599620085988292391,-108.00
2025-12-25 16:59:23.327060,599620085988292391,-112.00
2025-12-25 16:59:23.327060,599620085988292391,-101.00
2025-12-25 16:59:23.327060,599620085988292391,-94.00
2025-12-25 16:59:23.327060,599620085988292391,-101.00
2025-12-25 16:59:23.327060,599620085988292391,-101.00
2025-12-25 16:59:23.327060,599620085988292391,-91.00
2025-12-25 16:59:23.327060,599620085988292391,-87.00
2025-12-25 16:59:23.327060,599620085988292391,-78.00
2025-12-25 16:59:23.327060,599620085988292391,-68.00
2025-12-25 16:59:23.327060,599620085988292391,-71.00
2025-12-25 16:59:23.327060,599620085988292391,-73.00
2025-12-25 16:59:23.327060,599620085988292391,-68.00
2025-12-25 16:59:23.327060,599620085988292391,-66.00
2025-12-25 16:59:23.327060,599620085988292391,-66.00
2025-12-25 16:59:23.327060,599620085988292391,-66.00
2025-12-25 16:59:23.327060,599620085988292391,-64.00
2025-12-25 16:59:23.327060,599620085988292391,-64.00
2025-12-25 16:59:23.327060,599620085988292391,-66.00
2025-12-25 16:59:23.327060,599620085988292391,-68.00
2025-12-25 16:59:23.327060,599620085988292391,-68.00
2025-12-25 16:59:23.327060,599620085988292391,-73.00
2025-12-25 16:59:23.327060,599620085988292391,-75.00
2025-12-25 16:59:23.327060,599620085988292391,-78.00
2025-12-25 16:59:23.327060,599620085988292391,-75.00
2025-12-25 16:59:23.327060,599620085988292391,-78.00
2025-12-25 16:59:23.327060,599620085988292391,-78.00
2025-12-25 16:59:23.327060,599620085988292391,-75.00
2025-12-25 16:59:23.327060,599620085988292391,-75.00
2025-12-25 16:59:23.327060,599620085988292391,-80.00
2025-12-25 16:59:23.327060,599620085988292391,-78.00
2025-12-25 16:59:23.327060,599620085988292391,-73.00
2025-12-25 16:59:23.327060,599620085988292391,-68.00
2025-12-25 16:59:23.327060,599620085988292391,-64.00
2025-12-25 16:59:23.327060,599620085988292391,-68.00
2025-12-25 16:59:23.327060,599620085988292391,-71.00
2025-12-25 16:59:23.327060,599620085988292391,-68.00
2025-12-25 16:59:23.327060,599620085988292391,-68.00
2025-12-25 16:59:23.327060,599620085988292391,-71.00
2025-12-25 16:59:23.327060,599620085988292391,-73.00
2025-12-25 16:59:23.327060,599620085988292391,-75.00
2025-12-25 16:59:23.327060,599620085988292391,-75.00
2025-12-25 16:59:23.327060,599620085988292391,-75.00
2025-12-25 16:59:23.327060,599620085988292391,-75.00
2025-12-25 16:59:23.327060,599620085988292391,-78.00
2025-12-25 16:59:23.327060,599620085988292391,-80.00
2025-12-25 16:59:23.327060,599620085988292391,-85.00
2025-12-25 16:59:23.327060,599620085988292391,-87.00
2025-12-25 16:59:23.327060,599620085988292391,-87.00
2025-12-25 16:59:23.327060,599620085988292391,-87.00
2025-12-25 16:59:23.327060,599620085988292391,-89.00
2025-12-25 16:59:23.327060,599620085988292391,-85.00
2025-12-25 16:59:23.327060,599620085988292391,-75.00
2025-12-25 16:59:23.327060,599620085988292391,-68.00
2025-12-25 16:59:23.327060,599620085988292391,-50.00
2025-12-25 16:59:23.327060,599620085988292391,-48.00
2025-12-25 16:59:23.327060,599620085988292391,-75.00
2025-12-25 16:59:23.327060,599620085988292391,-96.00
2025-12-25 16:59:23.327060,599620085988292391,-96.00
2025-12-25 16:59:23.327060,599620085988292391,-94.00
2025-12-25 16:59:23.327060,599620085988292391,-94.00
2025-12-25 16:59:23.327060,599620085988292391,-94.00
2025-12-25 16:59:23.327060,599620085988292391,-94.00
2025-12-25 16:59:23.327060,599620085988292391,-94.00
2025-12-25 16:59:23.327060,599620085988292391,-94.00
2025-12-25 16:59:23.327060,599620085988292391,-85.00
2025-12-25 16:59:23.889094,599620086549157282,-16.00
2025-12-25 16:59:23.889094,599620086549157282,195.00
2025-12-25 16:59:23.889094,599620086549157282,508.00
2025-12-25 16:59:23.889094,599620086549157282,519.00
2025-12-25 16:59:23.889094,599620086549157282,-206.00
2025-12-25 16:59:23.889094,599620086549157282,-1020.00
2025-12-25 16:59:23.889094,599620086549157282,-864.00
2025-12-25 16:59:23.889094,599620086549157282,-243.00
2025-12-25 16:59:23.889094,599620086549157282,-71.00
2025-12-25 16:59:23.889094,599620086549157282,-94.00
2025-12-25 16:59:23.889094,599620086549157282,-22.00
2025-12-25 16:59:23.889094,599620086549157282,-4.00
2025-12-25 16:59:23.889094,599620086549157282,-16.00
2025-12-25 16:59:23.889094,599620086549157282,13.00
2025-12-25 16:59:23.889094,599620086549157282,25.00
2025-12-25 16:59:23.889094,599620086549157282,16.00
2025-12-25 16:59:23.889094,599620086549157282,22.00
2025-12-25 16:59:23.889094,599620086549157282,39.00
2025-12-25 16:59:23.889094,599620086549157282,43.00
2025-12-25 16:59:23.889094,599620086549157282,43.00
2025-12-25 16:59:23.889094,599620086549157282,45.00
2025-12-25 16:59:23.889094,599620086549157282,50.00
2025-12-25 16:59:23.889094,599620086549157282,50.00
2025-12-25 16:59:23.889094,599620086549157282,55.00
2025-12-25 16:59:23.889094,599620086549157282,66.00
2025-12-25 16:59:23.889094,599620086549157282,73.00
2025-12-25 16:59:23.889094,599620086549157282,78.00
2025-12-25 16:59:23.889094,599620086549157282,82.00
2025-12-25 16:59:23.889094,599620086549157282,89.00
2025-12-25 16:59:23.889094,599620086549157282,94.00
2025-12-25 16:59:23.889094,599620086549157282,101.00
2025-12-25 16:59:23.889094,599620086549157282,108.00
2025-12-25 16:59:23.889094,599620086549157282,114.00
2025-12-25 16:59:23.889094,599620086549157282,121.00
2025-12-25 16:59:23.889094,599620086549157282,121.00
2025-12-25 16:59:23.889094,599620086549157282,112.00
2025-12-25 16:59:23.889094,599620086549157282,101.00
2025-12-25 16:59:23.889094,599620086549157282,78.00
2025-12-25 16:59:23.889094,599620086549157282,45.00
2025-12-25 16:59:23.889094,599620086549157282,9.00
2025-12-25 16:59:23.889094,599620086549157282,-22.00
2025-12-25 16:59:23.889094,599620086549157282,-50.00
2025-12-25 16:59:23.889094,599620086549157282,-68.00
2025-12-25 16:59:23.889094,599620086549157282,-85.00
2025-12-25 16:59:23.889094,599620086549157282,-96.00
2025-12-25 16:59:23.889094,599620086549157282,-103.00
2025-12-25 16:59:23.889094,599620086549157282,-105.00
2025-12-25 16:59:23.889094,599620086549157282,-103.00
2025-12-25 16:59:23.889094,599620086549157282,-101.00
2025-12-25 16:59:23.889094,599620086549157282,-101.00
2025-12-25 16:59:23.889094,599620086549157282,-101.00
2025-12-25 16:59:23.889094,599620086549157282,-98.00
2025-12-25 16:59:23.889094,599620086549157282,-98.00
2025-12-25 16:59:23.889094,599620086549157282,-96.00
2025-12-25 16:59:23.889094,599620086549157282,-91.00
2025-12-25 16:59:23.889094,599620086549157282,-89.00
2025-12-25 16:59:23.889094,599620086549157282,-91.00
2025-12-25 16:59:23.889094,599620086549157282,-87.00
2025-12-25 16:59:23.889094,599620086549157282,-78.00
2025-12-25 16:59:23.889094,599620086549157282,-73.00
2025-12-25 16:59:23.889094,599620086549157282,-78.00
2025-12-25 16:59:23.889094,599620086549157282,-80.00
2025-12-25 16:59:23.889094,599620086549157282,-80.00
2025-12-25 16:59:23.889094,599620086549157282,-85.00
2025-12-25 16:59:23.889094,599620086549157282,-91.00
2025-12-25 16:59:23.889094,599620086549157282,-91.00
2025-12-25 16:59:23.889094,599620086549157282,-89.00
2025-12-25 16:59:23.889094,599620086549157282,-91.00
2025-12-25 16:59:23.889094,599620086549157282,-96.00
2025-12-25 16:59:23.889094,599620086549157282,-94.00
2025-12-25 16:59:23.889094,599620086549157282,-96.00
2025-12-25 16:59:23.889094,599620086549157282,-98.00
2025-12-25 16:59:23.889094,599620086549157282,-98.00
2025-12-25 16:59:24.657986,599620087110032343,-101.00
2025-12-25 16:59:24.657986,599620087110032343,-110.00
2025-12-25 16:59:24.657986,599620087110032343,-114.00
2025-12-25 16:59:24.657986,599620087110032343,-108.00
2025-12-25 16:59:24.657986,599620087110032343,-101.00
2025-12-25 16:59:24.657986,599620087110032343,-101.00
2025-12-25 16:59:24.657986,599620087110032343,-101.00
2025-12-25 16:59:24.657986,599620087110032343,-105.00
2025-12-25 16:59:24.657986,599620087110032343,-110.00
2025-12-25 16:59:24.657986,599620087110032343,-98.00
2025-12-25 16:59:24.657986,599620087110032343,-85.00
2025-12-25 16:59:24.657986,599620087110032343,-85.00
2025-12-25 16:59:24.657986,599620087110032343,-87.00
2025-12-25 16:59:24.657986,599620087110032343,-87.00
2025-12-25 16:59:24.657986,599620087110032343,-89.00
2025-12-25 16:59:24.657986,599620087110032343,-96.00
2025-12-25 16:59:24.657986,599620087110032343,-91.00
2025-12-25 16:59:24.657986,599620087110032343,-85.00
2025-12-25 16:59:24.657986,599620087110032343,-94.00
2025-12-25 16:59:24.657986,599620087110032343,-101.00
2025-12-25 16:59:24.657986,599620087110032343,-91.00
2025-12-25 16:59:24.657986,599620087110032343,-80.00
2025-12-25 16:59:24.657986,599620087110032343,-62.00
2025-12-25 16:59:24.657986,599620087110032343,-39.00
2025-12-25 16:59:24.657986,599620087110032343,-55.00
2025-12-25 16:59:24.657986,599620087110032343,-89.00
2025-12-25 16:59:24.657986,599620087110032343,-89.00
2025-12-25 16:59:24.657986,599620087110032343,-80.00
2025-12-25 16:59:24.657986,599620087110032343,-91.00
2025-12-25 16:59:24.657986,599620087110032343,-94.00
2025-12-25 16:59:24.657986,599620087110032343,-94.00
2025-12-25 16:59:24.657986,599620087110032343,-103.00
2025-12-25 16:59:24.657986,599620087110032343,-101.00
2025-12-25 16:59:24.657986,599620087110032343,-96.00
2025-12-25 16:59:24.657986,599620087110032343,-78.00
2025-12-25 16:59:24.657986,599620087110032343,41.00
2025-12-25 16:59:24.657986,599620087110032343,333.00
2025-12-25 16:59:24.657986,599620087110032343,593.00
2025-12-25 16:59:24.657986,599620087110032343,312.00
2025-12-25 16:59:24.657986,599620087110032343,-579.00
2025-12-25 16:59:24.657986,599620087110032343,-1094.00
2025-12-25 16:59:24.657986,599620087110032343,-682.00
2025-12-25 16:59:24.657986,599620087110032343,-213.00
2025-12-25 16:59:24.657986,599620087110032343,-147.00
2025-12-25 16:59:24.657986,599620087110032343,-105.00
2025-12-25 16:59:24.657986,599620087110032343,-45.00
2025-12-25 16:59:24.657986,599620087110032343,-66.00
2025-12-25 16:59:24.657986,599620087110032343,-68.00
2025-12-25 16:59:24.657986,599620087110032343,-36.00
2025-12-25 16:59:24.657986,599620087110032343,-32.00
2025-12-25 16:59:24.657986,599620087110032343,-39.00
2025-12-25 16:59:24.657986,599620087110032343,-29.00
2025-12-25 16:59:24.657986,599620087110032343,-16.00
2025-12-25 16:59:24.657986,599620087110032343,-11.00
2025-12-25 16:59:24.657986,599620087110032343,-11.00
2025-12-25 16:59:24.657986,599620087110032343,-9.00
2025-12-25 16:59:24.657986,599620087110032343,-2.00
2025-12-25 16:59:24.657986,599620087110032343,6.00
2025-12-25 16:59:24.657986,599620087110032343,11.00
2025-12-25 16:59:24.657986,599620087110032343,9.00
2025-12-25 16:59:24.657986,599620087110032343,11.00
2025-12-25 16:59:24.657986,599620087110032343,18.00
2025-12-25 16:59:24.657986,599620087110032343,27.00
2025-12-25 16:59:24.657986,599620087110032343,34.00
2025-12-25 16:59:24.657986,599620087110032343,39.00
2025-12-25 16:59:24.657986,599620087110032343,50.00
2025-12-25 16:59:24.657986,599620087110032343,57.00
2025-12-25 16:59:24.657986,599620087110032343,57.00
2025-12-25 16:59:24.657986,599620087110032343,64.00
2025-12-25 16:59:24.657986,599620087110032343,62.00
2025-12-25 16:59:24.657986,599620087110032343,48.00
2025-12-25 16:59:24.657986,599620087110032343,36.00
2025-12-25 16:59:24.657986,599620087110032343,13.00
2025-12-25 16:59:24.944764,599620087670887062,-25.00
2025-12-25 16:59:24.944764,599620087670887062,-62.00
2025-12-25 16:59:24.944764,599620087670887062,-91.00
2025-12-25 16:59:24.944764,599620087670887062,-126.00
2025-12-25 16:59:24.944764,599620087670887062,-149.00
2025-12-25 16:59:24.944764,599620087670887062,-160.00
2025-12-25 16:59:24.944764,599620087670887062,-172.00
2025-12-25 16:59:24.944764,599620087670887062,-172.00
2025-12-25 16:59:24.944764,599620087670887062,-163.00
2025-12-25 16:59:24.944764,599620087670887062,-163.00
2025-12-25 16:59:24.944764,599620087670887062,-167.00
2025-12-25 16:59:24.944764,599620087670887062,-165.00
2025-12-25 16:59:24.944764,599620087670887062,-156.00
2025-12-25 16:59:24.944764,599620087670887062,-156.00
2025-12-25 16:59:24.944764,599620087670887062,-158.00
2025-12-25 16:59:24.944764,599620087670887062,-156.00
2025-12-25 16:59:24.944764,599620087670887062,-147.00
2025-12-25 16:59:24.944764,599620087670887062,-142.00
2025-12-25 16:59:24.944764,599620087670887062,-144.00
2025-12-25 16:59:24.944764,599620087670887062,-137.00
2025-12-25 16:59:24.944764,599620087670887062,-128.00
2025-12-25 16:59:24.944764,599620087670887062,-126.00
2025-12-25 16:59:24.944764,599620087670887062,-128.00
2025-12-25 16:59:24.944764,599620087670887062,-124.00
2025-12-25 16:59:24.944764,599620087670887062,-119.00
2025-12-25 16:59:24.944764,599620087670887062,-112.00
2025-12-25 16:59:24.944764,599620087670887062,-117.00
2025-12-25 16:59:24.944764,599620087670887062,-124.00
2025-12-25 16:59:24.944764,599620087670887062,-124.00
2025-12-25 16:59:24.944764,599620087670887062,-121.00
2025-12-25 16:59:24.944764,599620087670887062,-110.00
2025-12-25 16:59:24.944764,599620087670887062,-105.00
2025-12-25 16:59:24.944764,599620087670887062,-114.00
2025-12-25 16:59:24.944764,599620087670887062,-117.00
2025-12-25 16:59:24.944764,599620087670887062,-112.00
2025-12-25 16:59:24.944764,599620087670887062,-117.00
2025-12-25 16:59:24.944764,599620087670887062,-124.00
2025-12-25 16:59:24.944764,599620087670887062,-119.00
2025-12-25 16:59:24.944764,599620087670887062,-117.00
2025-12-25 16:59:24.944764,599620087670887062,-117.00
2025-12-25 16:59:24.944764,599620087670887062,-114.00
2025-12-25 16:59:24.944764,599620087670887062,-114.00
2025-12-25 16:59:24.944764,599620087670887062,-114.00
2025-12-25 16:59:24.944764,599620087670887062,-110.00
2025-12-25 16:59:24.944764,599620087670887062,-101.00
2025-12-25 16:59:24.944764,599620087670887062,-85.00
2025-12-25 16:59:24.944764,599620087670887062,-71.00
2025-12-25 16:59:24.944764,599620087670887062,-87.00
2025-12-25 16:59:24.944764,599620087670887062,-114.00
2025-12-25 16:59:24.944764,599620087670887062,-121.00
2025-12-25 16:59:24.944764,599620087670887062,-117.00
2025-12-25 16:59:24.944764,599620087670887062,-119.00
2025-12-25 16:59:24.944764,599620087670887062,-121.00
2025-12-25 16:59:24.944764,599620087670887062,-119.00
2025-12-25 16:59:24.944764,599620087670887062,-121.00
2025-12-25 16:59:24.944764,599620087670887062,-124.00
2025-12-25 16:59:24.944764,599620087670887062,-114.00
2025-12-25 16:59:24.944764,599620087670887062,-75.00
2025-12-25 16:59:24.944764,599620087670887062,94.00
2025-12-25 16:59:24.944764,599620087670887062,448.00
2025-12-25 16:59:24.944764,599620087670887062,634.00
2025-12-25 16:59:24.944764,599620087670887062,43.00
2025-12-25 16:59:24.944764,599620087670887062,-942.00
2025-12-25 16:59:24.944764,599620087670887062,-1080.00
2025-12-25 16:59:24.944764,599620087670887062,-466.00
2025-12-25 16:59:24.944764,599620087670887062,-160.00
2025-12-25 16:59:24.944764,599620087670887062,-158.00
2025-12-25 16:59:24.944764,599620087670887062,-78.00
2025-12-25 16:59:24.944764,599620087670887062,-41.00
2025-12-25 16:59:24.944764,599620087670887062,-71.00
2025-12-25 16:59:24.944764,599620087670887062,-57.00
2025-12-25 16:59:24.944764,599620087670887062,-32.00
2025-12-25 16:59:24.944764,599620087670887062,-27.00
2025-12-25 16:59:25.588765,599620088231767213,-25.00
2025-12-25 16:59:25.588765,599620088231767213,-16.00
2025-12-25 16:59:25.588765,599620088231767213,-9.00
2025-12-25 16:59:25.588765,599620088231767213,2.00
2025-12-25 16:59:25.588765,599620088231767213,18.00
2025-12-25 16:59:25.588765,599620088231767213,27.00
2025-12-25 16:59:25.588765,599620088231767213,27.00
2025-12-25 16:59:25.588765,599620088231767213,36.00
2025-12-25 16:59:25.588765,599620088231767213,41.00
2025-12-25 16:59:25.588765,599620088231767213,45.00
2025-12-25 16:59:25.588765,599620088231767213,55.00
2025-12-25 16:59:25.588765,599620088231767213,68.00
2025-12-25 16:59:25.588765,599620088231767213,78.00
2025-12-25 16:59:25.588765,599620088231767213,96.00
2025-12-25 16:59:25.588765,599620088231767213,110.00
2025-12-25 16:59:25.588765,599620088231767213,119.00
2025-12-25 16:59:25.588765,599620088231767213,131.00
2025-12-25 16:59:25.588765,599620088231767213,137.00
2025-12-25 16:59:25.588765,599620088231767213,135.00
2025-12-25 16:59:25.588765,599620088231767213,133.00
2025-12-25 16:59:25.588765,599620088231767213,121.00
2025-12-25 16:59:25.588765,599620088231767213,96.00
2025-12-25 16:59:25.588765,599620088231767213,64.00
2025-12-25 16:59:25.588765,599620088231767213,25.00
2025-12-25 16:59:25.588765,599620088231767213,-16.00
2025-12-25 16:59:25.588765,599620088231767213,-45.00
2025-12-25 16:59:25.588765,599620088231767213,-66.00
2025-12-25 16:59:25.588765,599620088231767213,-78.00
2025-12-25 16:59:25.588765,599620088231767213,-82.00
2025-12-25 16:59:25.588765,599620088231767213,-87.00
2025-12-25 16:59:25.588765,599620088231767213,-82.00
2025-12-25 16:59:25.588765,599620088231767213,-75.00
2025-12-25 16:59:25.588765,599620088231767213,-75.00
2025-12-25 16:59:25.588765,599620088231767213,-75.00
2025-12-25 16:59:25.588765,599620088231767213,-68.00
2025-12-25 16:59:25.588765,599620088231767213,-66.00
2025-12-25 16:59:25.588765,599620088231767213,-66.00
2025-12-25 16:59:25.588765,599620088231767213,-59.00
2025-12-25 16:59:25.588765,599620088231767213,-55.00
2025-12-25 16:59:25.588765,599620088231767213,-50.00
2025-12-25 16:59:25.588765,599620088231767213,-45.00
2025-12-25 16:59:25.588765,599620088231767213,-45.00
2025-12-25 16:59:25.588765,599620088231767213,-50.00
2025-12-25 16:59:25.588765,599620088231767213,-48.00
2025-12-25 16:59:25.588765,599620088231767213,-43.00
2025-12-25 16:59:25.588765,599620088231767213,-39.00
2025-12-25 16:59:25.588765,599620088231767213,-39.00
2025-12-25 16:59:25.588765,599620088231767213,-43.00
2025-12-25 16:59:25.588765,599620088231767213,-43.00
2025-12-25 16:59:25.588765,599620088231767213,-43.00
2025-12-25 16:59:25.588765,599620088231767213,-43.00
2025-12-25 16:59:25.588765,599620088231767213,-45.00
2025-12-25 16:59:25.588765,599620088231767213,-48.00
2025-12-25 16:59:25.588765,599620088231767213,-50.00
2025-12-25 16:59:25.588765,599620088231767213,-50.00
2025-12-25 16:59:25.588765,599620088231767213,-52.00
2025-12-25 16:59:25.588765,599620088231767213,-52.00
2025-12-25 16:59:25.588765,599620088231767213,-50.00
2025-12-25 16:59:25.588765,599620088231767213,-50.00
2025-12-25 16:59:25.588765,599620088231767213,-55.00
2025-12-25 16:59:25.588765,599620088231767213,-55.00
2025-12-25 16:59:25.588765,599620088231767213,-55.00
2025-12-25 16:59:25.588765,599620088231767213,-55.00
2025-12-25 16:59:25.588765,599620088231767213,-52.00
2025-12-25 16:59:25.588765,599620088231767213,-52.00
2025-12-25 16:59:25.588765,599620088231767213,-50.00
2025-12-25 16:59:25.588765,599620088231767213,-50.00
2025-12-25 16:59:25.588765,599620088231767213,-57.00
2025-12-25 16:59:25.588765,599620088231767213,-59.00
2025-12-25 16:59:25.588765,599620088231767213,-55.00
2025-12-25 16:59:25.588765,599620088231767213,-50.00
2025-12-25 16:59:25.588765,599620088231767213,-34.00
2025-12-25 16:59:25.588765,599620088231767213,-11.00
2025-12-25 16:59:26.156826,599620088792647362,-18.00
2025-12-25 16:59:26.156826,599620088792647362,-48.00
2025-12-25 16:59:26.156826,599620088792647362,-55.00
2025-12-25 16:59:26.156826,599620088792647362,-55.00
2025-12-25 16:59:26.156826,599620088792647362,-64.00
2025-12-25 16:59:26.156826,599620088792647362,-59.00
2025-12-25 16:59:26.156826,599620088792647362,-45.00
2025-12-25 16:59:26.156826,599620088792647362,-50.00
2025-12-25 16:59:26.156826,599620088792647362,-59.00
2025-12-25 16:59:26.156826,599620088792647362,-59.00
2025-12-25 16:59:26.156826,599620088792647362,-45.00
2025-12-25 16:59:26.156826,599620088792647362,36.00
2025-12-25 16:59:26.156826,599620088792647362,308.00
2025-12-25 16:59:26.156826,599620088792647362,657.00
2025-12-25 16:59:26.156826,599620088792647362,544.00
2025-12-25 16:59:26.156826,599620088792647362,-372.00
2025-12-25 16:59:26.156826,599620088792647362,-1126.00
2025-12-25 16:59:26.156826,599620088792647362,-751.00
2025-12-25 16:59:26.156826,599620088792647362,-119.00
2025-12-25 16:59:26.156826,599620088792647362,-48.00
2025-12-25 16:59:26.156826,599620088792647362,-78.00
2025-12-25 16:59:26.156826,599620088792647362,6.00
2025-12-25 16:59:26.156826,599620088792647362,9.00
2025-12-25 16:59:26.156826,599620088792647362,-11.00
2025-12-25 16:59:26.156826,599620088792647362,16.00
2025-12-25 16:59:26.156826,599620088792647362,27.00
2025-12-25 16:59:26.156826,599620088792647362,18.00
2025-12-25 16:59:26.156826,599620088792647362,20.00
2025-12-25 16:59:26.156826,599620088792647362,20.00
2025-12-25 16:59:26.156826,599620088792647362,22.00
2025-12-25 16:59:26.156826,599620088792647362,29.00
2025-12-25 16:59:26.156826,599620088792647362,29.00
2025-12-25 16:59:26.156826,599620088792647362,32.00
2025-12-25 16:59:26.156826,599620088792647362,45.00
2025-12-25 16:59:26.156826,599620088792647362,45.00
2025-12-25 16:59:26.156826,599620088792647362,41.00
2025-12-25 16:59:26.156826,599620088792647362,52.00
2025-12-25 16:59:26.156826,599620088792647362,66.00
2025-12-25 16:59:26.156826,599620088792647362,71.00
2025-12-25 16:59:26.156826,599620088792647362,75.00
2025-12-25 16:59:26.156826,599620088792647362,85.00
2025-12-25 16:59:26.156826,599620088792647362,89.00
2025-12-25 16:59:26.156826,599620088792647362,96.00
2025-12-25 16:59:26.156826,599620088792647362,103.00
2025-12-25 16:59:26.156826,599620088792647362,108.00
2025-12-25 16:59:26.156826,599620088792647362,103.00
2025-12-25 16:59:26.156826,599620088792647362,85.00
2025-12-25 16:59:26.156826,599620088792647362,62.00
2025-12-25 16:59:26.156826,599620088792647362,41.00
2025-12-25 16:59:26.156826,599620088792647362,16.00
2025-12-25 16:59:26.156826,599620088792647362,-25.00
2025-12-25 16:59:26.156826,599620088792647362,-62.00
2025-12-25 16:59:26.156826,599620088792647362,-82.00
2025-12-25 16:59:26.156826,599620088792647362,-96.00
2025-12-25 16:59:26.156826,599620088792647362,-105.00
2025-12-25 16:59:26.156826,599620088792647362,-108.00
2025-12-25 16:59:26.156826,599620088792647362,-110.00
2025-12-25 16:59:26.156826,599620088792647362,-110.00
2025-12-25 16:59:26.156826,599620088792647362,-110.00
2025-12-25 16:59:26.156826,599620088792647362,-110.00
2025-12-25 16:59:26.156826,599620088792647362,-105.00
2025-12-25 16:59:26.156826,599620088792647362,-94.00
2025-12-25 16:59:26.156826,599620088792647362,-91.00
2025-12-25 16:59:26.156826,599620088792647362,-94.00
2025-12-25 16:59:26.156826,599620088792647362,-91.00
2025-12-25 16:59:26.156826,599620088792647362,-89.00
2025-12-25 16:59:26.156826,599620088792647362,-82.00
2025-12-25 16:59:26.156826,599620088792647362,-80.00
2025-12-25 16:59:26.156826,599620088792647362,-78.00
2025-12-25 16:59:26.156826,599620088792647362,-75.00
2025-12-25 16:59:26.156826,599620088792647362,-78.00
2025-12-25 16:59:26.156826,599620088792647362,-71.00
2025-12-25 16:59:26.156826,599620088792647362,-68.00
2025-12-25 16:59:26.661357,599620089353512251,-71.00
2025-12-25 16:59:26.661357,599620089353512251,-66.00
2025-12-25 16:59:26.661357,599620089353512251,-62.00
2025-12-25 16:59:26.661357,599620089353512251,-73.00
2025-12-25 16:59:26.661357,599620089353512251,-80.00
2025-12-25 16:59:26.661357,599620089353512251,-78.00
2025-12-25 16:59:26.661357,599620089353512251,-82.00
2025-12-25 16:59:26.661357,599620089353512251,-80.00
2025-12-25 16:59:26.661357,599620089353512251,-71.00
2025-12-25 16:59:26.661357,599620089353512251,-71.00
2025-12-25 16:59:26.661357,599620089353512251,-68.00
2025-12-25 16:59:26.661357,599620089353512251,-59.00
2025-12-25 16:59:26.661357,599620089353512251,-57.00
2025-12-25 16:59:26.661357,599620089353512251,-59.00
2025-12-25 16:59:26.661357,599620089353512251,-57.00
2025-12-25 16:59:26.661357,599620089353512251,-59.00
2025-12-25 16:59:26.661357,599620089353512251,-59.00
2025-12-25 16:59:26.661357,599620089353512251,-64.00
2025-12-25 16:59:26.661357,599620089353512251,-71.00
2025-12-25 16:59:26.661357,599620089353512251,-73.00
2025-12-25 16:59:26.661357,599620089353512251,-68.00
2025-12-25 16:59:26.661357,599620089353512251,-66.00
2025-12-25 16:59:26.661357,599620089353512251,-57.00
2025-12-25 16:59:26.661357,599620089353512251,-36.00
2025-12-25 16:59:26.661357,599620089353512251,-25.00
2025-12-25 16:59:26.661357,599620089353512251,-43.00
2025-12-25 16:59:26.661357,599620089353512251,-68.00
2025-12-25 16:59:26.661357,599620089353512251,-73.00
2025-12-25 16:59:26.661357,599620089353512251,-73.00
2025-12-25 16:59:26.661357,599620089353512251,-80.00
2025-12-25 16:59:26.661357,599620089353512251,-80.00
2025-12-25 16:59:26.661357,599620089353512251,-80.00
2025-12-25 16:59:26.661357,599620089353512251,-91.00
2025-12-25 16:59:26.661357,599620089353512251,-91.00
2025-12-25 16:59:26.661357,599620089353512251,-82.00
2025-12-25 16:59:26.661357,599620089353512251,-55.00
2025-12-25 16:59:26.661357,599620089353512251,96.00
2025-12-25 16:59:26.661357,599620089353512251,434.00
2025-12-25 16:59:26.661357,599620089353512251,646.00
2025-12-25 16:59:26.661357,599620089353512251,126.00
2025-12-25 16:59:26.661357,599620089353512251,-862.00
2025-12-25 16:59:26.661357,599620089353512251,-1078.00
2025-12-25 16:59:26.661357,599620089353512251,-450.00
2025-12-25 16:59:26.661357,599620089353512251,-94.00
2025-12-25 16:59:26.661357,599620089353512251,-121.00
2025-12-25 16:59:26.661357,599620089353512251,-66.00
2025-12-25 16:59:26.661357,599620089353512251,-16.00
2025-12-25 16:59:26.661357,599620089353512251,-45.00
2025-12-25 16:59:26.661357,599620089353512251,-41.00
2025-12-25 16:59:26.661357,599620089353512251,-16.00
2025-12-25 16:59:26.661357,599620089353512251,-20.00
2025-12-25 16:59:26.661357,599620089353512251,-20.00
2025-12-25 16:59:26.661357,599620089353512251,-9.00
2025-12-25 16:59:26.661357,599620089353512251,-9.00
2025-12-25 16:59:26.661357,599620089353512251,-11.00
2025-12-25 16:59:26.661357,599620089353512251,-2.00
2025-12-25 16:59:26.661357,599620089353512251,4.00
2025-12-25 16:59:26.661357,599620089353512251,6.00
2025-12-25 16:59:26.661357,599620089353512251,11.00
2025-12-25 16:59:26.661357,599620089353512251,13.00
2025-12-25 16:59:26.661357,599620089353512251,20.00
2025-12-25 16:59:26.661357,599620089353512251,29.00
2025-12-25 16:59:26.661357,599620089353512251,36.00
2025-12-25 16:59:26.661357,599620089353512251,52.00
2025-12-25 16:59:26.661357,599620089353512251,64.00
2025-12-25 16:59:26.661357,599620089353512251,66.00
2025-12-25 16:59:26.661357,599620089353512251,73.00
2025-12-25 16:59:26.661357,599620089353512251,85.00
2025-12-25 16:59:26.661357,599620089353512251,87.00
2025-12-25 16:59:26.661357,599620089353512251,89.00
2025-12-25 16:59:26.661357,599620089353512251,87.00
2025-12-25 16:59:26.661357,599620089353512251,73.00
2025-12-25 16:59:26.661357,599620089353512251,52.00
2025-12-25 16:59:27.315449,599620089914397486,25.00
2025-12-25 16:59:27.315449,599620089914397486,-13.00
2025-12-25 16:59:27.315449,599620089914397486,-55.00
2025-12-25 16:59:27.315449,599620089914397486,-87.00
2025-12-25 16:59:27.315449,599620089914397486,-101.00
2025-12-25 16:59:27.315449,599620089914397486,-108.00
2025-12-25 16:59:27.315449,599620089914397486,-119.00
2025-12-25 16:59:27.315449,599620089914397486,-117.00
2025-12-25 16:59:27.315449,599620089914397486,-98.00
2025-12-25 16:59:27.315449,599620089914397486,-94.00
2025-12-25 16:59:27.315449,599620089914397486,-101.00
2025-12-25 16:59:27.315449,599620089914397486,-98.00
2025-12-25 16:59:27.315449,599620089914397486,-94.00
2025-12-25 16:59:27.315449,599620089914397486,-89.00
2025-12-25 16:59:27.315449,599620089914397486,-82.00
2025-12-25 16:59:27.315449,599620089914397486,-78.00
2025-12-25 16:59:27.315449,599620089914397486,-73.00
2025-12-25 16:59:27.315449,599620089914397486,-68.00
2025-12-25 16:59:27.315449,599620089914397486,-66.00
2025-12-25 16:59:27.315449,599620089914397486,-59.00
2025-12-25 16:59:27.315449,599620089914397486,-57.00
2025-12-25 16:59:27.315449,599620089914397486,-55.00
2025-12-25 16:59:27.315449,599620089914397486,-55.00
2025-12-25 16:59:27.315449,599620089914397486,-57.00
2025-12-25 16:59:27.315449,599620089914397486,-57.00
2025-12-25 16:59:27.315449,599620089914397486,-57.00
2025-12-25 16:59:27.315449,599620089914397486,-59.00
2025-12-25 16:59:27.315449,599620089914397486,-59.00
2025-12-25 16:59:27.315449,599620089914397486,-62.00
2025-12-25 16:59:27.315449,599620089914397486,-66.00
2025-12-25 16:59:27.315449,599620089914397486,-66.00
2025-12-25 16:59:27.315449,599620089914397486,-64.00
2025-12-25 16:59:27.315449,599620089914397486,-66.00
2025-12-25 16:59:27.315449,599620089914397486,-71.00
2025-12-25 16:59:27.315449,599620089914397486,-68.00
2025-12-25 16:59:27.315449,599620089914397486,-66.00
2025-12-25 16:59:27.315449,599620089914397486,-64.00
2025-12-25 16:59:27.315449,599620089914397486,-62.00
2025-12-25 16:59:27.315449,599620089914397486,-64.00
2025-12-25 16:59:27.315449,599620089914397486,-64.00
2025-12-25 16:59:27.315449,599620089914397486,-66.00
2025-12-25 16:59:27.315449,599620089914397486,-71.00
2025-12-25 16:59:27.315449,599620089914397486,-71.00
2025-12-25 16:59:27.315449,599620089914397486,-66.00
2025-12-25 16:59:27.315449,599620089914397486,-68.00
2025-12-25 16:59:27.315449,599620089914397486,-71.00
2025-12-25 16:59:27.315449,599620089914397486,-68.00
2025-12-25 16:59:27.315449,599620089914397486,-71.00
2025-12-25 16:59:27.315449,599620089914397486,-80.00
2025-12-25 16:59:27.315449,599620089914397486,-85.00
2025-12-25 16:59:27.315449,599620089914397486,-80.00
2025-12-25 16:59:27.315449,599620089914397486,-75.00
2025-12-25 16:59:27.315449,599620089914397486,-59.00
2025-12-25 16:59:27.315449,599620089914397486,-36.00
2025-12-25 16:59:27.315449,599620089914397486,-36.00
2025-12-25 16:59:27.315449,599620089914397486,-62.00
2025-12-25 16:59:27.315449,599620089914397486,-73.00
2025-12-25 16:59:27.315449,599620089914397486,-68.00
2025-12-25 16:59:27.315449,599620089914397486,-73.00
2025-12-25 16:59:27.315449,599620089914397486,-85.00
2025-12-25 16:59:27.315449,599620089914397486,-80.00
2025-12-25 16:59:27.315449,599620089914397486,-78.00
2025-12-25 16:59:27.315449,599620089914397486,-85.00
2025-12-25 16:59:27.315449,599620089914397486,-85.00
2025-12-25 16:59:27.315449,599620089914397486,-80.00
2025-12-25 16:59:27.315449,599620089914397486,-25.00
2025-12-25 16:59:27.315449,599620089914397486,197.00
2025-12-25 16:59:27.315449,599620089914397486,547.00
2025-12-25 16:59:27.315449,599620089914397486,574.00
2025-12-25 16:59:27.315449,599620089914397486,-197.00
2025-12-25 16:59:27.315449,599620089914397486,-1075.00
2025-12-25 16:59:27.315449,599620089914397486,-896.00
2025-12-25 16:59:27.315449,599620089914397486,-213.00
2025-12-25 16:59:27.973856,599620090475257291,-50.00
2025-12-25 16:59:27.973856,599620090475257291,-121.00
2025-12-25 16:59:27.973856,599620090475257291,-55.00
2025-12-25 16:59:27.973856,599620090475257291,-22.00
2025-12-25 16:59:27.973856,599620090475257291,-43.00
2025-12-25 16:59:27.973856,599620090475257291,-25.00
2025-12-25 16:59:27.973856,599620090475257291,-13.00
2025-12-25 16:59:27.973856,599620090475257291,-25.00
2025-12-25 16:59:27.973856,599620090475257291,-22.00
2025-12-25 16:59:27.973856,599620090475257291,-11.00
2025-12-25 16:59:27.973856,599620090475257291,-2.00
2025-12-25 16:59:27.973856,599620090475257291,11.00
2025-12-25 16:59:27.973856,599620090475257291,13.00
2025-12-25 16:59:27.973856,599620090475257291,9.00
2025-12-25 16:59:27.973856,599620090475257291,13.00
2025-12-25 16:59:27.973856,599620090475257291,16.00
2025-12-25 16:59:27.973856,599620090475257291,25.00
2025-12-25 16:59:27.973856,599620090475257291,50.00
2025-12-25 16:59:27.973856,599620090475257291,57.00
2025-12-25 16:59:27.973856,599620090475257291,52.00
2025-12-25 16:59:27.973856,599620090475257291,59.00
2025-12-25 16:59:27.973856,599620090475257291,68.00
2025-12-25 16:59:27.973856,599620090475257291,75.00
2025-12-25 16:59:27.973856,599620090475257291,87.00
2025-12-25 16:59:27.973856,599620090475257291,89.00
2025-12-25 16:59:27.973856,599620090475257291,89.00
2025-12-25 16:59:27.973856,599620090475257291,87.00
2025-12-25 16:59:27.973856,599620090475257291,80.00
2025-12-25 16:59:27.973856,599620090475257291,71.00
2025-12-25 16:59:27.973856,599620090475257291,50.00
2025-12-25 16:59:27.973856,599620090475257291,16.00
2025-12-25 16:59:27.973856,599620090475257291,-20.00
2025-12-25 16:59:27.973856,599620090475257291,-50.00
2025-12-25 16:59:27.973856,599620090475257291,-78.00
2025-12-25 16:59:27.973856,599620090475257291,-96.00
2025-12-25 16:59:27.973856,599620090475257291,-108.00
2025-12-25 16:59:27.973856,599620090475257291,-112.00
2025-12-25 16:59:27.973856,599620090475257291,-117.00
2025-12-25 16:59:27.973856,599620090475257291,-119.00
2025-12-25 16:59:27.973856,599620090475257291,-119.00
2025-12-25 16:59:27.973856,599620090475257291,-117.00
2025-12-25 16:59:27.973856,599620090475257291,-112.00
2025-12-25 16:59:27.973856,599620090475257291,-101.00
2025-12-25 16:59:27.973856,599620090475257291,-98.00
2025-12-25 16:59:27.973856,599620090475257291,-103.00
2025-12-25 16:59:27.973856,599620090475257291,-101.00
2025-12-25 16:59:27.973856,599620090475257291,-94.00
2025-12-25 16:59:27.973856,599620090475257291,-91.00
2025-12-25 16:59:27.973856,599620090475257291,-85.00
2025-12-25 16:59:27.973856,599620090475257291,-73.00
2025-12-25 16:59:27.973856,599620090475257291,-73.00
2025-12-25 16:59:27.973856,599620090475257291,-73.00
2025-12-25 16:59:27.973856,599620090475257291,-62.00
2025-12-25 16:59:27.973856,599620090475257291,-57.00
2025-12-25 16:59:27.973856,599620090475257291,-66.00
2025-12-25 16:59:27.973856,599620090475257291,-71.00
2025-12-25 16:59:27.973856,599620090475257291,-71.00
2025-12-25 16:59:27.973856,599620090475257291,-75.00
2025-12-25 16:59:27.973856,599620090475257291,-66.00
2025-12-25 16:59:27.973856,599620090475257291,-59.00
2025-12-25 16:59:27.973856,599620090475257291,-66.00
2025-12-25 16:59:27.973856,599620090475257291,-73.00
2025-12-25 16:59:27.973856,599620090475257291,-78.00
2025-12-25 16:59:27.973856,599620090475257291,-78.00
2025-12-25 16:59:27.973856,599620090475257291,-75.00
2025-12-25 16:59:27.973856,599620090475257291,-75.00
2025-12-25 16:59:27.973856,599620090475257291,-75.00
2025-12-25 16:59:27.973856,599620090475257291,-64.00
2025-12-25 16:59:27.973856,599620090475257291,-59.00
2025-12-25 16:59:27.973856,599620090475257291,-73.00
2025-12-25 16:59:27.973856,599620090475257291,-82.00
2025-12-25 16:59:27.973856,599620090475257291,-82.00
2025-12-25 16:59:27.973856,599620090475257291,-85.00
2025-12-25 16:59:28.470619,599620091036137438,-89.00
2025-12-25 16:59:28.470619,599620091036137438,-82.00
2025-12-25 16:59:28.470619,599620091036137438,-85.00
2025-12-25 16:59:28.470619,599620091036137438,-89.00
2025-12-25 16:59:28.470619,599620091036137438,-87.00
2025-12-25 16:59:28.470619,599620091036137438,-96.00
2025-12-25 16:59:28.470619,599620091036137438,-105.00
2025-12-25 16:59:28.470619,599620091036137438,-85.00
2025-12-25 16:59:28.470619,599620091036137438,-55.00
2025-12-25 16:59:28.470619,599620091036137438,-41.00
2025-12-25 16:59:28.470619,599620091036137438,-32.00
2025-12-25 16:59:28.470619,599620091036137438,-48.00
2025-12-25 16:59:28.470619,599620091036137438,-82.00
2025-12-25 16:59:28.470619,599620091036137438,-85.00
2025-12-25 16:59:28.470619,599620091036137438,-68.00
2025-12-25 16:59:28.470619,599620091036137438,-68.00
2025-12-25 16:59:28.470619,599620091036137438,-73.00
2025-12-25 16:59:28.470619,599620091036137438,-78.00
2025-12-25 16:59:28.470619,599620091036137438,-75.00
2025-12-25 16:59:28.470619,599620091036137438,-66.00
2025-12-25 16:59:28.470619,599620091036137438,-62.00
2025-12-25 16:59:28.470619,599620091036137438,-55.00
2025-12-25 16:59:28.470619,599620091036137438,36.00
2025-12-25 16:59:28.470619,599620091036137438,314.00
2025-12-25 16:59:28.470619,599620091036137438,625.00
2025-12-25 16:59:28.470619,599620091036137438,404.00
2025-12-25 16:59:28.470619,599620091036137438,-517.00
2025-12-25 16:59:28.470619,599620091036137438,-1089.00
2025-12-25 16:59:28.470619,599620091036137438,-634.00
2025-12-25 16:59:28.470619,599620091036137438,-117.00
2025-12-25 16:59:28.470619,599620091036137438,-87.00
2025-12-25 16:59:28.470619,599620091036137438,-78.00
2025-12-25 16:59:28.470619,599620091036137438,-4.00
2025-12-25 16:59:28.470619,599620091036137438,-22.00
2025-12-25 16:59:28.470619,599620091036137438,-32.00
2025-12-25 16:59:28.470619,599620091036137438,-4.00
2025-12-25 16:59:28.470619,599620091036137438,-9.00
2025-12-25 16:59:28.470619,599620091036137438,-20.00
2025-12-25 16:59:28.470619,599620091036137438,-11.00
2025-12-25 16:59:28.470619,599620091036137438,-2.00
2025-12-25 16:59:28.470619,599620091036137438,2.00
2025-12-25 16:59:28.470619,599620091036137438,16.00
2025-12-25 16:59:28.470619,599620091036137438,25.00
2025-12-25 16:59:28.470619,599620091036137438,27.00
2025-12-25 16:59:28.470619,599620091036137438,34.00
2025-12-25 16:59:28.470619,599620091036137438,39.00
2025-12-25 16:59:28.470619,599620091036137438,39.00
2025-12-25 16:59:28.470619,599620091036137438,52.00
2025-12-25 16:59:28.470619,599620091036137438,64.00
2025-12-25 16:59:28.470619,599620091036137438,64.00
2025-12-25 16:59:28.470619,599620091036137438,78.00
2025-12-25 16:59:28.470619,599620091036137438,91.00
2025-12-25 16:59:28.470619,599620091036137438,91.00
2025-12-25 16:59:28.470619,599620091036137438,101.00
2025-12-25 16:59:28.470619,599620091036137438,112.00
2025-12-25 16:59:28.470619,599620091036137438,110.00
2025-12-25 16:59:28.470619,599620091036137438,98.00
2025-12-25 16:59:28.470619,599620091036137438,94.00
2025-12-25 16:59:28.470619,599620091036137438,80.00
2025-12-25 16:59:28.470619,599620091036137438,48.00
2025-12-25 16:59:28.470619,599620091036137438,9.00
2025-12-25 16:59:28.470619,599620091036137438,-25.00
2025-12-25 16:59:28.470619,599620091036137438,-57.00
2025-12-25 16:59:28.470619,599620091036137438,-87.00
2025-12-25 16:59:28.470619,599620091036137438,-103.00
2025-12-25 16:59:28.470619,599620091036137438,-108.00
2025-12-25 16:59:28.470619,599620091036137438,-119.00
2025-12-25 16:59:28.470619,599620091036137438,-124.00
2025-12-25 16:59:28.470619,599620091036137438,-124.00
2025-12-25 16:59:28.470619,599620091036137438,-126.00
2025-12-25 16:59:28.470619,599620091036137438,-114.00
2025-12-25 16:59:28.470619,599620091036137438,-108.00
2025-12-25 16:59:28.470619,599620091036137438,-112.00
2025-12-25 16:59:28.978652,599620091597017591,-110.00
2025-12-25 16:59:28.978652,599620091597017591,-94.00
2025-12-25 16:59:28.978652,599620091597017591,-94.00
2025-12-25 16:59:28.978652,599620091597017591,-96.00
2025-12-25 16:59:28.978652,599620091597017591,-87.00
2025-12-25 16:59:28.978652,599620091597017591,-73.00
2025-12-25 16:59:28.978652,599620091597017591,-62.00
2025-12-25 16:59:28.978652,599620091597017591,-68.00
2025-12-25 16:59:28.978652,599620091597017591,-71.00
2025-12-25 16:59:28.978652,599620091597017591,-57.00
2025-12-25 16:59:28.978652,599620091597017591,-55.00
2025-12-25 16:59:28.978652,599620091597017591,-57.00
2025-12-25 16:59:28.978652,599620091597017591,-50.00
2025-12-25 16:59:28.978652,599620091597017591,-52.00
2025-12-25 16:59:28.978652,599620091597017591,-62.00
2025-12-25 16:59:28.978652,599620091597017591,-59.00
2025-12-25 16:59:28.978652,599620091597017591,-64.00
2025-12-25 16:59:28.978652,599620091597017591,-62.00
2025-12-25 16:59:28.978652,599620091597017591,-55.00
2025-12-25 16:59:28.978652,599620091597017591,-71.00
2025-12-25 16:59:28.978652,599620091597017591,-89.00
2025-12-25 16:59:28.978652,599620091597017591,-87.00
2025-12-25 16:59:28.978652,599620091597017591,-80.00
2025-12-25 16:59:28.978652,599620091597017591,-59.00
2025-12-25 16:59:28.978652,599620091597017591,-34.00
2025-12-25 16:59:28.978652,599620091597017591,-39.00
2025-12-25 16:59:28.978652,599620091597017591,-66.00
2025-12-25 16:59:28.978652,599620091597017591,-71.00
2025-12-25 16:59:28.978652,599620091597017591,-62.00
2025-12-25 16:59:28.978652,599620091597017591,-64.00
2025-12-25 16:59:28.978652,599620091597017591,-62.00
2025-12-25 16:59:28.978652,599620091597017591,-59.00
2025-12-25 16:59:28.978652,599620091597017591,-66.00
2025-12-25 16:59:28.978652,599620091597017591,-52.00
2025-12-25 16:59:28.978652,599620091597017591,-27.00
2025-12-25 16:59:28.978652,599620091597017591,-20.00
2025-12-25 16:59:28.978652,599620091597017591,-20.00
2025-12-25 16:59:28.978652,599620091597017591,-32.00
2025-12-25 16:59:28.978652,599620091597017591,-68.00
2025-12-25 16:59:28.978652,599620091597017591,-82.00
2025-12-25 16:59:28.978652,599620091597017591,-75.00
2025-12-25 16:59:28.978652,599620091597017591,-87.00
2025-12-25 16:59:28.978652,599620091597017591,-101.00
2025-12-25 16:59:28.978652,599620091597017591,-98.00
2025-12-25 16:59:28.978652,599620091597017591,-96.00
2025-12-25 16:59:28.978652,599620091597017591,-96.00
2025-12-25 16:59:28.978652,599620091597017591,-96.00
2025-12-25 16:59:28.978652,599620091597017591,-80.00
2025-12-25 16:59:28.978652,599620091597017591,2.00
2025-12-25 16:59:28.978652,599620091597017591,243.00
2025-12-25 16:59:28.978652,599620091597017591,554.00
2025-12-25 16:59:28.978652,599620091597017591,429.00
2025-12-25 16:59:28.978652,599620091597017591,-411.00
2025-12-25 16:59:28.978652,599620091597017591,-1057.00
2025-12-25 16:59:28.978652,599620091597017591,-754.00
2025-12-25 16:59:28.978652,599620091597017591,-271.00
2025-12-25 16:59:28.978652,599620091597017591,-170.00
2025-12-25 16:59:28.978652,599620091597017591,-112.00
2025-12-25 16:59:28.978652,599620091597017591,-43.00
2025-12-25 16:59:28.978652,599620091597017591,-59.00
2025-12-25 16:59:28.978652,599620091597017591,-64.00
2025-12-25 16:59:28.978652,599620091597017591,-36.00
2025-12-25 16:59:28.978652,599620091597017591,-36.00
2025-12-25 16:59:28.978652,599620091597017591,-41.00
2025-12-25 16:59:28.978652,599620091597017591,-36.00
2025-12-25 16:59:28.978652,599620091597017591,-36.00
2025-12-25 16:59:28.978652,599620091597017591,-32.00
2025-12-25 16:59:28.978652,599620091597017591,-25.00
2025-12-25 16:59:28.978652,599620091597017591,-20.00
2025-12-25 16:59:28.978652,599620091597017591,-16.00
2025-12-25 16:59:28.978652,599620091597017591,-13.00
2025-12-25 16:59:28.978652,599620091597017591,-11.00
2025-12-25 16:59:28.978652,599620091597017591,-9.00
2025-12-25 16:59:29.572366,599620092157897740,-2.00
2025-12-25 16:59:29.572366,599620092157897740,6.00
2025-12-25 16:59:29.572366,599620092157897740,16.00
2025-12-25 16:59:29.572366,599620092157897740,29.00
2025-12-25 16:59:29.572366,599620092157897740,34.00
2025-12-25 16:59:29.572366,599620092157897740,34.00
2025-12-25 16:59:29.572366,599620092157897740,36.00
2025-12-25 16:59:29.572366,599620092157897740,45.00
2025-12-25 16:59:29.572366,599620092157897740,64.00
2025-12-25 16:59:29.572366,599620092157897740,75.00
2025-12-25 16:59:29.572366,599620092157897740,59.00
2025-12-25 16:59:29.572366,599620092157897740,39.00
2025-12-25 16:59:29.572366,599620092157897740,13.00
2025-12-25 16:59:29.572366,599620092157897740,-11.00
2025-12-25 16:59:29.572366,599620092157897740,-32.00
2025-12-25 16:59:29.572366,599620092157897740,-68.00
2025-12-25 16:59:29.572366,599620092157897740,-108.00
2025-12-25 16:59:29.572366,599620092157897740,-119.00
2025-12-25 16:59:29.572366,599620092157897740,-128.00
2025-12-25 16:59:29.572366,599620092157897740,-142.00
2025-12-25 16:59:29.572366,599620092157897740,-144.00
2025-12-25 16:59:29.572366,599620092157897740,-135.00
2025-12-25 16:59:29.572366,599620092157897740,-137.00
2025-12-25 16:59:29.572366,599620092157897740,-140.00
2025-12-25 16:59:29.572366,599620092157897740,-131.00
2025-12-25 16:59:29.572366,599620092157897740,-121.00
2025-12-25 16:59:29.572366,599620092157897740,-119.00
2025-12-25 16:59:29.572366,599620092157897740,-98.00
2025-12-25 16:59:29.572366,599620092157897740,-87.00
2025-12-25 16:59:29.572366,599620092157897740,-91.00
2025-12-25 16:59:29.572366,599620092157897740,-85.00
2025-12-25 16:59:29.572366,599620092157897740,-75.00
2025-12-25 16:59:29.572366,599620092157897740,-75.00
2025-12-25 16:59:29.572366,599620092157897740,-66.00
2025-12-25 16:59:29.572366,599620092157897740,-59.00
2025-12-25 16:59:29.572366,599620092157897740,-62.00
2025-12-25 16:59:29.572366,599620092157897740,-59.00
2025-12-25 16:59:29.572366,599620092157897740,-50.00
2025-12-25 16:59:29.572366,599620092157897740,-52.00
2025-12-25 16:59:29.572366,599620092157897740,-59.00
2025-12-25 16:59:29.572366,599620092157897740,-59.00
2025-12-25 16:59:29.572366,599620092157897740,-62.00
2025-12-25 16:59:29.572366,599620092157897740,-64.00
2025-12-25 16:59:29.572366,599620092157897740,-66.00
2025-12-25 16:59:29.572366,599620092157897740,-71.00
2025-12-25 16:59:29.572366,599620092157897740,-71.00
2025-12-25 16:59:29.572366,599620092157897740,-71.00
2025-12-25 16:59:29.572366,599620092157897740,-71.00
2025-12-25 16:59:29.572366,599620092157897740,-71.00
2025-12-25 16:59:29.572366,599620092157897740,-66.00
2025-12-25 16:59:29.572366,599620092157897740,-62.00
2025-12-25 16:59:29.572366,599620092157897740,-68.00
2025-12-25 16:59:29.572366,599620092157897740,-75.00
2025-12-25 16:59:29.572366,599620092157897740,-75.00
2025-12-25 16:59:29.572366,599620092157897740,-73.00
2025-12-25 16:59:29.572366,599620092157897740,-80.00
2025-12-25 16:59:29.572366,599620092157897740,-82.00
2025-12-25 16:59:29.572366,599620092157897740,-82.00
2025-12-25 16:59:29.572366,599620092157897740,-85.00
2025-12-25 16:59:29.572366,599620092157897740,-87.00
2025-12-25 16:59:29.572366,599620092157897740,-85.00
2025-12-25 16:59:29.572366,599620092157897740,-82.00
2025-12-25 16:59:29.572366,599620092157897740,-75.00
2025-12-25 16:59:29.572366,599620092157897740,-64.00
2025-12-25 16:59:29.572366,599620092157897740,-55.00
2025-12-25 16:59:29.572366,599620092157897740,-41.00
2025-12-25 16:59:29.572366,599620092157897740,-32.00
2025-12-25 16:59:29.572366,599620092157897740,-52.00
2025-12-25 16:59:29.572366,599620092157897740,-78.00
2025-12-25 16:59:29.572366,599620092157897740,-78.00
2025-12-25 16:59:29.572366,599620092157897740,-85.00
2025-12-25 16:59:29.572366,599620092157897740,-98.00
2025-12-25 16:59:29.572366,599620092157897740,-101.00
2025-12-25 16:59:30.192718,599620092718762629,-96.00
2025-12-25 16:59:30.192718,599620092718762629,-98.00
2025-12-25 16:59:30.192718,599620092718762629,-103.00
2025-12-25 16:59:30.192718,599620092718762629,-103.00
2025-12-25 16:59:30.192718,599620092718762629,-55.00
2025-12-25 16:59:30.192718,599620092718762629,133.00
2025-12-25 16:59:30.192718,599620092718762629,457.00
2025-12-25 16:59:30.192718,599620092718762629,567.00
2025-12-25 16:59:30.192718,599620092718762629,-39.00
2025-12-25 16:59:30.192718,599620092718762629,-908.00
2025-12-25 16:59:30.192718,599620092718762629,-940.00
2025-12-25 16:59:30.192718,599620092718762629,-374.00
2025-12-25 16:59:30.192718,599620092718762629,-124.00
2025-12-25 16:59:30.192718,599620092718762629,-108.00
2025-12-25 16:59:30.192718,599620092718762629,-41.00
2025-12-25 16:59:30.192718,599620092718762629,-27.00
2025-12-25 16:59:30.192718,599620092718762629,-45.00
2025-12-25 16:59:30.192718,599620092718762629,-16.00
2025-12-25 16:59:30.192718,599620092718762629,9.00
2025-12-25 16:59:30.192718,599620092718762629,6.00
2025-12-25 16:59:30.192718,599620092718762629,13.00
2025-12-25 16:59:30.192718,599620092718762629,25.00
2025-12-25 16:59:30.192718,599620092718762629,20.00
2025-12-25 16:59:30.192718,599620092718762629,18.00
2025-12-25 16:59:30.192718,599620092718762629,22.00
2025-12-25 16:59:30.192718,599620092718762629,25.00
2025-12-25 16:59:30.192718,599620092718762629,27.00
2025-12-25 16:59:30.192718,599620092718762629,29.00
2025-12-25 16:59:30.192718,599620092718762629,29.00
2025-12-25 16:59:30.192718,599620092718762629,32.00
2025-12-25 16:59:30.192718,599620092718762629,39.00
2025-12-25 16:59:30.192718,599620092718762629,43.00
2025-12-25 16:59:30.192718,599620092718762629,48.00
2025-12-25 16:59:30.192718,599620092718762629,55.00
2025-12-25 16:59:30.192718,599620092718762629,62.00
2025-12-25 16:59:30.192718,599620092718762629,71.00
2025-12-25 16:59:30.192718,599620092718762629,78.00
2025-12-25 16:59:30.192718,599620092718762629,82.00
2025-12-25 16:59:30.192718,599620092718762629,80.00
2025-12-25 16:59:30.192718,599620092718762629,71.00
2025-12-25 16:59:30.192718,599620092718762629,59.00
2025-12-25 16:59:30.192718,599620092718762629,43.00
2025-12-25 16:59:30.192718,599620092718762629,13.00
2025-12-25 16:59:30.192718,599620092718762629,-16.00
2025-12-25 16:59:30.192718,599620092718762629,-52.00
2025-12-25 16:59:30.192718,599620092718762629,-87.00
2025-12-25 16:59:30.192718,599620092718762629,-108.00
2025-12-25 16:59:30.192718,599620092718762629,-114.00
2025-12-25 16:59:30.192718,599620092718762629,-126.00
2025-12-25 16:59:30.192718,599620092718762629,-128.00
2025-12-25 16:59:30.192718,599620092718762629,-121.00
2025-12-25 16:59:30.192718,599620092718762629,-119.00
2025-12-25 16:59:30.192718,599620092718762629,-114.00
2025-12-25 16:59:30.192718,599620092718762629,-112.00
2025-12-25 16:59:30.192718,599620092718762629,-110.00
2025-12-25 16:59:30.192718,599620092718762629,-101.00
2025-12-25 16:59:30.192718,599620092718762629,-94.00
2025-12-25 16:59:30.192718,599620092718762629,-91.00
2025-12-25 16:59:30.192718,599620092718762629,-87.00
2025-12-25 16:59:30.192718,599620092718762629,-78.00
2025-12-25 16:59:30.192718,599620092718762629,-73.00
2025-12-25 16:59:30.192718,599620092718762629,-75.00
2025-12-25 16:59:30.192718,599620092718762629,-78.00
2025-12-25 16:59:30.192718,599620092718762629,-75.00
2025-12-25 16:59:30.192718,599620092718762629,-68.00
2025-12-25 16:59:30.192718,599620092718762629,-71.00
2025-12-25 16:59:30.192718,599620092718762629,-75.00
2025-12-25 16:59:30.192718,599620092718762629,-73.00
2025-12-25 16:59:30.192718,599620092718762629,-68.00
2025-12-25 16:59:30.192718,599620092718762629,-68.00
2025-12-25 16:59:30.192718,599620092718762629,-73.00
2025-12-25 16:59:30.192718,599620092718762629,-80.00
2025-12-25 16:59:30.192718,599620092718762629,-80.00
2025-12-25 16:59:30.672641,599620093279627520,-73.00
2025-12-25 16:59:30.672641,599620093279627520,-80.00
2025-12-25 16:59:30.672641,599620093279627520,-87.00
2025-12-25 16:59:30.672641,599620093279627520,-78.00
2025-12-25 16:59:30.672641,599620093279627520,-71.00
2025-12-25 16:59:30.672641,599620093279627520,-73.00
2025-12-25 16:59:30.672641,599620093279627520,-66.00
2025-12-25 16:59:30.672641,599620093279627520,-66.00
2025-12-25 16:59:30.672641,599620093279627520,-68.00
2025-12-25 16:59:30.672641,599620093279627520,-55.00
2025-12-25 16:59:30.672641,599620093279627520,-50.00
2025-12-25 16:59:30.672641,599620093279627520,-59.00
2025-12-25 16:59:30.672641,599620093279627520,-43.00
2025-12-25 16:59:30.672641,599620093279627520,-27.00
2025-12-25 16:59:30.672641,599620093279627520,-22.00
2025-12-25 16:59:30.672641,599620093279627520,-13.00
2025-12-25 16:59:30.672641,599620093279627520,-11.00
2025-12-25 16:59:30.672641,599620093279627520,-2.00
2025-12-25 16:59:30.672641,599620093279627520,13.00
2025-12-25 16:59:30.672641,599620093279627520,2.00
2025-12-25 16:59:30.672641,599620093279627520,-16.00
2025-12-25 16:59:30.672641,599620093279627520,-16.00
2025-12-25 16:59:30.672641,599620093279627520,-25.00
2025-12-25 16:59:30.672641,599620093279627520,-34.00
2025-12-25 16:59:30.672641,599620093279627520,-27.00
2025-12-25 16:59:30.672641,599620093279627520,-27.00
2025-12-25 16:59:30.672641,599620093279627520,-39.00
2025-12-25 16:59:30.672641,599620093279627520,-34.00
2025-12-25 16:59:30.672641,599620093279627520,-11.00
2025-12-25 16:59:30.672641,599620093279627520,4.00
2025-12-25 16:59:30.672641,599620093279627520,66.00
2025-12-25 16:59:30.672641,599620093279627520,273.00
2025-12-25 16:59:30.672641,599620093279627520,565.00
2025-12-25 16:59:30.672641,599620093279627520,524.00
2025-12-25 16:59:30.672641,599620093279627520,-206.00
2025-12-25 16:59:30.672641,599620093279627520,-926.00
2025-12-25 16:59:30.672641,599620093279627520,-756.00
2025-12-25 16:59:30.672641,599620093279627520,-232.00
2025-12-25 16:59:30.672641,599620093279627520,-75.00
2025-12-25 16:59:30.672641,599620093279627520,-41.00
2025-12-25 16:59:30.672641,599620093279627520,34.00
2025-12-25 16:59:30.672641,599620093279627520,20.00
2025-12-25 16:59:30.672641,599620093279627520,-11.00
2025-12-25 16:59:30.672641,599620093279627520,9.00
2025-12-25 16:59:30.672641,599620093279627520,6.00
2025-12-25 16:59:30.672641,599620093279627520,-13.00
2025-12-25 16:59:30.672641,599620093279627520,4.00
2025-12-25 16:59:30.672641,599620093279627520,39.00
2025-12-25 16:59:30.672641,599620093279627520,55.00
2025-12-25 16:59:30.672641,599620093279627520,48.00
2025-12-25 16:59:30.672641,599620093279627520,43.00
2025-12-25 16:59:30.672641,599620093279627520,45.00
2025-12-25 16:59:30.672641,599620093279627520,50.00
2025-12-25 16:59:30.672641,599620093279627520,50.00
2025-12-25 16:59:30.672641,599620093279627520,55.00
2025-12-25 16:59:30.672641,599620093279627520,66.00
2025-12-25 16:59:30.672641,599620093279627520,73.00
2025-12-25 16:59:30.672641,599620093279627520,64.00
2025-12-25 16:59:30.672641,599620093279627520,62.00
2025-12-25 16:59:30.672641,599620093279627520,80.00
2025-12-25 16:59:30.672641,599620093279627520,101.00
2025-12-25 16:59:30.672641,599620093279627520,110.00
2025-12-25 16:59:30.672641,599620093279627520,114.00
2025-12-25 16:59:30.672641,599620093279627520,126.00
2025-12-25 16:59:30.672641,599620093279627520,137.00
2025-12-25 16:59:30.672641,599620093279627520,117.00
2025-12-25 16:59:30.672641,599620093279627520,87.00
2025-12-25 16:59:30.672641,599620093279627520,75.00
2025-12-25 16:59:30.672641,599620093279627520,48.00
2025-12-25 16:59:30.672641,599620093279627520,-2.00
2025-12-25 16:59:30.672641,599620093279627520,-43.00
2025-12-25 16:59:30.672641,599620093279627520,-62.00
2025-12-25 16:59:30.672641,599620093279627520,-71.00
2025-12-25 16:59:31.154095,599620093840502581,-82.00
2025-12-25 16:59:31.154095,599620093840502581,-101.00
2025-12-25 16:59:31.154095,599620093840502581,-114.00
2025-12-25 16:59:31.154095,599620093840502581,-110.00
2025-12-25 16:59:31.154095,599620093840502581,-108.00
2025-12-25 16:59:31.154095,599620093840502581,-108.00
2025-12-25 16:59:31.154095,599620093840502581,-91.00
2025-12-25 16:59:31.154095,599620093840502581,-75.00
2025-12-25 16:59:31.154095,599620093840502581,-66.00
2025-12-25 16:59:31.154095,599620093840502581,-57.00
2025-12-25 16:59:31.154095,599620093840502581,-52.00
2025-12-25 16:59:31.154095,599620093840502581,-45.00
2025-12-25 16:59:31.154095,599620093840502581,-36.00
2025-12-25 16:59:31.154095,599620093840502581,-39.00
2025-12-25 16:59:31.154095,599620093840502581,-45.00
2025-12-25 16:59:31.154095,599620093840502581,-55.00
2025-12-25 16:59:31.154095,599620093840502581,-57.00
2025-12-25 16:59:31.154095,599620093840502581,-45.00
2025-12-25 16:59:31.154095,599620093840502581,-32.00
2025-12-25 16:59:31.154095,599620093840502581,-34.00
2025-12-25 16:59:31.154095,599620093840502581,-45.00
2025-12-25 16:59:31.154095,599620093840502581,-41.00
2025-12-25 16:59:31.154095,599620093840502581,-25.00
2025-12-25 16:59:31.154095,599620093840502581,-25.00
2025-12-25 16:59:31.154095,599620093840502581,-45.00
2025-12-25 16:59:31.154095,599620093840502581,-62.00
2025-12-25 16:59:31.154095,599620093840502581,-62.00
2025-12-25 16:59:31.154095,599620093840502581,-68.00
2025-12-25 16:59:31.154095,599620093840502581,-80.00
2025-12-25 16:59:31.154095,599620093840502581,-66.00
2025-12-25 16:59:31.154095,599620093840502581,-48.00
2025-12-25 16:59:31.154095,599620093840502581,-55.00
2025-12-25 16:59:31.154095,599620093840502581,-68.00
2025-12-25 16:59:31.154095,599620093840502581,-57.00
2025-12-25 16:59:31.154095,599620093840502581,-52.00
2025-12-25 16:59:31.154095,599620093840502581,-71.00
2025-12-25 16:59:31.154095,599620093840502581,-75.00
2025-12-25 16:59:31.154095,599620093840502581,-62.00
2025-12-25 16:59:31.154095,599620093840502581,-64.00
2025-12-25 16:59:31.154095,599620093840502581,-71.00
2025-12-25 16:59:31.154095,599620093840502581,-57.00
2025-12-25 16:59:31.154095,599620093840502581,-45.00
2025-12-25 16:59:31.154095,599620093840502581,-43.00
2025-12-25 16:59:31.154095,599620093840502581,-27.00
2025-12-25 16:59:31.154095,599620093840502581,-25.00
2025-12-25 16:59:31.154095,599620093840502581,-59.00
2025-12-25 16:59:31.154095,599620093840502581,-82.00
2025-12-25 16:59:31.154095,599620093840502581,-78.00
2025-12-25 16:59:31.154095,599620093840502581,-89.00
2025-12-25 16:59:31.154095,599620093840502581,-91.00
2025-12-25 16:59:31.154095,599620093840502581,-80.00
2025-12-25 16:59:31.154095,599620093840502581,-87.00
2025-12-25 16:59:31.154095,599620093840502581,-98.00
2025-12-25 16:59:31.154095,599620093840502581,-94.00
2025-12-25 16:59:31.154095,599620093840502581,-87.00
2025-12-25 16:59:31.154095,599620093840502581,-39.00
2025-12-25 16:59:31.154095,599620093840502581,140.00
2025-12-25 16:59:31.154095,599620093840502581,441.00
2025-12-25 16:59:31.154095,599620093840502581,524.00
2025-12-25 16:59:31.154095,599620093840502581,-91.00
2025-12-25 16:59:31.154095,599620093840502581,-940.00
2025-12-25 16:59:31.154095,599620093840502581,-942.00
2025-12-25 16:59:31.154095,599620093840502581,-351.00
2025-12-25 16:59:31.154095,599620093840502581,-98.00
2025-12-25 16:59:31.154095,599620093840502581,-103.00
2025-12-25 16:59:31.154095,599620093840502581,-50.00
2025-12-25 16:59:31.154095,599620093840502581,-27.00
2025-12-25 16:59:31.154095,599620093840502581,-45.00
2025-12-25 16:59:31.154095,599620093840502581,-32.00
2025-12-25 16:59:31.154095,599620093840502581,-13.00
2025-12-25 16:59:31.154095,599620093840502581,-20.00
2025-12-25 16:59:31.154095,599620093840502581,-13.00
2025-12-25 16:59:31.154095,599620093840502581,11.00
2025-12-25 16:59:31.835450,599620094401357300,25.00
2025-12-25 16:59:31.835450,599620094401357300,18.00
2025-12-25 16:59:31.835450,599620094401357300,18.00
2025-12-25 16:59:31.835450,599620094401357300,25.00
2025-12-25 16:59:31.835450,599620094401357300,25.00
2025-12-25 16:59:31.835450,599620094401357300,27.00
2025-12-25 16:59:31.835450,599620094401357300,34.00
2025-12-25 16:59:31.835450,599620094401357300,41.00
2025-12-25 16:59:31.835450,599620094401357300,50.00
2025-12-25 16:59:31.835450,599620094401357300,68.00
2025-12-25 16:59:31.835450,599620094401357300,85.00
2025-12-25 16:59:31.835450,599620094401357300,87.00
2025-12-25 16:59:31.835450,599620094401357300,91.00
2025-12-25 16:59:31.835450,599620094401357300,103.00
2025-12-25 16:59:31.835450,599620094401357300,108.00
2025-12-25 16:59:31.835450,599620094401357300,112.00
2025-12-25 16:59:31.835450,599620094401357300,117.00
2025-12-25 16:59:31.835450,599620094401357300,112.00
2025-12-25 16:59:31.835450,599620094401357300,98.00
2025-12-25 16:59:31.835450,599620094401357300,85.00
2025-12-25 16:59:31.835450,599620094401357300,52.00
2025-12-25 16:59:31.835450,599620094401357300,4.00
2025-12-25 16:59:31.835450,599620094401357300,-29.00
2025-12-25 16:59:31.835450,599620094401357300,-50.00
2025-12-25 16:59:31.835450,599620094401357300,-71.00
2025-12-25 16:59:31.835450,599620094401357300,-96.00
2025-12-25 16:59:31.835450,599620094401357300,-105.00
2025-12-25 16:59:31.835450,599620094401357300,-105.00
2025-12-25 16:59:31.835450,599620094401357300,-105.00
2025-12-25 16:59:31.835450,599620094401357300,-105.00
2025-12-25 16:59:31.835450,599620094401357300,-103.00
2025-12-25 16:59:31.835450,599620094401357300,-101.00
2025-12-25 16:59:31.835450,599620094401357300,-91.00
2025-12-25 16:59:31.835450,599620094401357300,-82.00
2025-12-25 16:59:31.835450,599620094401357300,-80.00
2025-12-25 16:59:31.835450,599620094401357300,-75.00
2025-12-25 16:59:31.835450,599620094401357300,-71.00
2025-12-25 16:59:31.835450,599620094401357300,-68.00
2025-12-25 16:59:31.835450,599620094401357300,-64.00
2025-12-25 16:59:31.835450,599620094401357300,-57.00
2025-12-25 16:59:31.835450,599620094401357300,-52.00
2025-12-25 16:59:31.835450,599620094401357300,-52.00
2025-12-25 16:59:31.835450,599620094401357300,-50.00
2025-12-25 16:59:31.835450,599620094401357300,-52.00
2025-12-25 16:59:31.835450,599620094401357300,-52.00
2025-12-25 16:59:31.835450,599620094401357300,-50.00
2025-12-25 16:59:31.835450,599620094401357300,-52.00
2025-12-25 16:59:31.835450,599620094401357300,-55.00
2025-12-25 16:59:31.835450,599620094401357300,-57.00
2025-12-25 16:59:31.835450,599620094401357300,-59.00
2025-12-25 16:59:31.835450,599620094401357300,-57.00
2025-12-25 16:59:31.835450,599620094401357300,-50.00
2025-12-25 16:59:31.835450,599620094401357300,-52.00
2025-12-25 16:59:31.835450,599620094401357300,-62.00
2025-12-25 16:59:31.835450,599620094401357300,-64.00
2025-12-25 16:59:31.835450,599620094401357300,-62.00
2025-12-25 16:59:31.835450,599620094401357300,-57.00
2025-12-25 16:59:31.835450,599620094401357300,-55.00
2025-12-25 16:59:31.835450,599620094401357300,-55.00
2025-12-25 16:59:31.835450,599620094401357300,-57.00
2025-12-25 16:59:31.835450,599620094401357300,-62.00
2025-12-25 16:59:31.835450,599620094401357300,-57.00
2025-12-25 16:59:31.835450,599620094401357300,-50.00
2025-12-25 16:59:31.835450,599620094401357300,-50.00
2025-12-25 16:59:31.835450,599620094401357300,-50.00
2025-12-25 16:59:31.835450,599620094401357300,-39.00
2025-12-25 16:59:31.835450,599620094401357300,-29.00
2025-12-25 16:59:31.835450,599620094401357300,-22.00
2025-12-25 16:59:31.835450,599620094401357300,-9.00
2025-12-25 16:59:31.835450,599620094401357300,-4.00
2025-12-25 16:59:31.835450,599620094401357300,-25.00
2025-12-25 16:59:31.835450,599620094401357300,-48.00
2025-12-25 16:59:31.835450,599620094401357300,-55.00
2025-12-25 16:59:32.465236,599620094962237451,-59.00
2025-12-25 16:59:32.465236,599620094962237451,-64.00
2025-12-25 16:59:32.465236,599620094962237451,-59.00
2025-12-25 16:59:32.465236,599620094962237451,-52.00
2025-12-25 16:59:32.465236,599620094962237451,-64.00
2025-12-25 16:59:32.465236,599620094962237451,-75.00
2025-12-25 16:59:32.465236,599620094962237451,-68.00
2025-12-25 16:59:32.465236,599620094962237451,-34.00
2025-12-25 16:59:32.465236,599620094962237451,85.00
2025-12-25 16:59:32.465236,599620094962237451,363.00
2025-12-25 16:59:32.465236,599620094962237451,625.00
2025-12-25 16:59:32.465236,599620094962237451,335.00
2025-12-25 16:59:32.465236,599620094962237451,-577.00
2025-12-25 16:59:32.465236,599620094962237451,-1069.00
2025-12-25 16:59:32.465236,599620094962237451,-618.00
2025-12-25 16:59:32.465236,599620094962237451,-142.00
2025-12-25 16:59:32.465236,599620094962237451,-89.00
2025-12-25 16:59:32.465236,599620094962237451,-59.00
2025-12-25 16:59:32.465236,599620094962237451,-4.00
2025-12-25 16:59:32.465236,599620094962237451,-18.00
2025-12-25 16:59:32.465236,599620094962237451,-13.00
2025-12-25 16:59:32.465236,599620094962237451,13.00
2025-12-25 16:59:32.465236,599620094962237451,11.00
2025-12-25 16:59:32.465236,599620094962237451,9.00
2025-12-25 16:59:32.465236,599620094962237451,16.00
2025-12-25 16:59:32.465236,599620094962237451,16.00
2025-12-25 16:59:32.465236,599620094962237451,13.00
2025-12-25 16:59:32.465236,599620094962237451,20.00
2025-12-25 16:59:32.465236,599620094962237451,25.00
2025-12-25 16:59:32.465236,599620094962237451,27.00
2025-12-25 16:59:32.465236,599620094962237451,34.00
2025-12-25 16:59:32.465236,599620094962237451,34.00
2025-12-25 16:59:32.465236,599620094962237451,39.00
2025-12-25 16:59:32.465236,599620094962237451,48.00
2025-12-25 16:59:32.465236,599620094962237451,55.00
2025-12-25 16:59:32.465236,599620094962237451,59.00
2025-12-25 16:59:32.465236,599620094962237451,73.00
2025-12-25 16:59:32.465236,599620094962237451,85.00
2025-12-25 16:59:32.465236,599620094962237451,87.00
2025-12-25 16:59:32.465236,599620094962237451,94.00
2025-12-25 16:59:32.465236,599620094962237451,101.00
2025-12-25 16:59:32.465236,599620094962237451,103.00
2025-12-25 16:59:32.465236,599620094962237451,101.00
2025-12-25 16:59:32.465236,599620094962237451,89.00
2025-12-25 16:59:32.465236,599620094962237451,71.00
2025-12-25 16:59:32.465236,599620094962237451,52.00
2025-12-25 16:59:32.465236,599620094962237451,18.00
2025-12-25 16:59:32.465236,599620094962237451,-22.00
2025-12-25 16:59:32.465236,599620094962237451,-55.00
2025-12-25 16:59:32.465236,599620094962237451,-80.00
2025-12-25 16:59:32.465236,599620094962237451,-103.00
2025-12-25 16:59:32.465236,599620094962237451,-108.00
2025-12-25 16:59:32.465236,599620094962237451,-108.00
2025-12-25 16:59:32.465236,599620094962237451,-108.00
2025-12-25 16:59:32.465236,599620094962237451,-105.00
2025-12-25 16:59:32.465236,599620094962237451,-103.00
2025-12-25 16:59:32.465236,599620094962237451,-96.00
2025-12-25 16:59:32.465236,599620094962237451,-82.00
2025-12-25 16:59:32.465236,599620094962237451,-73.00
2025-12-25 16:59:32.465236,599620094962237451,-73.00
2025-12-25 16:59:32.465236,599620094962237451,-73.00
2025-12-25 16:59:32.465236,599620094962237451,-68.00
2025-12-25 16:59:32.465236,599620094962237451,-62.00
2025-12-25 16:59:32.465236,599620094962237451,-52.00
2025-12-25 16:59:32.465236,599620094962237451,-43.00
2025-12-25 16:59:32.465236,599620094962237451,-41.00
2025-12-25 16:59:32.465236,599620094962237451,-41.00
2025-12-25 16:59:32.465236,599620094962237451,-43.00
2025-12-25 16:59:32.465236,599620094962237451,-45.00
2025-12-25 16:59:32.465236,599620094962237451,-34.00
2025-12-25 16:59:32.465236,599620094962237451,-32.00
2025-12-25 16:59:32.465236,599620094962237451,-39.00
2025-12-25 16:59:32.465236,599620094962237451,-41.00
2025-12-25 16:59:32.884587,599620095523097254,-36.00
2025-12-25 16:59:32.884587,599620095523097254,-39.00
2025-12-25 16:59:32.884587,599620095523097254,-45.00
2025-12-25 16:59:32.884587,599620095523097254,-48.00
2025-12-25 16:59:32.884587,599620095523097254,-43.00
2025-12-25 16:59:32.884587,599620095523097254,-43.00
2025-12-25 16:59:32.884587,599620095523097254,-50.00
2025-12-25 16:59:32.884587,599620095523097254,-50.00
2025-12-25 16:59:32.884587,599620095523097254,-43.00
2025-12-25 16:59:32.884587,599620095523097254,-36.00
2025-12-25 16:59:32.884587,599620095523097254,-27.00
2025-12-25 16:59:32.884587,599620095523097254,-18.00
2025-12-25 16:59:32.884587,599620095523097254,-20.00
2025-12-25 16:59:32.884587,599620095523097254,-27.00
2025-12-25 16:59:32.884587,599620095523097254,-22.00
2025-12-25 16:59:32.884587,599620095523097254,-13.00
2025-12-25 16:59:32.884587,599620095523097254,-9.00
2025-12-25 16:59:32.884587,599620095523097254,-11.00
2025-12-25 16:59:32.884587,599620095523097254,-18.00
2025-12-25 16:59:32.884587,599620095523097254,-22.00
2025-12-25 16:59:32.884587,599620095523097254,-25.00
2025-12-25 16:59:32.884587,599620095523097254,-16.00
2025-12-25 16:59:32.884587,599620095523097254,-6.00
2025-12-25 16:59:32.884587,599620095523097254,2.00
2025-12-25 16:59:32.884587,599620095523097254,13.00
2025-12-25 16:59:32.884587,599620095523097254,6.00
2025-12-25 16:59:32.884587,599620095523097254,-18.00
2025-12-25 16:59:32.884587,599620095523097254,-34.00
2025-12-25 16:59:32.884587,599620095523097254,-39.00
2025-12-25 16:59:32.884587,599620095523097254,-43.00
2025-12-25 16:59:32.884587,599620095523097254,-45.00
2025-12-25 16:59:32.884587,599620095523097254,-50.00
2025-12-25 16:59:32.884587,599620095523097254,-57.00
2025-12-25 16:59:32.884587,599620095523097254,-59.00
2025-12-25 16:59:32.884587,599620095523097254,-62.00
2025-12-25 16:59:32.884587,599620095523097254,-62.00
2025-12-25 16:59:32.884587,599620095523097254,-25.00
2025-12-25 16:59:32.884587,599620095523097254,128.00
2025-12-25 16:59:32.884587,599620095523097254,427.00
2025-12-25 16:59:32.884587,599620095523097254,588.00
2025-12-25 16:59:32.884587,599620095523097254,91.00
2025-12-25 16:59:32.884587,599620095523097254,-806.00
2025-12-25 16:59:32.884587,599620095523097254,-986.00
2025-12-25 16:59:32.884587,599620095523097254,-404.00
2025-12-25 16:59:32.884587,599620095523097254,-59.00
2025-12-25 16:59:32.884587,599620095523097254,-73.00
2025-12-25 16:59:32.884587,599620095523097254,-36.00
2025-12-25 16:59:32.884587,599620095523097254,4.00
2025-12-25 16:59:32.884587,599620095523097254,-18.00
2025-12-25 16:59:32.884587,599620095523097254,-6.00
2025-12-25 16:59:32.884587,599620095523097254,27.00
2025-12-25 16:59:32.884587,599620095523097254,25.00
2025-12-25 16:59:32.884587,599620095523097254,13.00
2025-12-25 16:59:32.884587,599620095523097254,18.00
2025-12-25 16:59:32.884587,599620095523097254,22.00
2025-12-25 16:59:32.884587,599620095523097254,25.00
2025-12-25 16:59:32.884587,599620095523097254,32.00
2025-12-25 16:59:32.884587,599620095523097254,39.00
2025-12-25 16:59:32.884587,599620095523097254,39.00
2025-12-25 16:59:32.884587,599620095523097254,39.00
2025-12-25 16:59:32.884587,599620095523097254,45.00
2025-12-25 16:59:32.884587,599620095523097254,50.00
2025-12-25 16:59:32.884587,599620095523097254,52.00
2025-12-25 16:59:32.884587,599620095523097254,59.00
2025-12-25 16:59:32.884587,599620095523097254,66.00
2025-12-25 16:59:32.884587,599620095523097254,73.00
2025-12-25 16:59:32.884587,599620095523097254,78.00
2025-12-25 16:59:32.884587,599620095523097254,80.00
2025-12-25 16:59:32.884587,599620095523097254,89.00
2025-12-25 16:59:32.884587,599620095523097254,96.00
2025-12-25 16:59:32.884587,599620095523097254,94.00
2025-12-25 16:59:32.884587,599620095523097254,89.00
2025-12-25 16:59:32.884587,599620095523097254,75.00
2025-12-25 16:59:33.450906,599620096083982489,55.00
2025-12-25 16:59:33.450906,599620096083982489,36.00
2025-12-25 16:59:33.450906,599620096083982489,6.00
2025-12-25 16:59:33.450906,599620096083982489,-29.00
2025-12-25 16:59:33.450906,599620096083982489,-57.00
2025-12-25 16:59:33.450906,599620096083982489,-80.00
2025-12-25 16:59:33.450906,599620096083982489,-98.00
2025-12-25 16:59:33.450906,599620096083982489,-103.00
2025-12-25 16:59:33.450906,599620096083982489,-98.00
2025-12-25 16:59:33.450906,599620096083982489,-103.00
2025-12-25 16:59:33.450906,599620096083982489,-105.00
2025-12-25 16:59:33.450906,599620096083982489,-105.00
2025-12-25 16:59:33.450906,599620096083982489,-96.00
2025-12-25 16:59:33.450906,599620096083982489,-75.00
2025-12-25 16:59:33.450906,599620096083982489,-66.00
2025-12-25 16:59:33.450906,599620096083982489,-73.00
2025-12-25 16:59:33.450906,599620096083982489,-75.00
2025-12-25 16:59:33.450906,599620096083982489,-68.00
2025-12-25 16:59:33.450906,599620096083982489,-59.00
2025-12-25 16:59:33.450906,599620096083982489,-50.00
2025-12-25 16:59:33.450906,599620096083982489,-45.00
2025-12-25 16:59:33.450906,599620096083982489,-45.00
2025-12-25 16:59:33.450906,599620096083982489,-45.00
2025-12-25 16:59:33.450906,599620096083982489,-45.00
2025-12-25 16:59:33.450906,599620096083982489,-39.00
2025-12-25 16:59:33.450906,599620096083982489,-36.00
2025-12-25 16:59:33.450906,599620096083982489,-39.00
2025-12-25 16:59:33.450906,599620096083982489,-43.00
2025-12-25 16:59:33.450906,599620096083982489,-45.00
2025-12-25 16:59:33.450906,599620096083982489,-45.00
2025-12-25 16:59:33.450906,599620096083982489,-45.00
2025-12-25 16:59:33.450906,599620096083982489,-43.00
2025-12-25 16:59:33.450906,599620096083982489,-45.00
2025-12-25 16:59:33.450906,599620096083982489,-50.00
2025-12-25 16:59:33.450906,599620096083982489,-50.00
2025-12-25 16:59:33.450906,599620096083982489,-48.00
2025-12-25 16:59:33.450906,599620096083982489,-43.00
2025-12-25 16:59:33.450906,599620096083982489,-45.00
2025-12-25 16:59:33.450906,599620096083982489,-48.00
2025-12-25 16:59:33.450906,599620096083982489,-50.00
2025-12-25 16:59:33.450906,599620096083982489,-50.00
2025-12-25 16:59:33.450906,599620096083982489,-50.00
2025-12-25 16:59:33.450906,599620096083982489,-48.00
2025-12-25 16:59:33.450906,599620096083982489,-41.00
2025-12-25 16:59:33.450906,599620096083982489,-41.00
2025-12-25 16:59:33.450906,599620096083982489,-45.00
2025-12-25 16:59:33.450906,599620096083982489,-48.00
2025-12-25 16:59:33.450906,599620096083982489,-48.00
2025-12-25 16:59:33.450906,599620096083982489,-50.00
2025-12-25 16:59:33.450906,599620096083982489,-48.00
2025-12-25 16:59:33.450906,599620096083982489,-48.00
2025-12-25 16:59:33.450906,599620096083982489,-55.00
2025-12-25 16:59:33.450906,599620096083982489,-55.00
2025-12-25 16:59:33.450906,599620096083982489,-52.00
2025-12-25 16:59:33.450906,599620096083982489,-57.00
2025-12-25 16:59:33.450906,599620096083982489,-57.00
2025-12-25 16:59:33.450906,599620096083982489,-52.00
2025-12-25 16:59:33.450906,599620096083982489,-50.00
2025-12-25 16:59:33.450906,599620096083982489,-48.00
2025-12-25 16:59:33.450906,599620096083982489,-34.00
2025-12-25 16:59:33.450906,599620096083982489,-20.00
2025-12-25 16:59:33.450906,599620096083982489,-29.00
2025-12-25 16:59:33.450906,599620096083982489,-57.00
2025-12-25 16:59:33.450906,599620096083982489,-71.00
2025-12-25 16:59:33.450906,599620096083982489,-73.00
2025-12-25 16:59:33.450906,599620096083982489,-78.00
2025-12-25 16:59:33.450906,599620096083982489,-78.00
2025-12-25 16:59:33.450906,599620096083982489,-78.00
2025-12-25 16:59:33.450906,599620096083982489,-80.00
2025-12-25 16:59:33.450906,599620096083982489,-85.00
2025-12-25 16:59:33.450906,599620096083982489,-87.00
2025-12-25 16:59:33.450906,599620096083982489,-78.00
2025-12-25 16:59:33.450906,599620096083982489,-13.00
2025-12-25 16:59:33.953691,599620096644847380,186.00
2025-12-25 16:59:33.953691,599620096644847380,478.00
2025-12-25 16:59:33.953691,599620096644847380,482.00
2025-12-25 16:59:33.953691,599620096644847380,-200.00
2025-12-25 16:59:33.953691,599620096644847380,-970.00
2025-12-25 16:59:33.953691,599620096644847380,-841.00
2025-12-25 16:59:33.953691,599620096644847380,-257.00
2025-12-25 16:59:33.953691,599620096644847380,-73.00
2025-12-25 16:59:33.953691,599620096644847380,-94.00
2025-12-25 16:59:33.953691,599620096644847380,-36.00
2025-12-25 16:59:33.953691,599620096644847380,-9.00
2025-12-25 16:59:33.953691,599620096644847380,-16.00
2025-12-25 16:59:33.953691,599620096644847380,-2.00
2025-12-25 16:59:33.953691,599620096644847380,11.00
2025-12-25 16:59:33.953691,599620096644847380,4.00
2025-12-25 16:59:33.953691,599620096644847380,2.00
2025-12-25 16:59:33.953691,599620096644847380,9.00
2025-12-25 16:59:33.953691,599620096644847380,13.00
2025-12-25 16:59:33.953691,599620096644847380,13.00
2025-12-25 16:59:33.953691,599620096644847380,13.00
2025-12-25 16:59:33.953691,599620096644847380,16.00
2025-12-25 16:59:33.953691,599620096644847380,20.00
2025-12-25 16:59:33.953691,599620096644847380,29.00
2025-12-25 16:59:33.953691,599620096644847380,36.00
2025-12-25 16:59:33.953691,599620096644847380,39.00
2025-12-25 16:59:33.953691,599620096644847380,45.00
2025-12-25 16:59:33.953691,599620096644847380,59.00
2025-12-25 16:59:33.953691,599620096644847380,66.00
2025-12-25 16:59:33.953691,599620096644847380,73.00
2025-12-25 16:59:33.953691,599620096644847380,85.00
2025-12-25 16:59:33.953691,599620096644847380,91.00
2025-12-25 16:59:33.953691,599620096644847380,91.00
2025-12-25 16:59:33.953691,599620096644847380,89.00
2025-12-25 16:59:33.953691,599620096644847380,91.00
2025-12-25 16:59:33.953691,599620096644847380,94.00
2025-12-25 16:59:33.953691,599620096644847380,89.00
2025-12-25 16:59:33.953691,599620096644847380,75.00
2025-12-25 16:59:33.953691,599620096644847380,41.00
2025-12-25 16:59:33.953691,599620096644847380,6.00
2025-12-25 16:59:33.953691,599620096644847380,-20.00
2025-12-25 16:59:33.953691,599620096644847380,-48.00
2025-12-25 16:59:33.953691,599620096644847380,-73.00
2025-12-25 16:59:33.953691,599620096644847380,-85.00
2025-12-25 16:59:33.953691,599620096644847380,-87.00
2025-12-25 16:59:33.953691,599620096644847380,-89.00
2025-12-25 16:59:33.953691,599620096644847380,-87.00
2025-12-25 16:59:33.953691,599620096644847380,-82.00
2025-12-25 16:59:33.953691,599620096644847380,-80.00
2025-12-25 16:59:33.953691,599620096644847380,-78.00
2025-12-25 16:59:33.953691,599620096644847380,-68.00
2025-12-25 16:59:33.953691,599620096644847380,-64.00
2025-12-25 16:59:33.953691,599620096644847380,-62.00
2025-12-25 16:59:33.953691,599620096644847380,-59.00
2025-12-25 16:59:33.953691,599620096644847380,-57.00
2025-12-25 16:59:33.953691,599620096644847380,-52.00
2025-12-25 16:59:33.953691,599620096644847380,-52.00
2025-12-25 16:59:33.953691,599620096644847380,-55.00
2025-12-25 16:59:33.953691,599620096644847380,-52.00
2025-12-25 16:59:33.953691,599620096644847380,-45.00
2025-12-25 16:59:33.953691,599620096644847380,-45.00
2025-12-25 16:59:33.953691,599620096644847380,-52.00
2025-12-25 16:59:33.953691,599620096644847380,-50.00
2025-12-25 16:59:33.953691,599620096644847380,-43.00
2025-12-25 16:59:33.953691,599620096644847380,-50.00
2025-12-25 16:59:33.953691,599620096644847380,-57.00
2025-12-25 16:59:33.953691,599620096644847380,-55.00
2025-12-25 16:59:33.953691,599620096644847380,-57.00
2025-12-25 16:59:33.953691,599620096644847380,-66.00
2025-12-25 16:59:33.953691,599620096644847380,-68.00
2025-12-25 16:59:33.953691,599620096644847380,-64.00
2025-12-25 16:59:33.953691,599620096644847380,-66.00
2025-12-25 16:59:33.953691,599620096644847380,-73.00
2025-12-25 16:59:33.953691,599620096644847380,-71.00
2025-12-25 16:59:34.538106,599620097205722441,-64.00
2025-12-25 16:59:34.538106,599620097205722441,-62.00
2025-12-25 16:59:34.538106,599620097205722441,-71.00
2025-12-25 16:59:34.538106,599620097205722441,-75.00
2025-12-25 16:59:34.538106,599620097205722441,-66.00
2025-12-25 16:59:34.538106,599620097205722441,-66.00
2025-12-25 16:59:34.538106,599620097205722441,-78.00
2025-12-25 16:59:34.538106,599620097205722441,-68.00
2025-12-25 16:59:34.538106,599620097205722441,-50.00
2025-12-25 16:59:34.538106,599620097205722441,-55.00
2025-12-25 16:59:34.538106,599620097205722441,-64.00
2025-12-25 16:59:34.538106,599620097205722441,-64.00
2025-12-25 16:59:34.538106,599620097205722441,-64.00
2025-12-25 16:59:34.538106,599620097205722441,-66.00
2025-12-25 16:59:34.538106,599620097205722441,-64.00
2025-12-25 16:59:34.538106,599620097205722441,-66.00
2025-12-25 16:59:34.538106,599620097205722441,-68.00
2025-12-25 16:59:34.538106,599620097205722441,-62.00
2025-12-25 16:59:34.538106,599620097205722441,-62.00
2025-12-25 16:59:34.538106,599620097205722441,-68.00
2025-12-25 16:59:34.538106,599620097205722441,-66.00
2025-12-25 16:59:34.538106,599620097205722441,-66.00
2025-12-25 16:59:34.538106,599620097205722441,-73.00
2025-12-25 16:59:34.538106,599620097205722441,-75.00
2025-12-25 16:59:34.538106,599620097205722441,-73.00
2025-12-25 16:59:34.538106,599620097205722441,-73.00
2025-12-25 16:59:34.538106,599620097205722441,-73.00
2025-12-25 16:59:34.538106,599620097205722441,-68.00
2025-12-25 16:59:34.538106,599620097205722441,-59.00
2025-12-25 16:59:34.538106,599620097205722441,-52.00
2025-12-25 16:59:34.538106,599620097205722441,-50.00
2025-12-25 16:59:34.538106,599620097205722441,-36.00
2025-12-25 16:59:34.538106,599620097205722441,-18.00
2025-12-25 16:59:34.538106,599620097205722441,-27.00
2025-12-25 16:59:34.538106,599620097205722441,-64.00
2025-12-25 16:59:34.538106,599620097205722441,-78.00
2025-12-25 16:59:34.538106,599620097205722441,-73.00
2025-12-25 16:59:34.538106,599620097205722441,-82.00
2025-12-25 16:59:34.538106,599620097205722441,-89.00
2025-12-25 16:59:34.538106,599620097205722441,-85.00
2025-12-25 16:59:34.538106,599620097205722441,-87.00
2025-12-25 16:59:34.538106,599620097205722441,-91.00
2025-12-25 16:59:34.538106,599620097205722441,-89.00
2025-12-25 16:59:34.538106,599620097205722441,-80.00
2025-12-25 16:59:34.538106,599620097205722441,-13.00
2025-12-25 16:59:34.538106,599620097205722441,188.00
2025-12-25 16:59:34.538106,599620097205722441,471.00
2025-12-25 16:59:34.538106,599620097205722441,446.00
2025-12-25 16:59:34.538106,599620097205722441,-257.00
2025-12-25 16:59:34.538106,599620097205722441,-995.00
2025-12-25 16:59:34.538106,599620097205722441,-827.00
2025-12-25 16:59:34.538106,599620097205722441,-259.00
2025-12-25 16:59:34.538106,599620097205722441,-89.00
2025-12-25 16:59:34.538106,599620097205722441,-96.00
2025-12-25 16:59:34.538106,599620097205722441,-36.00
2025-12-25 16:59:34.538106,599620097205722441,-18.00
2025-12-25 16:59:34.538106,599620097205722441,-34.00
2025-12-25 16:59:34.538106,599620097205722441,-20.00
2025-12-25 16:59:34.538106,599620097205722441,-9.00
2025-12-25 16:59:34.538106,599620097205722441,-11.00
2025-12-25 16:59:34.538106,599620097205722441,-6.00
2025-12-25 16:59:34.538106,599620097205722441,2.00
2025-12-25 16:59:34.538106,599620097205722441,0.00
2025-12-25 16:59:34.538106,599620097205722441,0.00
2025-12-25 16:59:34.538106,599620097205722441,11.00
2025-12-25 16:59:34.538106,599620097205722441,18.00
2025-12-25 16:59:34.538106,599620097205722441,18.00
2025-12-25 16:59:34.538106,599620097205722441,22.00
2025-12-25 16:59:34.538106,599620097205722441,29.00
2025-12-25 16:59:34.538106,599620097205722441,36.00
2025-12-25 16:59:34.538106,599620097205722441,43.00
2025-12-25 16:59:34.538106,599620097205722441,50.00
2025-12-25 16:59:34.538106,599620097205722441,59.00
2025-12-25 16:59:35.184882,599620097766577158,68.00
2025-12-25 16:59:35.184882,599620097766577158,75.00
2025-12-25 16:59:35.184882,599620097766577158,80.00
2025-12-25 16:59:35.184882,599620097766577158,87.00
2025-12-25 16:59:35.184882,599620097766577158,96.00
2025-12-25 16:59:35.184882,599620097766577158,105.00
2025-12-25 16:59:35.184882,599620097766577158,103.00
2025-12-25 16:59:35.184882,599620097766577158,94.00
2025-12-25 16:59:35.184882,599620097766577158,75.00
2025-12-25 16:59:35.184882,599620097766577158,50.00
2025-12-25 16:59:35.184882,599620097766577158,20.00
2025-12-25 16:59:35.184882,599620097766577158,-11.00
2025-12-25 16:59:35.184882,599620097766577158,-41.00
2025-12-25 16:59:35.184882,599620097766577158,-59.00
2025-12-25 16:59:35.184882,599620097766577158,-73.00
2025-12-25 16:59:35.184882,599620097766577158,-87.00
2025-12-25 16:59:35.184882,599620097766577158,-89.00
2025-12-25 16:59:35.184882,599620097766577158,-87.00
2025-12-25 16:59:35.184882,599620097766577158,-89.00
2025-12-25 16:59:35.184882,599620097766577158,-91.00
2025-12-25 16:59:35.184882,599620097766577158,-80.00
2025-12-25 16:59:35.184882,599620097766577158,-73.00
2025-12-25 16:59:35.184882,599620097766577158,-71.00
2025-12-25 16:59:35.184882,599620097766577158,-66.00
2025-12-25 16:59:35.184882,599620097766577158,-64.00
2025-12-25 16:59:35.184882,599620097766577158,-68.00
2025-12-25 16:59:35.184882,599620097766577158,-66.00
2025-12-25 16:59:35.184882,599620097766577158,-59.00
2025-12-25 16:59:35.184882,599620097766577158,-59.00
2025-12-25 16:59:35.184882,599620097766577158,-64.00
2025-12-25 16:59:35.184882,599620097766577158,-68.00
2025-12-25 16:59:35.184882,599620097766577158,-71.00
2025-12-25 16:59:35.184882,599620097766577158,-73.00
2025-12-25 16:59:35.184882,599620097766577158,-71.00
2025-12-25 16:59:35.184882,599620097766577158,-66.00
2025-12-25 16:59:35.184882,599620097766577158,-68.00
2025-12-25 16:59:35.184882,599620097766577158,-75.00
2025-12-25 16:59:35.184882,599620097766577158,-82.00
2025-12-25 16:59:35.184882,599620097766577158,-80.00
2025-12-25 16:59:35.184882,599620097766577158,-78.00
2025-12-25 16:59:35.184882,599620097766577158,-75.00
2025-12-25 16:59:35.184882,599620097766577158,-78.00
2025-12-25 16:59:35.184882,599620097766577158,-80.00
2025-12-25 16:59:35.184882,599620097766577158,-85.00
2025-12-25 16:59:35.184882,599620097766577158,-85.00
2025-12-25 16:59:35.184882,599620097766577158,-85.00
2025-12-25 16:59:35.184882,599620097766577158,-82.00
2025-12-25 16:59:35.184882,599620097766577158,-80.00
2025-12-25 16:59:35.184882,599620097766577158,-82.00
2025-12-25 16:59:35.184882,599620097766577158,-87.00
2025-12-25 16:59:35.184882,599620097766577158,-85.00
2025-12-25 16:59:35.184882,599620097766577158,-82.00
2025-12-25 16:59:35.184882,599620097766577158,-87.00
2025-12-25 16:59:35.184882,599620097766577158,-82.00
2025-12-25 16:59:35.184882,599620097766577158,-75.00
2025-12-25 16:59:35.184882,599620097766577158,-85.00
2025-12-25 16:59:35.184882,599620097766577158,-98.00
2025-12-25 16:59:35.184882,599620097766577158,-96.00
2025-12-25 16:59:35.184882,599620097766577158,-82.00
2025-12-25 16:59:35.184882,599620097766577158,-87.00
2025-12-25 16:59:35.184882,599620097766577158,-98.00
2025-12-25 16:59:35.184882,599620097766577158,-96.00
2025-12-25 16:59:35.184882,599620097766577158,-96.00
2025-12-25 16:59:35.184882,599620097766577158,-96.00
2025-12-25 16:59:35.184882,599620097766577158,-80.00
2025-12-25 16:59:35.184882,599620097766577158,-82.00
2025-12-25 16:59:35.184882,599620097766577158,-105.00
2025-12-25 16:59:35.184882,599620097766577158,-101.00
2025-12-25 16:59:35.184882,599620097766577158,-78.00
2025-12-25 16:59:35.184882,599620097766577158,-68.00
2025-12-25 16:59:35.184882,599620097766577158,-62.00
2025-12-25 16:59:35.184882,599620097766577158,-55.00
2025-12-25 16:59:35.184882,599620097766577158,-68.00
