Timestamp,Device Timestamp (ns),ECG Value (uV)
2025-12-24 16:46:42.007077,599631631637139788,-11.00
2025-12-24 16:46:42.007077,599631631637139788,-9.00
2025-12-24 16:46:42.007077,599631631637139788,-2.00
2025-12-24 16:46:42.007077,599631631637139788,-2.00
2025-12-24 16:46:42.007077,599631631637139788,14.00
2025-12-24 16:46:42.007077,599631631637139788,32.00
2025-12-24 16:46:42.007077,599631631637139788,39.00
2025-12-24 16:46:42.007077,599631631637139788,51.00
2025-12-24 16:46:42.007077,599631631637139788,65.00
2025-12-24 16:46:42.007077,599631631637139788,79.00
2025-12-24 16:46:42.007077,599631631637139788,93.00
2025-12-24 16:46:42.007077,599631631637139788,109.00
2025-12-24 16:46:42.007077,599631631637139788,128.00
2025-12-24 16:46:42.007077,599631631637139788,151.00
2025-12-24 16:46:42.007077,599631631637139788,170.00
2025-12-24 16:46:42.007077,599631631637139788,175.00
2025-12-24 16:46:42.007077,599631631637139788,170.00
2025-12-24 16:46:42.007077,599631631637139788,170.00
2025-12-24 16:46:42.007077,599631631637139788,165.00
2025-12-24 16:46:42.007077,599631631637139788,142.00
2025-12-24 16:46:42.007077,599631631637139788,102.00
2025-12-24 16:46:42.007077,599631631637139788,42.00
2025-12-24 16:46:42.007077,599631631637139788,-30.00
2025-12-24 16:46:42.007077,599631631637139788,-88.00
2025-12-24 16:46:42.007077,599631631637139788,-123.00
2025-12-24 16:46:42.007077,599631631637139788,-154.00
2025-12-24 16:46:42.007077,599631631637139788,-170.00
2025-12-24 16:46:42.007077,599631631637139788,-177.00
2025-12-24 16:46:42.007077,599631631637139788,-182.00
2025-12-24 16:46:42.007077,599631631637139788,-179.00
2025-12-24 16:46:42.007077,599631631637139788,-168.00
2025-12-24 16:46:42.007077,599631631637139788,-161.00
2025-12-24 16:46:42.007077,599631631637139788,-158.00
2025-12-24 16:46:42.007077,599631631637139788,-156.00
2025-12-24 16:46:42.007077,599631631637139788,-147.00
2025-12-24 16:46:42.007077,599631631637139788,-135.00
2025-12-24 16:46:42.007077,599631631637139788,-126.00
2025-12-24 16:46:42.007077,599631631637139788,-121.00
2025-12-24 16:46:42.007077,599631631637139788,-112.00
2025-12-24 16:46:42.007077,599631631637139788,-102.00
2025-12-24 16:46:42.007077,599631631637139788,-98.00
2025-12-24 16:46:42.007077,599631631637139788,-93.00
2025-12-24 16:46:42.007077,599631631637139788,-86.00
2025-12-24 16:46:42.007077,599631631637139788,-84.00
2025-12-24 16:46:42.007077,599631631637139788,-91.00
2025-12-24 16:46:42.007077,599631631637139788,-93.00
2025-12-24 16:46:42.007077,599631631637139788,-84.00
2025-12-24 16:46:42.007077,599631631637139788,-72.00
2025-12-24 16:46:42.007077,599631631637139788,-74.00
2025-12-24 16:46:42.007077,599631631637139788,-84.00
2025-12-24 16:46:42.007077,599631631637139788,-81.00
2025-12-24 16:46:42.007077,599631631637139788,-77.00
2025-12-24 16:46:42.007077,599631631637139788,-81.00
2025-12-24 16:46:42.007077,599631631637139788,-81.00
2025-12-24 16:46:42.007077,599631631637139788,-79.00
2025-12-24 16:46:42.007077,599631631637139788,-81.00
2025-12-24 16:46:42.007077,599631631637139788,-84.00
2025-12-24 16:46:42.007077,599631631637139788,-84.00
2025-12-24 16:46:42.007077,599631631637139788,-91.00
2025-12-24 16:46:42.007077,599631631637139788,-98.00
2025-12-24 16:46:42.007077,599631631637139788,-91.00
2025-12-24 16:46:42.007077,599631631637139788,-65.00
2025-12-24 16:46:42.007077,599631631637139788,-51.00
2025-12-24 16:46:42.007077,599631631637139788,-53.00
2025-12-24 16:46:42.007077,599631631637139788,-56.00
2025-12-24 16:46:42.007077,599631631637139788,-53.00
2025-12-24 16:46:42.007077,599631631637139788,-60.00
2025-12-24 16:46:42.007077,599631631637139788,-77.00
2025-12-24 16:46:42.007077,599631631637139788,-86.00
2025-12-24 16:46:42.007077,599631631637139788,-88.00
2025-12-24 16:46:42.007077,599631631637139788,-81.00
2025-12-24 16:46:42.007077,599631631637139788,-74.00
2025-12-24 16:46:42.007077,599631631637139788,-77.00
2025-12-24 16:46:42.308683,599631632198025025,-86.00
2025-12-24 16:46:42.308683,599631632198025025,-86.00
2025-12-24 16:46:42.308683,599631632198025025,-77.00
2025-12-24 16:46:42.308683,599631632198025025,-4.00
2025-12-24 16:46:42.308683,599631632198025025,235.00
2025-12-24 16:46:42.308683,599631632198025025,628.00
2025-12-24 16:46:42.308683,599631632198025025,791.00
2025-12-24 16:46:42.308683,599631632198025025,270.00
2025-12-24 16:46:42.308683,599631632198025025,-457.00
2025-12-24 16:46:42.308683,599631632198025025,-462.00
2025-12-24 16:46:42.308683,599631632198025025,-84.00
2025-12-24 16:46:42.308683,599631632198025025,-58.00
2025-12-24 16:46:42.308683,599631632198025025,-133.00
2025-12-24 16:46:42.308683,599631632198025025,-67.00
2025-12-24 16:46:42.308683,599631632198025025,-44.00
2025-12-24 16:46:42.308683,599631632198025025,-60.00
2025-12-24 16:46:42.308683,599631632198025025,-30.00
2025-12-24 16:46:42.308683,599631632198025025,-16.00
2025-12-24 16:46:42.308683,599631632198025025,-23.00
2025-12-24 16:46:42.308683,599631632198025025,-11.00
2025-12-24 16:46:42.308683,599631632198025025,0.00
2025-12-24 16:46:42.308683,599631632198025025,2.00
2025-12-24 16:46:42.308683,599631632198025025,11.00
2025-12-24 16:46:42.308683,599631632198025025,25.00
2025-12-24 16:46:42.308683,599631632198025025,35.00
2025-12-24 16:46:42.308683,599631632198025025,42.00
2025-12-24 16:46:42.308683,599631632198025025,56.00
2025-12-24 16:46:42.308683,599631632198025025,79.00
2025-12-24 16:46:42.308683,599631632198025025,98.00
2025-12-24 16:46:42.308683,599631632198025025,107.00
2025-12-24 16:46:42.308683,599631632198025025,121.00
2025-12-24 16:46:42.308683,599631632198025025,140.00
2025-12-24 16:46:42.308683,599631632198025025,151.00
2025-12-24 16:46:42.308683,599631632198025025,170.00
2025-12-24 16:46:42.308683,599631632198025025,186.00
2025-12-24 16:46:42.308683,599631632198025025,184.00
2025-12-24 16:46:42.308683,599631632198025025,170.00
2025-12-24 16:46:42.308683,599631632198025025,142.00
2025-12-24 16:46:42.308683,599631632198025025,91.00
2025-12-24 16:46:42.308683,599631632198025025,32.00
2025-12-24 16:46:42.308683,599631632198025025,-25.00
2025-12-24 16:46:42.308683,599631632198025025,-79.00
2025-12-24 16:46:42.308683,599631632198025025,-121.00
2025-12-24 16:46:42.308683,599631632198025025,-149.00
2025-12-24 16:46:42.308683,599631632198025025,-168.00
2025-12-24 16:46:42.308683,599631632198025025,-170.00
2025-12-24 16:46:42.308683,599631632198025025,-168.00
2025-12-24 16:46:42.308683,599631632198025025,-170.00
2025-12-24 16:46:42.308683,599631632198025025,-170.00
2025-12-24 16:46:42.308683,599631632198025025,-165.00
2025-12-24 16:46:42.308683,599631632198025025,-158.00
2025-12-24 16:46:42.308683,599631632198025025,-147.00
2025-12-24 16:46:42.308683,599631632198025025,-137.00
2025-12-24 16:46:42.308683,599631632198025025,-133.00
2025-12-24 16:46:42.308683,599631632198025025,-126.00
2025-12-24 16:46:42.308683,599631632198025025,-119.00
2025-12-24 16:46:42.308683,599631632198025025,-116.00
2025-12-24 16:46:42.308683,599631632198025025,-109.00
2025-12-24 16:46:42.308683,599631632198025025,-102.00
2025-12-24 16:46:42.308683,599631632198025025,-100.00
2025-12-24 16:46:42.308683,599631632198025025,-98.00
2025-12-24 16:46:42.308683,599631632198025025,-100.00
2025-12-24 16:46:42.308683,599631632198025025,-98.00
2025-12-24 16:46:42.308683,599631632198025025,-91.00
2025-12-24 16:46:42.308683,599631632198025025,-93.00
2025-12-24 16:46:42.308683,599631632198025025,-98.00
2025-12-24 16:46:42.308683,599631632198025025,-95.00
2025-12-24 16:46:42.308683,599631632198025025,-95.00
2025-12-24 16:46:42.308683,599631632198025025,-98.00
2025-12-24 16:46:42.308683,599631632198025025,-95.00
2025-12-24 16:46:42.308683,599631632198025025,-93.00
2025-12-24 16:46:42.308683,599631632198025025,-98.00
2025-12-24 16:46:42.308683,599631632198025025,-105.00
2025-12-24 16:46:42.760319,599631632758940778,-107.00
2025-12-24 16:46:42.760319,599631632758940778,-100.00
2025-12-24 16:46:42.760319,599631632758940778,-91.00
2025-12-24 16:46:42.760319,599631632758940778,-95.00
2025-12-24 16:46:42.760319,599631632758940778,-102.00
2025-12-24 16:46:42.760319,599631632758940778,-102.00
2025-12-24 16:46:42.760319,599631632758940778,-98.00
2025-12-24 16:46:42.760319,599631632758940778,-95.00
2025-12-24 16:46:42.760319,599631632758940778,-93.00
2025-12-24 16:46:42.760319,599631632758940778,-93.00
2025-12-24 16:46:42.760319,599631632758940778,-93.00
2025-12-24 16:46:42.760319,599631632758940778,-95.00
2025-12-24 16:46:42.760319,599631632758940778,-93.00
2025-12-24 16:46:42.760319,599631632758940778,-72.00
2025-12-24 16:46:42.760319,599631632758940778,-63.00
2025-12-24 16:46:42.760319,599631632758940778,-67.00
2025-12-24 16:46:42.760319,599631632758940778,-63.00
2025-12-24 16:46:42.760319,599631632758940778,-53.00
2025-12-24 16:46:42.760319,599631632758940778,-44.00
2025-12-24 16:46:42.760319,599631632758940778,-21.00
2025-12-24 16:46:42.760319,599631632758940778,-7.00
2025-12-24 16:46:42.760319,599631632758940778,-21.00
2025-12-24 16:46:42.760319,599631632758940778,-39.00
2025-12-24 16:46:42.760319,599631632758940778,-46.00
2025-12-24 16:46:42.760319,599631632758940778,-51.00
2025-12-24 16:46:42.760319,599631632758940778,-39.00
2025-12-24 16:46:42.760319,599631632758940778,-30.00
2025-12-24 16:46:42.760319,599631632758940778,-37.00
2025-12-24 16:46:42.760319,599631632758940778,-46.00
2025-12-24 16:46:42.760319,599631632758940778,-46.00
2025-12-24 16:46:42.760319,599631632758940778,-37.00
2025-12-24 16:46:42.760319,599631632758940778,37.00
2025-12-24 16:46:42.760319,599631632758940778,261.00
2025-12-24 16:46:42.760319,599631632758940778,642.00
2025-12-24 16:46:42.760319,599631632758940778,859.00
2025-12-24 16:46:42.760319,599631632758940778,413.00
2025-12-24 16:46:42.760319,599631632758940778,-336.00
2025-12-24 16:46:42.760319,599631632758940778,-427.00
2025-12-24 16:46:42.760319,599631632758940778,-56.00
2025-12-24 16:46:42.760319,599631632758940778,-14.00
2025-12-24 16:46:42.760319,599631632758940778,-116.00
2025-12-24 16:46:42.760319,599631632758940778,-53.00
2025-12-24 16:46:42.760319,599631632758940778,-18.00
2025-12-24 16:46:42.760319,599631632758940778,-53.00
2025-12-24 16:46:42.760319,599631632758940778,-37.00
2025-12-24 16:46:42.760319,599631632758940778,-7.00
2025-12-24 16:46:42.760319,599631632758940778,-16.00
2025-12-24 16:46:42.760319,599631632758940778,-23.00
2025-12-24 16:46:42.760319,599631632758940778,-7.00
2025-12-24 16:46:42.760319,599631632758940778,2.00
2025-12-24 16:46:42.760319,599631632758940778,7.00
2025-12-24 16:46:42.760319,599631632758940778,18.00
2025-12-24 16:46:42.760319,599631632758940778,28.00
2025-12-24 16:46:42.760319,599631632758940778,32.00
2025-12-24 16:46:42.760319,599631632758940778,46.00
2025-12-24 16:46:42.760319,599631632758940778,63.00
2025-12-24 16:46:42.760319,599631632758940778,74.00
2025-12-24 16:46:42.760319,599631632758940778,91.00
2025-12-24 16:46:42.760319,599631632758940778,102.00
2025-12-24 16:46:42.760319,599631632758940778,112.00
2025-12-24 16:46:42.760319,599631632758940778,130.00
2025-12-24 16:46:42.760319,599631632758940778,142.00
2025-12-24 16:46:42.760319,599631632758940778,142.00
2025-12-24 16:46:42.760319,599631632758940778,140.00
2025-12-24 16:46:42.760319,599631632758940778,140.00
2025-12-24 16:46:42.760319,599631632758940778,121.00
2025-12-24 16:46:42.760319,599631632758940778,84.00
2025-12-24 16:46:42.760319,599631632758940778,32.00
2025-12-24 16:46:42.760319,599631632758940778,-30.00
2025-12-24 16:46:42.760319,599631632758940778,-86.00
2025-12-24 16:46:42.760319,599631632758940778,-126.00
2025-12-24 16:46:42.760319,599631632758940778,-149.00
2025-12-24 16:46:42.760319,599631632758940778,-168.00
2025-12-24 16:46:43.312123,599631633319826013,-177.00
2025-12-24 16:46:43.312123,599631633319826013,-172.00
2025-12-24 16:46:43.312123,599631633319826013,-170.00
2025-12-24 16:46:43.312123,599631633319826013,-172.00
2025-12-24 16:46:43.312123,599631633319826013,-168.00
2025-12-24 16:46:43.312123,599631633319826013,-154.00
2025-12-24 16:46:43.312123,599631633319826013,-147.00
2025-12-24 16:46:43.312123,599631633319826013,-144.00
2025-12-24 16:46:43.312123,599631633319826013,-140.00
2025-12-24 16:46:43.312123,599631633319826013,-137.00
2025-12-24 16:46:43.312123,599631633319826013,-133.00
2025-12-24 16:46:43.312123,599631633319826013,-123.00
2025-12-24 16:46:43.312123,599631633319826013,-121.00
2025-12-24 16:46:43.312123,599631633319826013,-123.00
2025-12-24 16:46:43.312123,599631633319826013,-116.00
2025-12-24 16:46:43.312123,599631633319826013,-107.00
2025-12-24 16:46:43.312123,599631633319826013,-100.00
2025-12-24 16:46:43.312123,599631633319826013,-95.00
2025-12-24 16:46:43.312123,599631633319826013,-100.00
2025-12-24 16:46:43.312123,599631633319826013,-98.00
2025-12-24 16:46:43.312123,599631633319826013,-93.00
2025-12-24 16:46:43.312123,599631633319826013,-95.00
2025-12-24 16:46:43.312123,599631633319826013,-98.00
2025-12-24 16:46:43.312123,599631633319826013,-100.00
2025-12-24 16:46:43.312123,599631633319826013,-102.00
2025-12-24 16:46:43.312123,599631633319826013,-95.00
2025-12-24 16:46:43.312123,599631633319826013,-86.00
2025-12-24 16:46:43.312123,599631633319826013,-91.00
2025-12-24 16:46:43.312123,599631633319826013,-93.00
2025-12-24 16:46:43.312123,599631633319826013,-91.00
2025-12-24 16:46:43.312123,599631633319826013,-91.00
2025-12-24 16:46:43.312123,599631633319826013,-93.00
2025-12-24 16:46:43.312123,599631633319826013,-91.00
2025-12-24 16:46:43.312123,599631633319826013,-93.00
2025-12-24 16:46:43.312123,599631633319826013,-98.00
2025-12-24 16:46:43.312123,599631633319826013,-93.00
2025-12-24 16:46:43.312123,599631633319826013,-86.00
2025-12-24 16:46:43.312123,599631633319826013,-88.00
2025-12-24 16:46:43.312123,599631633319826013,-93.00
2025-12-24 16:46:43.312123,599631633319826013,-93.00
2025-12-24 16:46:43.312123,599631633319826013,-88.00
2025-12-24 16:46:43.312123,599631633319826013,-88.00
2025-12-24 16:46:43.312123,599631633319826013,-91.00
2025-12-24 16:46:43.312123,599631633319826013,-88.00
2025-12-24 16:46:43.312123,599631633319826013,-86.00
2025-12-24 16:46:43.312123,599631633319826013,-86.00
2025-12-24 16:46:43.312123,599631633319826013,-88.00
2025-12-24 16:46:43.312123,599631633319826013,-88.00
2025-12-24 16:46:43.312123,599631633319826013,-88.00
2025-12-24 16:46:43.312123,599631633319826013,-88.00
2025-12-24 16:46:43.312123,599631633319826013,-91.00
2025-12-24 16:46:43.312123,599631633319826013,-93.00
2025-12-24 16:46:43.312123,599631633319826013,-91.00
2025-12-24 16:46:43.312123,599631633319826013,-86.00
2025-12-24 16:46:43.312123,599631633319826013,-86.00
2025-12-24 16:46:43.312123,599631633319826013,-72.00
2025-12-24 16:46:43.312123,599631633319826013,-56.00
2025-12-24 16:46:43.312123,599631633319826013,-65.00
2025-12-24 16:46:43.312123,599631633319826013,-88.00
2025-12-24 16:46:43.312123,599631633319826013,-98.00
2025-12-24 16:46:43.312123,599631633319826013,-98.00
2025-12-24 16:46:43.312123,599631633319826013,-91.00
2025-12-24 16:46:43.312123,599631633319826013,-86.00
2025-12-24 16:46:43.312123,599631633319826013,-86.00
2025-12-24 16:46:43.312123,599631633319826013,-84.00
2025-12-24 16:46:43.312123,599631633319826013,-88.00
2025-12-24 16:46:43.312123,599631633319826013,-95.00
2025-12-24 16:46:43.312123,599631633319826013,-44.00
2025-12-24 16:46:43.312123,599631633319826013,154.00
2025-12-24 16:46:43.312123,599631633319826013,525.00
2025-12-24 16:46:43.312123,599631633319826013,791.00
2025-12-24 16:46:43.312123,599631633319826013,439.00
2025-12-24 16:46:43.312123,599631633319826013,-329.00
2025-12-24 16:46:43.913370,599631633880711248,-534.00
2025-12-24 16:46:43.913370,599631633880711248,-156.00
2025-12-24 16:46:43.913370,599631633880711248,-44.00
2025-12-24 16:46:43.913370,599631633880711248,-142.00
2025-12-24 16:46:43.913370,599631633880711248,-81.00
2025-12-24 16:46:43.913370,599631633880711248,-35.00
2025-12-24 16:46:43.913370,599631633880711248,-67.00
2025-12-24 16:46:43.913370,599631633880711248,-56.00
2025-12-24 16:46:43.913370,599631633880711248,-23.00
2025-12-24 16:46:43.913370,599631633880711248,-21.00
2025-12-24 16:46:43.913370,599631633880711248,-21.00
2025-12-24 16:46:43.913370,599631633880711248,-9.00
2025-12-24 16:46:43.913370,599631633880711248,2.00
2025-12-24 16:46:43.913370,599631633880711248,16.00
2025-12-24 16:46:43.913370,599631633880711248,37.00
2025-12-24 16:46:43.913370,599631633880711248,49.00
2025-12-24 16:46:43.913370,599631633880711248,53.00
2025-12-24 16:46:43.913370,599631633880711248,67.00
2025-12-24 16:46:43.913370,599631633880711248,88.00
2025-12-24 16:46:43.913370,599631633880711248,107.00
2025-12-24 16:46:43.913370,599631633880711248,123.00
2025-12-24 16:46:43.913370,599631633880711248,135.00
2025-12-24 16:46:43.913370,599631633880711248,144.00
2025-12-24 16:46:43.913370,599631633880711248,158.00
2025-12-24 16:46:43.913370,599631633880711248,170.00
2025-12-24 16:46:43.913370,599631633880711248,177.00
2025-12-24 16:46:43.913370,599631633880711248,184.00
2025-12-24 16:46:43.913370,599631633880711248,184.00
2025-12-24 16:46:43.913370,599631633880711248,158.00
2025-12-24 16:46:43.913370,599631633880711248,126.00
2025-12-24 16:46:43.913370,599631633880711248,81.00
2025-12-24 16:46:43.913370,599631633880711248,14.00
2025-12-24 16:46:43.913370,599631633880711248,-49.00
2025-12-24 16:46:43.913370,599631633880711248,-95.00
2025-12-24 16:46:43.913370,599631633880711248,-137.00
2025-12-24 16:46:43.913370,599631633880711248,-165.00
2025-12-24 16:46:43.913370,599631633880711248,-177.00
2025-12-24 16:46:43.913370,599631633880711248,-182.00
2025-12-24 16:46:43.913370,599631633880711248,-184.00
2025-12-24 16:46:43.913370,599631633880711248,-182.00
2025-12-24 16:46:43.913370,599631633880711248,-179.00
2025-12-24 16:46:43.913370,599631633880711248,-177.00
2025-12-24 16:46:43.913370,599631633880711248,-175.00
2025-12-24 16:46:43.913370,599631633880711248,-168.00
2025-12-24 16:46:43.913370,599631633880711248,-158.00
2025-12-24 16:46:43.913370,599631633880711248,-151.00
2025-12-24 16:46:43.913370,599631633880711248,-151.00
2025-12-24 16:46:43.913370,599631633880711248,-151.00
2025-12-24 16:46:43.913370,599631633880711248,-144.00
2025-12-24 16:46:43.913370,599631633880711248,-135.00
2025-12-24 16:46:43.913370,599631633880711248,-130.00
2025-12-24 16:46:43.913370,599631633880711248,-133.00
2025-12-24 16:46:43.913370,599631633880711248,-135.00
2025-12-24 16:46:43.913370,599631633880711248,-130.00
2025-12-24 16:46:43.913370,599631633880711248,-128.00
2025-12-24 16:46:43.913370,599631633880711248,-128.00
2025-12-24 16:46:43.913370,599631633880711248,-126.00
2025-12-24 16:46:43.913370,599631633880711248,-128.00
2025-12-24 16:46:43.913370,599631633880711248,-130.00
2025-12-24 16:46:43.913370,599631633880711248,-126.00
2025-12-24 16:46:43.913370,599631633880711248,-121.00
2025-12-24 16:46:43.913370,599631633880711248,-121.00
2025-12-24 16:46:43.913370,599631633880711248,-121.00
2025-12-24 16:46:43.913370,599631633880711248,-119.00
2025-12-24 16:46:43.913370,599631633880711248,-121.00
2025-12-24 16:46:43.913370,599631633880711248,-121.00
2025-12-24 16:46:43.913370,599631633880711248,-116.00
2025-12-24 16:46:43.913370,599631633880711248,-114.00
2025-12-24 16:46:43.913370,599631633880711248,-114.00
2025-12-24 16:46:43.913370,599631633880711248,-116.00
2025-12-24 16:46:43.913370,599631633880711248,-119.00
2025-12-24 16:46:43.913370,599631633880711248,-119.00
2025-12-24 16:46:43.913370,599631633880711248,-114.00
2025-12-24 16:46:44.515837,599631634441601571,-109.00
2025-12-24 16:46:44.515837,599631634441601571,-107.00
2025-12-24 16:46:44.515837,599631634441601571,-107.00
2025-12-24 16:46:44.515837,599631634441601571,-107.00
2025-12-24 16:46:44.515837,599631634441601571,-105.00
2025-12-24 16:46:44.515837,599631634441601571,-102.00
2025-12-24 16:46:44.515837,599631634441601571,-100.00
2025-12-24 16:46:44.515837,599631634441601571,-98.00
2025-12-24 16:46:44.515837,599631634441601571,-95.00
2025-12-24 16:46:44.515837,599631634441601571,-102.00
2025-12-24 16:46:44.515837,599631634441601571,-100.00
2025-12-24 16:46:44.515837,599631634441601571,-91.00
2025-12-24 16:46:44.515837,599631634441601571,-91.00
2025-12-24 16:46:44.515837,599631634441601571,-84.00
2025-12-24 16:46:44.515837,599631634441601571,-63.00
2025-12-24 16:46:44.515837,599631634441601571,-60.00
2025-12-24 16:46:44.515837,599631634441601571,-79.00
2025-12-24 16:46:44.515837,599631634441601571,-77.00
2025-12-24 16:46:44.515837,599631634441601571,-65.00
2025-12-24 16:46:44.515837,599631634441601571,-58.00
2025-12-24 16:46:44.515837,599631634441601571,-56.00
2025-12-24 16:46:44.515837,599631634441601571,-58.00
2025-12-24 16:46:44.515837,599631634441601571,-56.00
2025-12-24 16:46:44.515837,599631634441601571,-42.00
2025-12-24 16:46:44.515837,599631634441601571,-35.00
2025-12-24 16:46:44.515837,599631634441601571,9.00
2025-12-24 16:46:44.515837,599631634441601571,193.00
2025-12-24 16:46:44.515837,599631634441601571,558.00
2025-12-24 16:46:44.515837,599631634441601571,810.00
2025-12-24 16:46:44.515837,599631634441601571,425.00
2025-12-24 16:46:44.515837,599631634441601571,-357.00
2025-12-24 16:46:44.515837,599631634441601571,-520.00
2025-12-24 16:46:44.515837,599631634441601571,-123.00
2025-12-24 16:46:44.515837,599631634441601571,-30.00
2025-12-24 16:46:44.515837,599631634441601571,-119.00
2025-12-24 16:46:44.515837,599631634441601571,-42.00
2025-12-24 16:46:44.515837,599631634441601571,-2.00
2025-12-24 16:46:44.515837,599631634441601571,-35.00
2025-12-24 16:46:44.515837,599631634441601571,-16.00
2025-12-24 16:46:44.515837,599631634441601571,4.00
2025-12-24 16:46:44.515837,599631634441601571,0.00
2025-12-24 16:46:44.515837,599631634441601571,11.00
2025-12-24 16:46:44.515837,599631634441601571,23.00
2025-12-24 16:46:44.515837,599631634441601571,23.00
2025-12-24 16:46:44.515837,599631634441601571,28.00
2025-12-24 16:46:44.515837,599631634441601571,39.00
2025-12-24 16:46:44.515837,599631634441601571,49.00
2025-12-24 16:46:44.515837,599631634441601571,60.00
2025-12-24 16:46:44.515837,599631634441601571,70.00
2025-12-24 16:46:44.515837,599631634441601571,79.00
2025-12-24 16:46:44.515837,599631634441601571,91.00
2025-12-24 16:46:44.515837,599631634441601571,112.00
2025-12-24 16:46:44.515837,599631634441601571,128.00
2025-12-24 16:46:44.515837,599631634441601571,140.00
2025-12-24 16:46:44.515837,599631634441601571,156.00
2025-12-24 16:46:44.515837,599631634441601571,165.00
2025-12-24 16:46:44.515837,599631634441601571,163.00
2025-12-24 16:46:44.515837,599631634441601571,165.00
2025-12-24 16:46:44.515837,599631634441601571,168.00
2025-12-24 16:46:44.515837,599631634441601571,151.00
2025-12-24 16:46:44.515837,599631634441601571,112.00
2025-12-24 16:46:44.515837,599631634441601571,51.00
2025-12-24 16:46:44.515837,599631634441601571,-14.00
2025-12-24 16:46:44.515837,599631634441601571,-77.00
2025-12-24 16:46:44.515837,599631634441601571,-123.00
2025-12-24 16:46:44.515837,599631634441601571,-156.00
2025-12-24 16:46:44.515837,599631634441601571,-177.00
2025-12-24 16:46:44.515837,599631634441601571,-186.00
2025-12-24 16:46:44.515837,599631634441601571,-191.00
2025-12-24 16:46:44.515837,599631634441601571,-198.00
2025-12-24 16:46:44.515837,599631634441601571,-193.00
2025-12-24 16:46:44.515837,599631634441601571,-186.00
2025-12-24 16:46:44.515837,599631634441601571,-182.00
2025-12-24 16:46:44.911104,599631635002512236,-179.00
2025-12-24 16:46:44.911104,599631635002512236,-175.00
2025-12-24 16:46:44.911104,599631635002512236,-168.00
2025-12-24 16:46:44.911104,599631635002512236,-156.00
2025-12-24 16:46:44.911104,599631635002512236,-142.00
2025-12-24 16:46:44.911104,599631635002512236,-137.00
2025-12-24 16:46:44.911104,599631635002512236,-133.00
2025-12-24 16:46:44.911104,599631635002512236,-123.00
2025-12-24 16:46:44.911104,599631635002512236,-123.00
2025-12-24 16:46:44.911104,599631635002512236,-119.00
2025-12-24 16:46:44.911104,599631635002512236,-109.00
2025-12-24 16:46:44.911104,599631635002512236,-109.00
2025-12-24 16:46:44.911104,599631635002512236,-116.00
2025-12-24 16:46:44.911104,599631635002512236,-112.00
2025-12-24 16:46:44.911104,599631635002512236,-95.00
2025-12-24 16:46:44.911104,599631635002512236,-91.00
2025-12-24 16:46:44.911104,599631635002512236,-95.00
2025-12-24 16:46:44.911104,599631635002512236,-98.00
2025-12-24 16:46:44.911104,599631635002512236,-100.00
2025-12-24 16:46:44.911104,599631635002512236,-98.00
2025-12-24 16:46:44.911104,599631635002512236,-86.00
2025-12-24 16:46:44.911104,599631635002512236,-81.00
2025-12-24 16:46:44.911104,599631635002512236,-86.00
2025-12-24 16:46:44.911104,599631635002512236,-88.00
2025-12-24 16:46:44.911104,599631635002512236,-88.00
2025-12-24 16:46:44.911104,599631635002512236,-86.00
2025-12-24 16:46:44.911104,599631635002512236,-84.00
2025-12-24 16:46:44.911104,599631635002512236,-86.00
2025-12-24 16:46:44.911104,599631635002512236,-88.00
2025-12-24 16:46:44.911104,599631635002512236,-86.00
2025-12-24 16:46:44.911104,599631635002512236,-86.00
2025-12-24 16:46:44.911104,599631635002512236,-86.00
2025-12-24 16:46:44.911104,599631635002512236,-84.00
2025-12-24 16:46:44.911104,599631635002512236,-84.00
2025-12-24 16:46:44.911104,599631635002512236,-81.00
2025-12-24 16:46:44.911104,599631635002512236,-79.00
2025-12-24 16:46:44.911104,599631635002512236,-79.00
2025-12-24 16:46:44.911104,599631635002512236,-79.00
2025-12-24 16:46:44.911104,599631635002512236,-77.00
2025-12-24 16:46:44.911104,599631635002512236,-74.00
2025-12-24 16:46:44.911104,599631635002512236,-70.00
2025-12-24 16:46:44.911104,599631635002512236,-65.00
2025-12-24 16:46:44.911104,599631635002512236,-65.00
2025-12-24 16:46:44.911104,599631635002512236,-67.00
2025-12-24 16:46:44.911104,599631635002512236,-70.00
2025-12-24 16:46:44.911104,599631635002512236,-67.00
2025-12-24 16:46:44.911104,599631635002512236,-58.00
2025-12-24 16:46:44.911104,599631635002512236,-46.00
2025-12-24 16:46:44.911104,599631635002512236,-46.00
2025-12-24 16:46:44.911104,599631635002512236,-58.00
2025-12-24 16:46:44.911104,599631635002512236,-70.00
2025-12-24 16:46:44.911104,599631635002512236,-67.00
2025-12-24 16:46:44.911104,599631635002512236,-58.00
2025-12-24 16:46:44.911104,599631635002512236,-56.00
2025-12-24 16:46:44.911104,599631635002512236,-56.00
2025-12-24 16:46:44.911104,599631635002512236,-51.00
2025-12-24 16:46:44.911104,599631635002512236,-53.00
2025-12-24 16:46:44.911104,599631635002512236,-44.00
2025-12-24 16:46:44.911104,599631635002512236,49.00
2025-12-24 16:46:44.911104,599631635002512236,301.00
2025-12-24 16:46:44.911104,599631635002512236,674.00
2025-12-24 16:46:44.911104,599631635002512236,796.00
2025-12-24 16:46:44.911104,599631635002512236,249.00
2025-12-24 16:46:44.911104,599631635002512236,-432.00
2025-12-24 16:46:44.911104,599631635002512236,-378.00
2025-12-24 16:46:44.911104,599631635002512236,-30.00
2025-12-24 16:46:44.911104,599631635002512236,-56.00
2025-12-24 16:46:44.911104,599631635002512236,-126.00
2025-12-24 16:46:44.911104,599631635002512236,-46.00
2025-12-24 16:46:44.911104,599631635002512236,-28.00
2025-12-24 16:46:44.911104,599631635002512236,-51.00
2025-12-24 16:46:44.911104,599631635002512236,-30.00
2025-12-24 16:46:44.911104,599631635002512236,-18.00
2025-12-24 16:46:45.560175,599631635563392389,-21.00
2025-12-24 16:46:45.560175,599631635563392389,-9.00
2025-12-24 16:46:45.560175,599631635563392389,-2.00
2025-12-24 16:46:45.560175,599631635563392389,2.00
2025-12-24 16:46:45.560175,599631635563392389,16.00
2025-12-24 16:46:45.560175,599631635563392389,32.00
2025-12-24 16:46:45.560175,599631635563392389,44.00
2025-12-24 16:46:45.560175,599631635563392389,51.00
2025-12-24 16:46:45.560175,599631635563392389,60.00
2025-12-24 16:46:45.560175,599631635563392389,77.00
2025-12-24 16:46:45.560175,599631635563392389,91.00
2025-12-24 16:46:45.560175,599631635563392389,105.00
2025-12-24 16:46:45.560175,599631635563392389,114.00
2025-12-24 16:46:45.560175,599631635563392389,128.00
2025-12-24 16:46:45.560175,599631635563392389,140.00
2025-12-24 16:46:45.560175,599631635563392389,149.00
2025-12-24 16:46:45.560175,599631635563392389,158.00
2025-12-24 16:46:45.560175,599631635563392389,161.00
2025-12-24 16:46:45.560175,599631635563392389,151.00
2025-12-24 16:46:45.560175,599631635563392389,128.00
2025-12-24 16:46:45.560175,599631635563392389,91.00
2025-12-24 16:46:45.560175,599631635563392389,30.00
2025-12-24 16:46:45.560175,599631635563392389,-37.00
2025-12-24 16:46:45.560175,599631635563392389,-93.00
2025-12-24 16:46:45.560175,599631635563392389,-135.00
2025-12-24 16:46:45.560175,599631635563392389,-170.00
2025-12-24 16:46:45.560175,599631635563392389,-186.00
2025-12-24 16:46:45.560175,599631635563392389,-191.00
2025-12-24 16:46:45.560175,599631635563392389,-193.00
2025-12-24 16:46:45.560175,599631635563392389,-196.00
2025-12-24 16:46:45.560175,599631635563392389,-191.00
2025-12-24 16:46:45.560175,599631635563392389,-186.00
2025-12-24 16:46:45.560175,599631635563392389,-175.00
2025-12-24 16:46:45.560175,599631635563392389,-163.00
2025-12-24 16:46:45.560175,599631635563392389,-161.00
2025-12-24 16:46:45.560175,599631635563392389,-161.00
2025-12-24 16:46:45.560175,599631635563392389,-154.00
2025-12-24 16:46:45.560175,599631635563392389,-147.00
2025-12-24 16:46:45.560175,599631635563392389,-142.00
2025-12-24 16:46:45.560175,599631635563392389,-142.00
2025-12-24 16:46:45.560175,599631635563392389,-137.00
2025-12-24 16:46:45.560175,599631635563392389,-130.00
2025-12-24 16:46:45.560175,599631635563392389,-128.00
2025-12-24 16:46:45.560175,599631635563392389,-126.00
2025-12-24 16:46:45.560175,599631635563392389,-121.00
2025-12-24 16:46:45.560175,599631635563392389,-119.00
2025-12-24 16:46:45.560175,599631635563392389,-119.00
2025-12-24 16:46:45.560175,599631635563392389,-119.00
2025-12-24 16:46:45.560175,599631635563392389,-116.00
2025-12-24 16:46:45.560175,599631635563392389,-119.00
2025-12-24 16:46:45.560175,599631635563392389,-119.00
2025-12-24 16:46:45.560175,599631635563392389,-114.00
2025-12-24 16:46:45.560175,599631635563392389,-107.00
2025-12-24 16:46:45.560175,599631635563392389,-105.00
2025-12-24 16:46:45.560175,599631635563392389,-105.00
2025-12-24 16:46:45.560175,599631635563392389,-109.00
2025-12-24 16:46:45.560175,599631635563392389,-109.00
2025-12-24 16:46:45.560175,599631635563392389,-100.00
2025-12-24 16:46:45.560175,599631635563392389,-98.00
2025-12-24 16:46:45.560175,599631635563392389,-105.00
2025-12-24 16:46:45.560175,599631635563392389,-105.00
2025-12-24 16:46:45.560175,599631635563392389,-100.00
2025-12-24 16:46:45.560175,599631635563392389,-93.00
2025-12-24 16:46:45.560175,599631635563392389,-81.00
2025-12-24 16:46:45.560175,599631635563392389,-77.00
2025-12-24 16:46:45.560175,599631635563392389,-77.00
2025-12-24 16:46:45.560175,599631635563392389,-72.00
2025-12-24 16:46:45.560175,599631635563392389,-72.00
2025-12-24 16:46:45.560175,599631635563392389,-65.00
2025-12-24 16:46:45.560175,599631635563392389,-56.00
2025-12-24 16:46:45.560175,599631635563392389,-56.00
2025-12-24 16:46:45.560175,599631635563392389,-63.00
2025-12-24 16:46:45.560175,599631635563392389,-65.00
2025-12-24 16:46:46.092826,599631636124272538,-56.00
2025-12-24 16:46:46.092826,599631636124272538,-39.00
2025-12-24 16:46:46.092826,599631636124272538,-32.00
2025-12-24 16:46:46.092826,599631636124272538,-44.00
2025-12-24 16:46:46.092826,599631636124272538,-60.00
2025-12-24 16:46:46.092826,599631636124272538,-65.00
2025-12-24 16:46:46.092826,599631636124272538,-60.00
2025-12-24 16:46:46.092826,599631636124272538,-56.00
2025-12-24 16:46:46.092826,599631636124272538,-49.00
2025-12-24 16:46:46.092826,599631636124272538,-44.00
2025-12-24 16:46:46.092826,599631636124272538,-46.00
2025-12-24 16:46:46.092826,599631636124272538,-49.00
2025-12-24 16:46:46.092826,599631636124272538,-16.00
2025-12-24 16:46:46.092826,599631636124272538,133.00
2025-12-24 16:46:46.092826,599631636124272538,462.00
2025-12-24 16:46:46.092826,599631636124272538,784.00
2025-12-24 16:46:46.092826,599631636124272538,628.00
2025-12-24 16:46:46.092826,599631636124272538,-81.00
2025-12-24 16:46:46.092826,599631636124272538,-502.00
2025-12-24 16:46:46.092826,599631636124272538,-193.00
2025-12-24 16:46:46.092826,599631636124272538,51.00
2025-12-24 16:46:46.092826,599631636124272538,-67.00
2025-12-24 16:46:46.092826,599631636124272538,-81.00
2025-12-24 16:46:46.092826,599631636124272538,2.00
2025-12-24 16:46:46.092826,599631636124272538,-16.00
2025-12-24 16:46:46.092826,599631636124272538,-51.00
2025-12-24 16:46:46.092826,599631636124272538,-30.00
2025-12-24 16:46:46.092826,599631636124272538,-14.00
2025-12-24 16:46:46.092826,599631636124272538,-7.00
2025-12-24 16:46:46.092826,599631636124272538,11.00
2025-12-24 16:46:46.092826,599631636124272538,21.00
2025-12-24 16:46:46.092826,599631636124272538,14.00
2025-12-24 16:46:46.092826,599631636124272538,11.00
2025-12-24 16:46:46.092826,599631636124272538,23.00
2025-12-24 16:46:46.092826,599631636124272538,46.00
2025-12-24 16:46:46.092826,599631636124272538,37.00
2025-12-24 16:46:46.092826,599631636124272538,30.00
2025-12-24 16:46:46.092826,599631636124272538,74.00
2025-12-24 16:46:46.092826,599631636124272538,105.00
2025-12-24 16:46:46.092826,599631636124272538,102.00
2025-12-24 16:46:46.092826,599631636124272538,130.00
2025-12-24 16:46:46.092826,599631636124272538,154.00
2025-12-24 16:46:46.092826,599631636124272538,161.00
2025-12-24 16:46:46.092826,599631636124272538,186.00
2025-12-24 16:46:46.092826,599631636124272538,196.00
2025-12-24 16:46:46.092826,599631636124272538,168.00
2025-12-24 16:46:46.092826,599631636124272538,154.00
2025-12-24 16:46:46.092826,599631636124272538,128.00
2025-12-24 16:46:46.092826,599631636124272538,44.00
2025-12-24 16:46:46.092826,599631636124272538,-28.00
2025-12-24 16:46:46.092826,599631636124272538,-67.00
2025-12-24 16:46:46.092826,599631636124272538,-109.00
2025-12-24 16:46:46.092826,599631636124272538,-156.00
2025-12-24 16:46:46.092826,599631636124272538,-196.00
2025-12-24 16:46:46.092826,599631636124272538,-207.00
2025-12-24 16:46:46.092826,599631636124272538,-189.00
2025-12-24 16:46:46.092826,599631636124272538,-184.00
2025-12-24 16:46:46.092826,599631636124272538,-200.00
2025-12-24 16:46:46.092826,599631636124272538,-205.00
2025-12-24 16:46:46.092826,599631636124272538,-186.00
2025-12-24 16:46:46.092826,599631636124272538,-170.00
2025-12-24 16:46:46.092826,599631636124272538,-172.00
2025-12-24 16:46:46.092826,599631636124272538,-175.00
2025-12-24 16:46:46.092826,599631636124272538,-172.00
2025-12-24 16:46:46.092826,599631636124272538,-184.00
2025-12-24 16:46:46.092826,599631636124272538,-168.00
2025-12-24 16:46:46.092826,599631636124272538,-147.00
2025-12-24 16:46:46.092826,599631636124272538,-175.00
2025-12-24 16:46:46.092826,599631636124272538,-172.00
2025-12-24 16:46:46.092826,599631636124272538,-133.00
2025-12-24 16:46:46.092826,599631636124272538,-123.00
2025-12-24 16:46:46.092826,599631636124272538,-133.00
2025-12-24 16:46:46.092826,599631636124272538,-126.00
2025-12-24 16:46:46.632193,599631636685167945,-123.00
2025-12-24 16:46:46.632193,599631636685167945,-128.00
2025-12-24 16:46:46.632193,599631636685167945,-135.00
2025-12-24 16:46:46.632193,599631636685167945,-135.00
2025-12-24 16:46:46.632193,599631636685167945,-128.00
2025-12-24 16:46:46.632193,599631636685167945,-149.00
2025-12-24 16:46:46.632193,599631636685167945,-154.00
2025-12-24 16:46:46.632193,599631636685167945,-112.00
2025-12-24 16:46:46.632193,599631636685167945,-102.00
2025-12-24 16:46:46.632193,599631636685167945,-133.00
2025-12-24 16:46:46.632193,599631636685167945,-142.00
2025-12-24 16:46:46.632193,599631636685167945,-105.00
2025-12-24 16:46:46.632193,599631636685167945,-51.00
2025-12-24 16:46:46.632193,599631636685167945,-58.00
2025-12-24 16:46:46.632193,599631636685167945,-84.00
2025-12-24 16:46:46.632193,599631636685167945,-67.00
2025-12-24 16:46:46.632193,599631636685167945,-51.00
2025-12-24 16:46:46.632193,599631636685167945,-74.00
2025-12-24 16:46:46.632193,599631636685167945,-91.00
2025-12-24 16:46:46.632193,599631636685167945,-77.00
2025-12-24 16:46:46.632193,599631636685167945,-91.00
2025-12-24 16:46:46.632193,599631636685167945,-112.00
2025-12-24 16:46:46.632193,599631636685167945,-93.00
2025-12-24 16:46:46.632193,599631636685167945,-67.00
2025-12-24 16:46:46.632193,599631636685167945,-39.00
2025-12-24 16:46:46.632193,599631636685167945,-28.00
2025-12-24 16:46:46.632193,599631636685167945,-53.00
2025-12-24 16:46:46.632193,599631636685167945,-35.00
2025-12-24 16:46:46.632193,599631636685167945,112.00
2025-12-24 16:46:46.632193,599631636685167945,427.00
2025-12-24 16:46:46.632193,599631636685167945,759.00
2025-12-24 16:46:46.632193,599631636685167945,602.00
2025-12-24 16:46:46.632193,599631636685167945,-149.00
2025-12-24 16:46:46.632193,599631636685167945,-565.00
2025-12-24 16:46:46.632193,599631636685167945,-226.00
2025-12-24 16:46:46.632193,599631636685167945,-18.00
2025-12-24 16:46:46.632193,599631636685167945,-133.00
2025-12-24 16:46:46.632193,599631636685167945,-79.00
2025-12-24 16:46:46.632193,599631636685167945,4.00
2025-12-24 16:46:46.632193,599631636685167945,-42.00
2025-12-24 16:46:46.632193,599631636685167945,-42.00
2025-12-24 16:46:46.632193,599631636685167945,-11.00
2025-12-24 16:46:46.632193,599631636685167945,-32.00
2025-12-24 16:46:46.632193,599631636685167945,-28.00
2025-12-24 16:46:46.632193,599631636685167945,11.00
2025-12-24 16:46:46.632193,599631636685167945,23.00
2025-12-24 16:46:46.632193,599631636685167945,4.00
2025-12-24 16:46:46.632193,599631636685167945,16.00
2025-12-24 16:46:46.632193,599631636685167945,63.00
2025-12-24 16:46:46.632193,599631636685167945,74.00
2025-12-24 16:46:46.632193,599631636685167945,67.00
2025-12-24 16:46:46.632193,599631636685167945,79.00
2025-12-24 16:46:46.632193,599631636685167945,95.00
2025-12-24 16:46:46.632193,599631636685167945,109.00
2025-12-24 16:46:46.632193,599631636685167945,128.00
2025-12-24 16:46:46.632193,599631636685167945,144.00
2025-12-24 16:46:46.632193,599631636685167945,168.00
2025-12-24 16:46:46.632193,599631636685167945,196.00
2025-12-24 16:46:46.632193,599631636685167945,189.00
2025-12-24 16:46:46.632193,599631636685167945,184.00
2025-12-24 16:46:46.632193,599631636685167945,200.00
2025-12-24 16:46:46.632193,599631636685167945,184.00
2025-12-24 16:46:46.632193,599631636685167945,116.00
2025-12-24 16:46:46.632193,599631636685167945,37.00
2025-12-24 16:46:46.632193,599631636685167945,-37.00
2025-12-24 16:46:46.632193,599631636685167945,-107.00
2025-12-24 16:46:46.632193,599631636685167945,-156.00
2025-12-24 16:46:46.632193,599631636685167945,-186.00
2025-12-24 16:46:46.632193,599631636685167945,-203.00
2025-12-24 16:46:46.632193,599631636685167945,-212.00
2025-12-24 16:46:46.632193,599631636685167945,-212.00
2025-12-24 16:46:46.632193,599631636685167945,-210.00
2025-12-24 16:46:46.632193,599631636685167945,-203.00
2025-12-24 16:46:47.294329,599631637246053180,-198.00
2025-12-24 16:46:47.294329,599631637246053180,-198.00
2025-12-24 16:46:47.294329,599631637246053180,-198.00
2025-12-24 16:46:47.294329,599631637246053180,-191.00
2025-12-24 16:46:47.294329,599631637246053180,-182.00
2025-12-24 16:46:47.294329,599631637246053180,-172.00
2025-12-24 16:46:47.294329,599631637246053180,-163.00
2025-12-24 16:46:47.294329,599631637246053180,-156.00
2025-12-24 16:46:47.294329,599631637246053180,-147.00
2025-12-24 16:46:47.294329,599631637246053180,-130.00
2025-12-24 16:46:47.294329,599631637246053180,-119.00
2025-12-24 16:46:47.294329,599631637246053180,-119.00
2025-12-24 16:46:47.294329,599631637246053180,-116.00
2025-12-24 16:46:47.294329,599631637246053180,-112.00
2025-12-24 16:46:47.294329,599631637246053180,-114.00
2025-12-24 16:46:47.294329,599631637246053180,-114.00
2025-12-24 16:46:47.294329,599631637246053180,-114.00
2025-12-24 16:46:47.294329,599631637246053180,-116.00
2025-12-24 16:46:47.294329,599631637246053180,-112.00
2025-12-24 16:46:47.294329,599631637246053180,-109.00
2025-12-24 16:46:47.294329,599631637246053180,-114.00
2025-12-24 16:46:47.294329,599631637246053180,-114.00
2025-12-24 16:46:47.294329,599631637246053180,-114.00
2025-12-24 16:46:47.294329,599631637246053180,-116.00
2025-12-24 16:46:47.294329,599631637246053180,-114.00
2025-12-24 16:46:47.294329,599631637246053180,-109.00
2025-12-24 16:46:47.294329,599631637246053180,-112.00
2025-12-24 16:46:47.294329,599631637246053180,-107.00
2025-12-24 16:46:47.294329,599631637246053180,-100.00
2025-12-24 16:46:47.294329,599631637246053180,-100.00
2025-12-24 16:46:47.294329,599631637246053180,-107.00
2025-12-24 16:46:47.294329,599631637246053180,-105.00
2025-12-24 16:46:47.294329,599631637246053180,-93.00
2025-12-24 16:46:47.294329,599631637246053180,-86.00
2025-12-24 16:46:47.294329,599631637246053180,-79.00
2025-12-24 16:46:47.294329,599631637246053180,-70.00
2025-12-24 16:46:47.294329,599631637246053180,-72.00
2025-12-24 16:46:47.294329,599631637246053180,-84.00
2025-12-24 16:46:47.294329,599631637246053180,-86.00
2025-12-24 16:46:47.294329,599631637246053180,-86.00
2025-12-24 16:46:47.294329,599631637246053180,-88.00
2025-12-24 16:46:47.294329,599631637246053180,-84.00
2025-12-24 16:46:47.294329,599631637246053180,-70.00
2025-12-24 16:46:47.294329,599631637246053180,-63.00
2025-12-24 16:46:47.294329,599631637246053180,-65.00
2025-12-24 16:46:47.294329,599631637246053180,-63.00
2025-12-24 16:46:47.294329,599631637246053180,-49.00
2025-12-24 16:46:47.294329,599631637246053180,49.00
2025-12-24 16:46:47.294329,599631637246053180,326.00
2025-12-24 16:46:47.294329,599631637246053180,698.00
2025-12-24 16:46:47.294329,599631637246053180,721.00
2025-12-24 16:46:47.294329,599631637246053180,77.00
2025-12-24 16:46:47.294329,599631637246053180,-520.00
2025-12-24 16:46:47.294329,599631637246053180,-326.00
2025-12-24 16:46:47.294329,599631637246053180,-7.00
2025-12-24 16:46:47.294329,599631637246053180,-79.00
2025-12-24 16:46:47.294329,599631637246053180,-119.00
2025-12-24 16:46:47.294329,599631637246053180,-35.00
2025-12-24 16:46:47.294329,599631637246053180,-42.00
2025-12-24 16:46:47.294329,599631637246053180,-63.00
2025-12-24 16:46:47.294329,599631637246053180,-30.00
2025-12-24 16:46:47.294329,599631637246053180,-14.00
2025-12-24 16:46:47.294329,599631637246053180,-21.00
2025-12-24 16:46:47.294329,599631637246053180,-9.00
2025-12-24 16:46:47.294329,599631637246053180,2.00
2025-12-24 16:46:47.294329,599631637246053180,7.00
2025-12-24 16:46:47.294329,599631637246053180,18.00
2025-12-24 16:46:47.294329,599631637246053180,32.00
2025-12-24 16:46:47.294329,599631637246053180,44.00
2025-12-24 16:46:47.294329,599631637246053180,56.00
2025-12-24 16:46:47.294329,599631637246053180,67.00
2025-12-24 16:46:47.294329,599631637246053180,86.00
2025-12-24 16:46:47.294329,599631637246053180,105.00
2025-12-24 16:46:47.791645,599631637806938415,121.00
2025-12-24 16:46:47.791645,599631637806938415,135.00
2025-12-24 16:46:47.791645,599631637806938415,147.00
2025-12-24 16:46:47.791645,599631637806938415,158.00
2025-12-24 16:46:47.791645,599631637806938415,172.00
2025-12-24 16:46:47.791645,599631637806938415,182.00
2025-12-24 16:46:47.791645,599631637806938415,179.00
2025-12-24 16:46:47.791645,599631637806938415,161.00
2025-12-24 16:46:47.791645,599631637806938415,126.00
2025-12-24 16:46:47.791645,599631637806938415,70.00
2025-12-24 16:46:47.791645,599631637806938415,2.00
2025-12-24 16:46:47.791645,599631637806938415,-58.00
2025-12-24 16:46:47.791645,599631637806938415,-93.00
2025-12-24 16:46:47.791645,599631637806938415,-121.00
2025-12-24 16:46:47.791645,599631637806938415,-151.00
2025-12-24 16:46:47.791645,599631637806938415,-168.00
2025-12-24 16:46:47.791645,599631637806938415,-168.00
2025-12-24 16:46:47.791645,599631637806938415,-163.00
2025-12-24 16:46:47.791645,599631637806938415,-149.00
2025-12-24 16:46:47.791645,599631637806938415,-137.00
2025-12-24 16:46:47.791645,599631637806938415,-140.00
2025-12-24 16:46:47.791645,599631637806938415,-142.00
2025-12-24 16:46:47.791645,599631637806938415,-137.00
2025-12-24 16:46:47.791645,599631637806938415,-130.00
2025-12-24 16:46:47.791645,599631637806938415,-121.00
2025-12-24 16:46:47.791645,599631637806938415,-116.00
2025-12-24 16:46:47.791645,599631637806938415,-121.00
2025-12-24 16:46:47.791645,599631637806938415,-123.00
2025-12-24 16:46:47.791645,599631637806938415,-116.00
2025-12-24 16:46:47.791645,599631637806938415,-107.00
2025-12-24 16:46:47.791645,599631637806938415,-105.00
2025-12-24 16:46:47.791645,599631637806938415,-102.00
2025-12-24 16:46:47.791645,599631637806938415,-93.00
2025-12-24 16:46:47.791645,599631637806938415,-95.00
2025-12-24 16:46:47.791645,599631637806938415,-95.00
2025-12-24 16:46:47.791645,599631637806938415,-86.00
2025-12-24 16:46:47.791645,599631637806938415,-79.00
2025-12-24 16:46:47.791645,599631637806938415,-93.00
2025-12-24 16:46:47.791645,599631637806938415,-98.00
2025-12-24 16:46:47.791645,599631637806938415,-98.00
2025-12-24 16:46:47.791645,599631637806938415,-107.00
2025-12-24 16:46:47.791645,599631637806938415,-107.00
2025-12-24 16:46:47.791645,599631637806938415,-91.00
2025-12-24 16:46:47.791645,599631637806938415,-86.00
2025-12-24 16:46:47.791645,599631637806938415,-98.00
2025-12-24 16:46:47.791645,599631637806938415,-102.00
2025-12-24 16:46:47.791645,599631637806938415,-98.00
2025-12-24 16:46:47.791645,599631637806938415,-95.00
2025-12-24 16:46:47.791645,599631637806938415,-98.00
2025-12-24 16:46:47.791645,599631637806938415,-95.00
2025-12-24 16:46:47.791645,599631637806938415,-100.00
2025-12-24 16:46:47.791645,599631637806938415,-112.00
2025-12-24 16:46:47.791645,599631637806938415,-109.00
2025-12-24 16:46:47.791645,599631637806938415,-95.00
2025-12-24 16:46:47.791645,599631637806938415,-93.00
2025-12-24 16:46:47.791645,599631637806938415,-98.00
2025-12-24 16:46:47.791645,599631637806938415,-100.00
2025-12-24 16:46:47.791645,599631637806938415,-98.00
2025-12-24 16:46:47.791645,599631637806938415,-100.00
2025-12-24 16:46:47.791645,599631637806938415,-93.00
2025-12-24 16:46:47.791645,599631637806938415,-77.00
2025-12-24 16:46:47.791645,599631637806938415,-72.00
2025-12-24 16:46:47.791645,599631637806938415,-86.00
2025-12-24 16:46:47.791645,599631637806938415,-100.00
2025-12-24 16:46:47.791645,599631637806938415,-102.00
2025-12-24 16:46:47.791645,599631637806938415,-91.00
2025-12-24 16:46:47.791645,599631637806938415,-86.00
2025-12-24 16:46:47.791645,599631637806938415,-91.00
2025-12-24 16:46:47.791645,599631637806938415,-88.00
2025-12-24 16:46:47.791645,599631637806938415,-81.00
2025-12-24 16:46:47.791645,599631637806938415,-81.00
2025-12-24 16:46:47.791645,599631637806938415,-49.00
2025-12-24 16:46:47.791645,599631637806938415,100.00
2025-12-24 16:46:48.334989,599631638367823652,429.00
2025-12-24 16:46:48.334989,599631638367823652,738.00
2025-12-24 16:46:48.334989,599631638367823652,488.00
2025-12-24 16:46:48.334989,599631638367823652,-296.00
2025-12-24 16:46:48.334989,599631638367823652,-611.00
2025-12-24 16:46:48.334989,599631638367823652,-221.00
2025-12-24 16:46:48.334989,599631638367823652,-28.00
2025-12-24 16:46:48.334989,599631638367823652,-133.00
2025-12-24 16:46:48.334989,599631638367823652,-86.00
2025-12-24 16:46:48.334989,599631638367823652,-14.00
2025-12-24 16:46:48.334989,599631638367823652,-39.00
2025-12-24 16:46:48.334989,599631638367823652,-42.00
2025-12-24 16:46:48.334989,599631638367823652,-21.00
2025-12-24 16:46:48.334989,599631638367823652,-23.00
2025-12-24 16:46:48.334989,599631638367823652,-18.00
2025-12-24 16:46:48.334989,599631638367823652,11.00
2025-12-24 16:46:48.334989,599631638367823652,35.00
2025-12-24 16:46:48.334989,599631638367823652,32.00
2025-12-24 16:46:48.334989,599631638367823652,39.00
2025-12-24 16:46:48.334989,599631638367823652,58.00
2025-12-24 16:46:48.334989,599631638367823652,67.00
2025-12-24 16:46:48.334989,599631638367823652,72.00
2025-12-24 16:46:48.334989,599631638367823652,93.00
2025-12-24 16:46:48.334989,599631638367823652,109.00
2025-12-24 16:46:48.334989,599631638367823652,112.00
2025-12-24 16:46:48.334989,599631638367823652,123.00
2025-12-24 16:46:48.334989,599631638367823652,144.00
2025-12-24 16:46:48.334989,599631638367823652,165.00
2025-12-24 16:46:48.334989,599631638367823652,186.00
2025-12-24 16:46:48.334989,599631638367823652,191.00
2025-12-24 16:46:48.334989,599631638367823652,179.00
2025-12-24 16:46:48.334989,599631638367823652,172.00
2025-12-24 16:46:48.334989,599631638367823652,161.00
2025-12-24 16:46:48.334989,599631638367823652,126.00
2025-12-24 16:46:48.334989,599631638367823652,70.00
2025-12-24 16:46:48.334989,599631638367823652,2.00
2025-12-24 16:46:48.334989,599631638367823652,-58.00
2025-12-24 16:46:48.334989,599631638367823652,-105.00
2025-12-24 16:46:48.334989,599631638367823652,-133.00
2025-12-24 16:46:48.334989,599631638367823652,-151.00
2025-12-24 16:46:48.334989,599631638367823652,-165.00
2025-12-24 16:46:48.334989,599631638367823652,-175.00
2025-12-24 16:46:48.334989,599631638367823652,-177.00
2025-12-24 16:46:48.334989,599631638367823652,-172.00
2025-12-24 16:46:48.334989,599631638367823652,-163.00
2025-12-24 16:46:48.334989,599631638367823652,-158.00
2025-12-24 16:46:48.334989,599631638367823652,-158.00
2025-12-24 16:46:48.334989,599631638367823652,-151.00
2025-12-24 16:46:48.334989,599631638367823652,-147.00
2025-12-24 16:46:48.334989,599631638367823652,-147.00
2025-12-24 16:46:48.334989,599631638367823652,-142.00
2025-12-24 16:46:48.334989,599631638367823652,-133.00
2025-12-24 16:46:48.334989,599631638367823652,-128.00
2025-12-24 16:46:48.334989,599631638367823652,-123.00
2025-12-24 16:46:48.334989,599631638367823652,-119.00
2025-12-24 16:46:48.334989,599631638367823652,-119.00
2025-12-24 16:46:48.334989,599631638367823652,-116.00
2025-12-24 16:46:48.334989,599631638367823652,-109.00
2025-12-24 16:46:48.334989,599631638367823652,-109.00
2025-12-24 16:46:48.334989,599631638367823652,-116.00
2025-12-24 16:46:48.334989,599631638367823652,-116.00
2025-12-24 16:46:48.334989,599631638367823652,-116.00
2025-12-24 16:46:48.334989,599631638367823652,-121.00
2025-12-24 16:46:48.334989,599631638367823652,-123.00
2025-12-24 16:46:48.334989,599631638367823652,-119.00
2025-12-24 16:46:48.334989,599631638367823652,-112.00
2025-12-24 16:46:48.334989,599631638367823652,-116.00
2025-12-24 16:46:48.334989,599631638367823652,-121.00
2025-12-24 16:46:48.334989,599631638367823652,-116.00
2025-12-24 16:46:48.334989,599631638367823652,-112.00
2025-12-24 16:46:48.334989,599631638367823652,-114.00
2025-12-24 16:46:48.334989,599631638367823652,-114.00
2025-12-24 16:46:48.334989,599631638367823652,-114.00
2025-12-24 16:46:48.891071,599631638928708889,-114.00
2025-12-24 16:46:48.891071,599631638928708889,-114.00
2025-12-24 16:46:48.891071,599631638928708889,-112.00
2025-12-24 16:46:48.891071,599631638928708889,-109.00
2025-12-24 16:46:48.891071,599631638928708889,-109.00
2025-12-24 16:46:48.891071,599631638928708889,-107.00
2025-12-24 16:46:48.891071,599631638928708889,-102.00
2025-12-24 16:46:48.891071,599631638928708889,-91.00
2025-12-24 16:46:48.891071,599631638928708889,-84.00
2025-12-24 16:46:48.891071,599631638928708889,-88.00
2025-12-24 16:46:48.891071,599631638928708889,-88.00
2025-12-24 16:46:48.891071,599631638928708889,-79.00
2025-12-24 16:46:48.891071,599631638928708889,-70.00
2025-12-24 16:46:48.891071,599631638928708889,-60.00
2025-12-24 16:46:48.891071,599631638928708889,-60.00
2025-12-24 16:46:48.891071,599631638928708889,-67.00
2025-12-24 16:46:48.891071,599631638928708889,-67.00
2025-12-24 16:46:48.891071,599631638928708889,-70.00
2025-12-24 16:46:48.891071,599631638928708889,-70.00
2025-12-24 16:46:48.891071,599631638928708889,-53.00
2025-12-24 16:46:48.891071,599631638928708889,-39.00
2025-12-24 16:46:48.891071,599631638928708889,-39.00
2025-12-24 16:46:48.891071,599631638928708889,-53.00
2025-12-24 16:46:48.891071,599631638928708889,-70.00
2025-12-24 16:46:48.891071,599631638928708889,-74.00
2025-12-24 16:46:48.891071,599631638928708889,-65.00
2025-12-24 16:46:48.891071,599631638928708889,-63.00
2025-12-24 16:46:48.891071,599631638928708889,-65.00
2025-12-24 16:46:48.891071,599631638928708889,-72.00
2025-12-24 16:46:48.891071,599631638928708889,-74.00
2025-12-24 16:46:48.891071,599631638928708889,-58.00
2025-12-24 16:46:48.891071,599631638928708889,21.00
2025-12-24 16:46:48.891071,599631638928708889,247.00
2025-12-24 16:46:48.891071,599631638928708889,611.00
2025-12-24 16:46:48.891071,599631638928708889,766.00
2025-12-24 16:46:48.891071,599631638928708889,266.00
2025-12-24 16:46:48.891071,599631638928708889,-434.00
2025-12-24 16:46:48.891071,599631638928708889,-432.00
2025-12-24 16:46:48.891071,599631638928708889,-60.00
2025-12-24 16:46:48.891071,599631638928708889,-46.00
2025-12-24 16:46:48.891071,599631638928708889,-135.00
2025-12-24 16:46:48.891071,599631638928708889,-67.00
2025-12-24 16:46:48.891071,599631638928708889,-49.00
2025-12-24 16:46:48.891071,599631638928708889,-77.00
2025-12-24 16:46:48.891071,599631638928708889,-51.00
2025-12-24 16:46:48.891071,599631638928708889,-35.00
2025-12-24 16:46:48.891071,599631638928708889,-46.00
2025-12-24 16:46:48.891071,599631638928708889,-35.00
2025-12-24 16:46:48.891071,599631638928708889,-18.00
2025-12-24 16:46:48.891071,599631638928708889,-21.00
2025-12-24 16:46:48.891071,599631638928708889,-14.00
2025-12-24 16:46:48.891071,599631638928708889,9.00
2025-12-24 16:46:48.891071,599631638928708889,18.00
2025-12-24 16:46:48.891071,599631638928708889,25.00
2025-12-24 16:46:48.891071,599631638928708889,39.00
2025-12-24 16:46:48.891071,599631638928708889,46.00
2025-12-24 16:46:48.891071,599631638928708889,58.00
2025-12-24 16:46:48.891071,599631638928708889,77.00
2025-12-24 16:46:48.891071,599631638928708889,91.00
2025-12-24 16:46:48.891071,599631638928708889,102.00
2025-12-24 16:46:48.891071,599631638928708889,116.00
2025-12-24 16:46:48.891071,599631638928708889,121.00
2025-12-24 16:46:48.891071,599631638928708889,123.00
2025-12-24 16:46:48.891071,599631638928708889,126.00
2025-12-24 16:46:48.891071,599631638928708889,116.00
2025-12-24 16:46:48.891071,599631638928708889,91.00
2025-12-24 16:46:48.891071,599631638928708889,65.00
2025-12-24 16:46:48.891071,599631638928708889,21.00
2025-12-24 16:46:48.891071,599631638928708889,-42.00
2025-12-24 16:46:48.891071,599631638928708889,-95.00
2025-12-24 16:46:48.891071,599631638928708889,-130.00
2025-12-24 16:46:48.891071,599631638928708889,-156.00
2025-12-24 16:46:48.891071,599631638928708889,-175.00
2025-12-24 16:46:49.523598,599631639489594124,-189.00
2025-12-24 16:46:49.523598,599631639489594124,-191.00
2025-12-24 16:46:49.523598,599631639489594124,-179.00
2025-12-24 16:46:49.523598,599631639489594124,-170.00
2025-12-24 16:46:49.523598,599631639489594124,-168.00
2025-12-24 16:46:49.523598,599631639489594124,-163.00
2025-12-24 16:46:49.523598,599631639489594124,-158.00
2025-12-24 16:46:49.523598,599631639489594124,-154.00
2025-12-24 16:46:49.523598,599631639489594124,-151.00
2025-12-24 16:46:49.523598,599631639489594124,-149.00
2025-12-24 16:46:49.523598,599631639489594124,-137.00
2025-12-24 16:46:49.523598,599631639489594124,-126.00
2025-12-24 16:46:49.523598,599631639489594124,-123.00
2025-12-24 16:46:49.523598,599631639489594124,-126.00
2025-12-24 16:46:49.523598,599631639489594124,-114.00
2025-12-24 16:46:49.523598,599631639489594124,-95.00
2025-12-24 16:46:49.523598,599631639489594124,-86.00
2025-12-24 16:46:49.523598,599631639489594124,-95.00
2025-12-24 16:46:49.523598,599631639489594124,-100.00
2025-12-24 16:46:49.523598,599631639489594124,-98.00
2025-12-24 16:46:49.523598,599631639489594124,-100.00
2025-12-24 16:46:49.523598,599631639489594124,-105.00
2025-12-24 16:46:49.523598,599631639489594124,-102.00
2025-12-24 16:46:49.523598,599631639489594124,-107.00
2025-12-24 16:46:49.523598,599631639489594124,-112.00
2025-12-24 16:46:49.523598,599631639489594124,-112.00
2025-12-24 16:46:49.523598,599631639489594124,-116.00
2025-12-24 16:46:49.523598,599631639489594124,-116.00
2025-12-24 16:46:49.523598,599631639489594124,-105.00
2025-12-24 16:46:49.523598,599631639489594124,-105.00
2025-12-24 16:46:49.523598,599631639489594124,-112.00
2025-12-24 16:46:49.523598,599631639489594124,-107.00
2025-12-24 16:46:49.523598,599631639489594124,-102.00
2025-12-24 16:46:49.523598,599631639489594124,-109.00
2025-12-24 16:46:49.523598,599631639489594124,-114.00
2025-12-24 16:46:49.523598,599631639489594124,-107.00
2025-12-24 16:46:49.523598,599631639489594124,-102.00
2025-12-24 16:46:49.523598,599631639489594124,-105.00
2025-12-24 16:46:49.523598,599631639489594124,-102.00
2025-12-24 16:46:49.523598,599631639489594124,-98.00
2025-12-24 16:46:49.523598,599631639489594124,-95.00
2025-12-24 16:46:49.523598,599631639489594124,-95.00
2025-12-24 16:46:49.523598,599631639489594124,-98.00
2025-12-24 16:46:49.523598,599631639489594124,-100.00
2025-12-24 16:46:49.523598,599631639489594124,-95.00
2025-12-24 16:46:49.523598,599631639489594124,-93.00
2025-12-24 16:46:49.523598,599631639489594124,-93.00
2025-12-24 16:46:49.523598,599631639489594124,-91.00
2025-12-24 16:46:49.523598,599631639489594124,-91.00
2025-12-24 16:46:49.523598,599631639489594124,-91.00
2025-12-24 16:46:49.523598,599631639489594124,-86.00
2025-12-24 16:46:49.523598,599631639489594124,-84.00
2025-12-24 16:46:49.523598,599631639489594124,-86.00
2025-12-24 16:46:49.523598,599631639489594124,-88.00
2025-12-24 16:46:49.523598,599631639489594124,-86.00
2025-12-24 16:46:49.523598,599631639489594124,-72.00
2025-12-24 16:46:49.523598,599631639489594124,-56.00
2025-12-24 16:46:49.523598,599631639489594124,-72.00
2025-12-24 16:46:49.523598,599631639489594124,-102.00
2025-12-24 16:46:49.523598,599631639489594124,-105.00
2025-12-24 16:46:49.523598,599631639489594124,-95.00
2025-12-24 16:46:49.523598,599631639489594124,-98.00
2025-12-24 16:46:49.523598,599631639489594124,-88.00
2025-12-24 16:46:49.523598,599631639489594124,-77.00
2025-12-24 16:46:49.523598,599631639489594124,-74.00
2025-12-24 16:46:49.523598,599631639489594124,-72.00
2025-12-24 16:46:49.523598,599631639489594124,-25.00
2025-12-24 16:46:49.523598,599631639489594124,135.00
2025-12-24 16:46:49.523598,599631639489594124,462.00
2025-12-24 16:46:49.523598,599631639489594124,740.00
2025-12-24 16:46:49.523598,599631639489594124,467.00
2025-12-24 16:46:49.523598,599631639489594124,-266.00
2025-12-24 16:46:49.523598,599631639489594124,-534.00
2025-12-24 16:46:50.153653,599631640050479359,-177.00
2025-12-24 16:46:50.153653,599631640050479359,-16.00
2025-12-24 16:46:50.153653,599631640050479359,-116.00
2025-12-24 16:46:50.153653,599631640050479359,-81.00
2025-12-24 16:46:50.153653,599631640050479359,-23.00
2025-12-24 16:46:50.153653,599631640050479359,-49.00
2025-12-24 16:46:50.153653,599631640050479359,-39.00
2025-12-24 16:46:50.153653,599631640050479359,-7.00
2025-12-24 16:46:50.153653,599631640050479359,-9.00
2025-12-24 16:46:50.153653,599631640050479359,-14.00
2025-12-24 16:46:50.153653,599631640050479359,0.00
2025-12-24 16:46:50.153653,599631640050479359,9.00
2025-12-24 16:46:50.153653,599631640050479359,18.00
2025-12-24 16:46:50.153653,599631640050479359,39.00
2025-12-24 16:46:50.153653,599631640050479359,53.00
2025-12-24 16:46:50.153653,599631640050479359,60.00
2025-12-24 16:46:50.153653,599631640050479359,72.00
2025-12-24 16:46:50.153653,599631640050479359,84.00
2025-12-24 16:46:50.153653,599631640050479359,95.00
2025-12-24 16:46:50.153653,599631640050479359,116.00
2025-12-24 16:46:50.153653,599631640050479359,130.00
2025-12-24 16:46:50.153653,599631640050479359,133.00
2025-12-24 16:46:50.153653,599631640050479359,135.00
2025-12-24 16:46:50.153653,599631640050479359,142.00
2025-12-24 16:46:50.153653,599631640050479359,149.00
2025-12-24 16:46:50.153653,599631640050479359,154.00
2025-12-24 16:46:50.153653,599631640050479359,147.00
2025-12-24 16:46:50.153653,599631640050479359,133.00
2025-12-24 16:46:50.153653,599631640050479359,102.00
2025-12-24 16:46:50.153653,599631640050479359,53.00
2025-12-24 16:46:50.153653,599631640050479359,2.00
2025-12-24 16:46:50.153653,599631640050479359,-42.00
2025-12-24 16:46:50.153653,599631640050479359,-91.00
2025-12-24 16:46:50.153653,599631640050479359,-133.00
2025-12-24 16:46:50.153653,599631640050479359,-154.00
2025-12-24 16:46:50.153653,599631640050479359,-168.00
2025-12-24 16:46:50.153653,599631640050479359,-172.00
2025-12-24 16:46:50.153653,599631640050479359,-165.00
2025-12-24 16:46:50.153653,599631640050479359,-165.00
2025-12-24 16:46:50.153653,599631640050479359,-168.00
2025-12-24 16:46:50.153653,599631640050479359,-161.00
2025-12-24 16:46:50.153653,599631640050479359,-154.00
2025-12-24 16:46:50.153653,599631640050479359,-151.00
2025-12-24 16:46:50.153653,599631640050479359,-144.00
2025-12-24 16:46:50.153653,599631640050479359,-140.00
2025-12-24 16:46:50.153653,599631640050479359,-140.00
2025-12-24 16:46:50.153653,599631640050479359,-135.00
2025-12-24 16:46:50.153653,599631640050479359,-135.00
2025-12-24 16:46:50.153653,599631640050479359,-133.00
2025-12-24 16:46:50.153653,599631640050479359,-130.00
2025-12-24 16:46:50.153653,599631640050479359,-123.00
2025-12-24 16:46:50.153653,599631640050479359,-121.00
2025-12-24 16:46:50.153653,599631640050479359,-126.00
2025-12-24 16:46:50.153653,599631640050479359,-126.00
2025-12-24 16:46:50.153653,599631640050479359,-119.00
2025-12-24 16:46:50.153653,599631640050479359,-114.00
2025-12-24 16:46:50.153653,599631640050479359,-116.00
2025-12-24 16:46:50.153653,599631640050479359,-114.00
2025-12-24 16:46:50.153653,599631640050479359,-114.00
2025-12-24 16:46:50.153653,599631640050479359,-109.00
2025-12-24 16:46:50.153653,599631640050479359,-107.00
2025-12-24 16:46:50.153653,599631640050479359,-114.00
2025-12-24 16:46:50.153653,599631640050479359,-119.00
2025-12-24 16:46:50.153653,599631640050479359,-112.00
2025-12-24 16:46:50.153653,599631640050479359,-109.00
2025-12-24 16:46:50.153653,599631640050479359,-112.00
2025-12-24 16:46:50.153653,599631640050479359,-105.00
2025-12-24 16:46:50.153653,599631640050479359,-100.00
2025-12-24 16:46:50.153653,599631640050479359,-109.00
2025-12-24 16:46:50.153653,599631640050479359,-119.00
2025-12-24 16:46:50.153653,599631640050479359,-114.00
2025-12-24 16:46:50.153653,599631640050479359,-107.00
2025-12-24 16:46:50.153653,599631640050479359,-95.00
2025-12-24 16:46:50.571163,599631640611364594,-88.00
2025-12-24 16:46:50.571163,599631640611364594,-91.00
2025-12-24 16:46:50.571163,599631640611364594,-93.00
2025-12-24 16:46:50.571163,599631640611364594,-91.00
2025-12-24 16:46:50.571163,599631640611364594,-88.00
2025-12-24 16:46:50.571163,599631640611364594,-84.00
2025-12-24 16:46:50.571163,599631640611364594,-84.00
2025-12-24 16:46:50.571163,599631640611364594,-84.00
2025-12-24 16:46:50.571163,599631640611364594,-88.00
2025-12-24 16:46:50.571163,599631640611364594,-84.00
2025-12-24 16:46:50.571163,599631640611364594,-65.00
2025-12-24 16:46:50.571163,599631640611364594,-53.00
2025-12-24 16:46:50.571163,599631640611364594,-56.00
2025-12-24 16:46:50.571163,599631640611364594,-58.00
2025-12-24 16:46:50.571163,599631640611364594,-60.00
2025-12-24 16:46:50.571163,599631640611364594,-63.00
2025-12-24 16:46:50.571163,599631640611364594,-58.00
2025-12-24 16:46:50.571163,599631640611364594,-44.00
2025-12-24 16:46:50.571163,599631640611364594,-35.00
2025-12-24 16:46:50.571163,599631640611364594,-44.00
2025-12-24 16:46:50.571163,599631640611364594,-63.00
2025-12-24 16:46:50.571163,599631640611364594,-60.00
2025-12-24 16:46:50.571163,599631640611364594,-42.00
2025-12-24 16:46:50.571163,599631640611364594,-32.00
2025-12-24 16:46:50.571163,599631640611364594,-35.00
2025-12-24 16:46:50.571163,599631640611364594,-39.00
2025-12-24 16:46:50.571163,599631640611364594,-44.00
2025-12-24 16:46:50.571163,599631640611364594,-32.00
2025-12-24 16:46:50.571163,599631640611364594,16.00
2025-12-24 16:46:50.571163,599631640611364594,163.00
2025-12-24 16:46:50.571163,599631640611364594,488.00
2025-12-24 16:46:50.571163,599631640611364594,791.00
2025-12-24 16:46:50.571163,599631640611364594,520.00
2025-12-24 16:46:50.571163,599631640611364594,-275.00
2025-12-24 16:46:50.571163,599631640611364594,-581.00
2025-12-24 16:46:50.571163,599631640611364594,-193.00
2025-12-24 16:46:50.571163,599631640611364594,-2.00
2025-12-24 16:46:50.571163,599631640611364594,-91.00
2025-12-24 16:46:50.571163,599631640611364594,-42.00
2025-12-24 16:46:50.571163,599631640611364594,11.00
2025-12-24 16:46:50.571163,599631640611364594,-18.00
2025-12-24 16:46:50.571163,599631640611364594,-16.00
2025-12-24 16:46:50.571163,599631640611364594,2.00
2025-12-24 16:46:50.571163,599631640611364594,-4.00
2025-12-24 16:46:50.571163,599631640611364594,-7.00
2025-12-24 16:46:50.571163,599631640611364594,4.00
2025-12-24 16:46:50.571163,599631640611364594,14.00
2025-12-24 16:46:50.571163,599631640611364594,18.00
2025-12-24 16:46:50.571163,599631640611364594,35.00
2025-12-24 16:46:50.571163,599631640611364594,44.00
2025-12-24 16:46:50.571163,599631640611364594,46.00
2025-12-24 16:46:50.571163,599631640611364594,63.00
2025-12-24 16:46:50.571163,599631640611364594,77.00
2025-12-24 16:46:50.571163,599631640611364594,74.00
2025-12-24 16:46:50.571163,599631640611364594,81.00
2025-12-24 16:46:50.571163,599631640611364594,100.00
2025-12-24 16:46:50.571163,599631640611364594,109.00
2025-12-24 16:46:50.571163,599631640611364594,119.00
2025-12-24 16:46:50.571163,599631640611364594,128.00
2025-12-24 16:46:50.571163,599631640611364594,133.00
2025-12-24 16:46:50.571163,599631640611364594,133.00
2025-12-24 16:46:50.571163,599631640611364594,126.00
2025-12-24 16:46:50.571163,599631640611364594,109.00
2025-12-24 16:46:50.571163,599631640611364594,77.00
2025-12-24 16:46:50.571163,599631640611364594,35.00
2025-12-24 16:46:50.571163,599631640611364594,-14.00
2025-12-24 16:46:50.571163,599631640611364594,-70.00
2025-12-24 16:46:50.571163,599631640611364594,-119.00
2025-12-24 16:46:50.571163,599631640611364594,-151.00
2025-12-24 16:46:50.571163,599631640611364594,-175.00
2025-12-24 16:46:50.571163,599631640611364594,-193.00
2025-12-24 16:46:50.571163,599631640611364594,-205.00
2025-12-24 16:46:50.571163,599631640611364594,-207.00
2025-12-24 16:46:51.140575,599631641172249829,-203.00
2025-12-24 16:46:51.140575,599631641172249829,-198.00
2025-12-24 16:46:51.140575,599631641172249829,-191.00
2025-12-24 16:46:51.140575,599631641172249829,-184.00
2025-12-24 16:46:51.140575,599631641172249829,-179.00
2025-12-24 16:46:51.140575,599631641172249829,-170.00
2025-12-24 16:46:51.140575,599631641172249829,-165.00
2025-12-24 16:46:51.140575,599631641172249829,-161.00
2025-12-24 16:46:51.140575,599631641172249829,-151.00
2025-12-24 16:46:51.140575,599631641172249829,-151.00
2025-12-24 16:46:51.140575,599631641172249829,-151.00
2025-12-24 16:46:51.140575,599631641172249829,-144.00
2025-12-24 16:46:51.140575,599631641172249829,-140.00
2025-12-24 16:46:51.140575,599631641172249829,-128.00
2025-12-24 16:46:51.140575,599631641172249829,-114.00
2025-12-24 16:46:51.140575,599631641172249829,-112.00
2025-12-24 16:46:51.140575,599631641172249829,-121.00
2025-12-24 16:46:51.140575,599631641172249829,-123.00
2025-12-24 16:46:51.140575,599631641172249829,-119.00
2025-12-24 16:46:51.140575,599631641172249829,-119.00
2025-12-24 16:46:51.140575,599631641172249829,-121.00
2025-12-24 16:46:51.140575,599631641172249829,-123.00
2025-12-24 16:46:51.140575,599631641172249829,-121.00
2025-12-24 16:46:51.140575,599631641172249829,-119.00
2025-12-24 16:46:51.140575,599631641172249829,-114.00
2025-12-24 16:46:51.140575,599631641172249829,-109.00
2025-12-24 16:46:51.140575,599631641172249829,-112.00
2025-12-24 16:46:51.140575,599631641172249829,-114.00
2025-12-24 16:46:51.140575,599631641172249829,-107.00
2025-12-24 16:46:51.140575,599631641172249829,-107.00
2025-12-24 16:46:51.140575,599631641172249829,-112.00
2025-12-24 16:46:51.140575,599631641172249829,-107.00
2025-12-24 16:46:51.140575,599631641172249829,-105.00
2025-12-24 16:46:51.140575,599631641172249829,-105.00
2025-12-24 16:46:51.140575,599631641172249829,-102.00
2025-12-24 16:46:51.140575,599631641172249829,-98.00
2025-12-24 16:46:51.140575,599631641172249829,-88.00
2025-12-24 16:46:51.140575,599631641172249829,-86.00
2025-12-24 16:46:51.140575,599631641172249829,-95.00
2025-12-24 16:46:51.140575,599631641172249829,-95.00
2025-12-24 16:46:51.140575,599631641172249829,-67.00
2025-12-24 16:46:51.140575,599631641172249829,-49.00
2025-12-24 16:46:51.140575,599631641172249829,-58.00
2025-12-24 16:46:51.140575,599631641172249829,-77.00
2025-12-24 16:46:51.140575,599631641172249829,-86.00
2025-12-24 16:46:51.140575,599631641172249829,-86.00
2025-12-24 16:46:51.140575,599631641172249829,-84.00
2025-12-24 16:46:51.140575,599631641172249829,-77.00
2025-12-24 16:46:51.140575,599631641172249829,-72.00
2025-12-24 16:46:51.140575,599631641172249829,-65.00
2025-12-24 16:46:51.140575,599631641172249829,-60.00
2025-12-24 16:46:51.140575,599631641172249829,-39.00
2025-12-24 16:46:51.140575,599631641172249829,72.00
2025-12-24 16:46:51.140575,599631641172249829,366.00
2025-12-24 16:46:51.140575,599631641172249829,703.00
2025-12-24 16:46:51.140575,599631641172249829,572.00
2025-12-24 16:46:51.140575,599631641172249829,-196.00
2025-12-24 16:46:51.140575,599631641172249829,-674.00
2025-12-24 16:46:51.140575,599631641172249829,-336.00
2025-12-24 16:46:51.140575,599631641172249829,-42.00
2025-12-24 16:46:51.140575,599631641172249829,-105.00
2025-12-24 16:46:51.140575,599631641172249829,-67.00
2025-12-24 16:46:51.140575,599631641172249829,4.00
2025-12-24 16:46:51.140575,599631641172249829,-30.00
2025-12-24 16:46:51.140575,599631641172249829,-28.00
2025-12-24 16:46:51.140575,599631641172249829,7.00
2025-12-24 16:46:51.140575,599631641172249829,4.00
2025-12-24 16:46:51.140575,599631641172249829,2.00
2025-12-24 16:46:51.140575,599631641172249829,14.00
2025-12-24 16:46:51.140575,599631641172249829,14.00
2025-12-24 16:46:51.140575,599631641172249829,14.00
2025-12-24 16:46:51.140575,599631641172249829,35.00
2025-12-24 16:46:51.140575,599631641172249829,53.00
2025-12-24 16:46:51.786901,599631641733135066,51.00
2025-12-24 16:46:51.786901,599631641733135066,56.00
2025-12-24 16:46:51.786901,599631641733135066,74.00
2025-12-24 16:46:51.786901,599631641733135066,91.00
2025-12-24 16:46:51.786901,599631641733135066,107.00
2025-12-24 16:46:51.786901,599631641733135066,133.00
2025-12-24 16:46:51.786901,599631641733135066,149.00
2025-12-24 16:46:51.786901,599631641733135066,151.00
2025-12-24 16:46:51.786901,599631641733135066,154.00
2025-12-24 16:46:51.786901,599631641733135066,170.00
2025-12-24 16:46:51.786901,599631641733135066,191.00
2025-12-24 16:46:51.786901,599631641733135066,193.00
2025-12-24 16:46:51.786901,599631641733135066,168.00
2025-12-24 16:46:51.786901,599631641733135066,128.00
2025-12-24 16:46:51.786901,599631641733135066,77.00
2025-12-24 16:46:51.786901,599631641733135066,4.00
2025-12-24 16:46:51.786901,599631641733135066,-65.00
2025-12-24 16:46:51.786901,599631641733135066,-114.00
2025-12-24 16:46:51.786901,599631641733135066,-156.00
2025-12-24 16:46:51.786901,599631641733135066,-184.00
2025-12-24 16:46:51.786901,599631641733135066,-196.00
2025-12-24 16:46:51.786901,599631641733135066,-200.00
2025-12-24 16:46:51.786901,599631641733135066,-205.00
2025-12-24 16:46:51.786901,599631641733135066,-200.00
2025-12-24 16:46:51.786901,599631641733135066,-198.00
2025-12-24 16:46:51.786901,599631641733135066,-200.00
2025-12-24 16:46:51.786901,599631641733135066,-193.00
2025-12-24 16:46:51.786901,599631641733135066,-179.00
2025-12-24 16:46:51.786901,599631641733135066,-168.00
2025-12-24 16:46:51.786901,599631641733135066,-165.00
2025-12-24 16:46:51.786901,599631641733135066,-158.00
2025-12-24 16:46:51.786901,599631641733135066,-147.00
2025-12-24 16:46:51.786901,599631641733135066,-142.00
2025-12-24 16:46:51.786901,599631641733135066,-140.00
2025-12-24 16:46:51.786901,599631641733135066,-133.00
2025-12-24 16:46:51.786901,599631641733135066,-123.00
2025-12-24 16:46:51.786901,599631641733135066,-123.00
2025-12-24 16:46:51.786901,599631641733135066,-126.00
2025-12-24 16:46:51.786901,599631641733135066,-123.00
2025-12-24 16:46:51.786901,599631641733135066,-121.00
2025-12-24 16:46:51.786901,599631641733135066,-123.00
2025-12-24 16:46:51.786901,599631641733135066,-126.00
2025-12-24 16:46:51.786901,599631641733135066,-128.00
2025-12-24 16:46:51.786901,599631641733135066,-133.00
2025-12-24 16:46:51.786901,599631641733135066,-133.00
2025-12-24 16:46:51.786901,599631641733135066,-123.00
2025-12-24 16:46:51.786901,599631641733135066,-123.00
2025-12-24 16:46:51.786901,599631641733135066,-123.00
2025-12-24 16:46:51.786901,599631641733135066,-112.00
2025-12-24 16:46:51.786901,599631641733135066,-105.00
2025-12-24 16:46:51.786901,599631641733135066,-102.00
2025-12-24 16:46:51.786901,599631641733135066,-98.00
2025-12-24 16:46:51.786901,599631641733135066,-91.00
2025-12-24 16:46:51.786901,599631641733135066,-88.00
2025-12-24 16:46:51.786901,599631641733135066,-88.00
2025-12-24 16:46:51.786901,599631641733135066,-88.00
2025-12-24 16:46:51.786901,599631641733135066,-98.00
2025-12-24 16:46:51.786901,599631641733135066,-102.00
2025-12-24 16:46:51.786901,599631641733135066,-81.00
2025-12-24 16:46:51.786901,599631641733135066,-63.00
2025-12-24 16:46:51.786901,599631641733135066,-77.00
2025-12-24 16:46:51.786901,599631641733135066,-98.00
2025-12-24 16:46:51.786901,599631641733135066,-88.00
2025-12-24 16:46:51.786901,599631641733135066,-74.00
2025-12-24 16:46:51.786901,599631641733135066,-72.00
2025-12-24 16:46:51.786901,599631641733135066,-67.00
2025-12-24 16:46:51.786901,599631641733135066,-63.00
2025-12-24 16:46:51.786901,599631641733135066,-67.00
2025-12-24 16:46:51.786901,599631641733135066,-67.00
2025-12-24 16:46:51.786901,599631641733135066,-49.00
2025-12-24 16:46:51.786901,599631641733135066,32.00
2025-12-24 16:46:51.786901,599631641733135066,280.00
2025-12-24 16:46:51.786901,599631641733135066,665.00
2025-12-24 16:46:52.353494,599631642294020303,747.00
2025-12-24 16:46:52.353494,599631642294020303,123.00
2025-12-24 16:46:52.353494,599631642294020303,-548.00
2025-12-24 16:46:52.353494,599631642294020303,-422.00
2025-12-24 16:46:52.353494,599631642294020303,-63.00
2025-12-24 16:46:52.353494,599631642294020303,-84.00
2025-12-24 16:46:52.353494,599631642294020303,-119.00
2025-12-24 16:46:52.353494,599631642294020303,-28.00
2025-12-24 16:46:52.353494,599631642294020303,-16.00
2025-12-24 16:46:52.353494,599631642294020303,-30.00
2025-12-24 16:46:52.353494,599631642294020303,-9.00
2025-12-24 16:46:52.353494,599631642294020303,2.00
2025-12-24 16:46:52.353494,599631642294020303,2.00
2025-12-24 16:46:52.353494,599631642294020303,16.00
2025-12-24 16:46:52.353494,599631642294020303,32.00
2025-12-24 16:46:52.353494,599631642294020303,39.00
2025-12-24 16:46:52.353494,599631642294020303,39.00
2025-12-24 16:46:52.353494,599631642294020303,44.00
2025-12-24 16:46:52.353494,599631642294020303,53.00
2025-12-24 16:46:52.353494,599631642294020303,72.00
2025-12-24 16:46:52.353494,599631642294020303,95.00
2025-12-24 16:46:52.353494,599631642294020303,109.00
2025-12-24 16:46:52.353494,599631642294020303,121.00
2025-12-24 16:46:52.353494,599631642294020303,142.00
2025-12-24 16:46:52.353494,599631642294020303,161.00
2025-12-24 16:46:52.353494,599631642294020303,172.00
2025-12-24 16:46:52.353494,599631642294020303,182.00
2025-12-24 16:46:52.353494,599631642294020303,191.00
2025-12-24 16:46:52.353494,599631642294020303,191.00
2025-12-24 16:46:52.353494,599631642294020303,186.00
2025-12-24 16:46:52.353494,599631642294020303,168.00
2025-12-24 16:46:52.353494,599631642294020303,130.00
2025-12-24 16:46:52.353494,599631642294020303,77.00
2025-12-24 16:46:52.353494,599631642294020303,9.00
2025-12-24 16:46:52.353494,599631642294020303,-60.00
2025-12-24 16:46:52.353494,599631642294020303,-121.00
2025-12-24 16:46:52.353494,599631642294020303,-156.00
2025-12-24 16:46:52.353494,599631642294020303,-175.00
2025-12-24 16:46:52.353494,599631642294020303,-193.00
2025-12-24 16:46:52.353494,599631642294020303,-205.00
2025-12-24 16:46:52.353494,599631642294020303,-205.00
2025-12-24 16:46:52.353494,599631642294020303,-205.00
2025-12-24 16:46:52.353494,599631642294020303,-198.00
2025-12-24 16:46:52.353494,599631642294020303,-182.00
2025-12-24 16:46:52.353494,599631642294020303,-175.00
2025-12-24 16:46:52.353494,599631642294020303,-172.00
2025-12-24 16:46:52.353494,599631642294020303,-165.00
2025-12-24 16:46:52.353494,599631642294020303,-158.00
2025-12-24 16:46:52.353494,599631642294020303,-156.00
2025-12-24 16:46:52.353494,599631642294020303,-149.00
2025-12-24 16:46:52.353494,599631642294020303,-142.00
2025-12-24 16:46:52.353494,599631642294020303,-135.00
2025-12-24 16:46:52.353494,599631642294020303,-128.00
2025-12-24 16:46:52.353494,599631642294020303,-123.00
2025-12-24 16:46:52.353494,599631642294020303,-119.00
2025-12-24 16:46:52.353494,599631642294020303,-112.00
2025-12-24 16:46:52.353494,599631642294020303,-114.00
2025-12-24 16:46:52.353494,599631642294020303,-116.00
2025-12-24 16:46:52.353494,599631642294020303,-116.00
2025-12-24 16:46:52.353494,599631642294020303,-121.00
2025-12-24 16:46:52.353494,599631642294020303,-123.00
2025-12-24 16:46:52.353494,599631642294020303,-121.00
2025-12-24 16:46:52.353494,599631642294020303,-119.00
2025-12-24 16:46:52.353494,599631642294020303,-119.00
2025-12-24 16:46:52.353494,599631642294020303,-119.00
2025-12-24 16:46:52.353494,599631642294020303,-121.00
2025-12-24 16:46:52.353494,599631642294020303,-116.00
2025-12-24 16:46:52.353494,599631642294020303,-112.00
2025-12-24 16:46:52.353494,599631642294020303,-116.00
2025-12-24 16:46:52.353494,599631642294020303,-116.00
2025-12-24 16:46:52.353494,599631642294020303,-114.00
2025-12-24 16:46:52.353494,599631642294020303,-112.00
2025-12-24 16:46:52.353494,599631642294020303,-107.00
2025-12-24 16:46:52.906713,599631642854905538,-107.00
2025-12-24 16:46:52.906713,599631642854905538,-112.00
2025-12-24 16:46:52.906713,599631642854905538,-107.00
2025-12-24 16:46:52.906713,599631642854905538,-100.00
2025-12-24 16:46:52.906713,599631642854905538,-107.00
2025-12-24 16:46:52.906713,599631642854905538,-107.00
2025-12-24 16:46:52.906713,599631642854905538,-98.00
2025-12-24 16:46:52.906713,599631642854905538,-98.00
2025-12-24 16:46:52.906713,599631642854905538,-93.00
2025-12-24 16:46:52.906713,599631642854905538,-67.00
2025-12-24 16:46:52.906713,599631642854905538,-60.00
2025-12-24 16:46:52.906713,599631642854905538,-70.00
2025-12-24 16:46:52.906713,599631642854905538,-77.00
2025-12-24 16:46:52.906713,599631642854905538,-74.00
2025-12-24 16:46:52.906713,599631642854905538,-72.00
2025-12-24 16:46:52.906713,599631642854905538,-67.00
2025-12-24 16:46:52.906713,599631642854905538,-56.00
2025-12-24 16:46:52.906713,599631642854905538,-44.00
2025-12-24 16:46:52.906713,599631642854905538,-44.00
2025-12-24 16:46:52.906713,599631642854905538,-46.00
2025-12-24 16:46:52.906713,599631642854905538,-2.00
2025-12-24 16:46:52.906713,599631642854905538,158.00
2025-12-24 16:46:52.906713,599631642854905538,499.00
2025-12-24 16:46:52.906713,599631642854905538,812.00
2025-12-24 16:46:52.906713,599631642854905538,574.00
2025-12-24 16:46:52.906713,599631642854905538,-193.00
2025-12-24 16:46:52.906713,599631642854905538,-534.00
2025-12-24 16:46:52.906713,599631642854905538,-177.00
2025-12-24 16:46:52.906713,599631642854905538,7.00
2025-12-24 16:46:52.906713,599631642854905538,-100.00
2025-12-24 16:46:52.906713,599631642854905538,-63.00
2025-12-24 16:46:52.906713,599631642854905538,0.00
2025-12-24 16:46:52.906713,599631642854905538,-30.00
2025-12-24 16:46:52.906713,599631642854905538,-30.00
2025-12-24 16:46:52.906713,599631642854905538,-7.00
2025-12-24 16:46:52.906713,599631642854905538,-4.00
2025-12-24 16:46:52.906713,599631642854905538,2.00
2025-12-24 16:46:52.906713,599631642854905538,18.00
2025-12-24 16:46:52.906713,599631642854905538,23.00
2025-12-24 16:46:52.906713,599631642854905538,28.00
2025-12-24 16:46:52.906713,599631642854905538,32.00
2025-12-24 16:46:52.906713,599631642854905538,42.00
2025-12-24 16:46:52.906713,599631642854905538,53.00
2025-12-24 16:46:52.906713,599631642854905538,65.00
2025-12-24 16:46:52.906713,599631642854905538,77.00
2025-12-24 16:46:52.906713,599631642854905538,93.00
2025-12-24 16:46:52.906713,599631642854905538,112.00
2025-12-24 16:46:52.906713,599631642854905538,123.00
2025-12-24 16:46:52.906713,599631642854905538,135.00
2025-12-24 16:46:52.906713,599631642854905538,151.00
2025-12-24 16:46:52.906713,599631642854905538,161.00
2025-12-24 16:46:52.906713,599631642854905538,165.00
2025-12-24 16:46:52.906713,599631642854905538,170.00
2025-12-24 16:46:52.906713,599631642854905538,165.00
2025-12-24 16:46:52.906713,599631642854905538,144.00
2025-12-24 16:46:52.906713,599631642854905538,105.00
2025-12-24 16:46:52.906713,599631642854905538,46.00
2025-12-24 16:46:52.906713,599631642854905538,-21.00
2025-12-24 16:46:52.906713,599631642854905538,-84.00
2025-12-24 16:46:52.906713,599631642854905538,-133.00
2025-12-24 16:46:52.906713,599631642854905538,-168.00
2025-12-24 16:46:52.906713,599631642854905538,-191.00
2025-12-24 16:46:52.906713,599631642854905538,-200.00
2025-12-24 16:46:52.906713,599631642854905538,-200.00
2025-12-24 16:46:52.906713,599631642854905538,-198.00
2025-12-24 16:46:52.906713,599631642854905538,-196.00
2025-12-24 16:46:52.906713,599631642854905538,-196.00
2025-12-24 16:46:52.906713,599631642854905538,-191.00
2025-12-24 16:46:52.906713,599631642854905538,-179.00
2025-12-24 16:46:52.906713,599631642854905538,-170.00
2025-12-24 16:46:52.906713,599631642854905538,-172.00
2025-12-24 16:46:52.906713,599631642854905538,-172.00
2025-12-24 16:46:52.906713,599631642854905538,-165.00
2025-12-24 16:46:53.446247,599631643415790773,-154.00
2025-12-24 16:46:53.446247,599631643415790773,-147.00
2025-12-24 16:46:53.446247,599631643415790773,-140.00
2025-12-24 16:46:53.446247,599631643415790773,-133.00
2025-12-24 16:46:53.446247,599631643415790773,-128.00
2025-12-24 16:46:53.446247,599631643415790773,-126.00
2025-12-24 16:46:53.446247,599631643415790773,-126.00
2025-12-24 16:46:53.446247,599631643415790773,-119.00
2025-12-24 16:46:53.446247,599631643415790773,-107.00
2025-12-24 16:46:53.446247,599631643415790773,-98.00
2025-12-24 16:46:53.446247,599631643415790773,-100.00
2025-12-24 16:46:53.446247,599631643415790773,-105.00
2025-12-24 16:46:53.446247,599631643415790773,-105.00
2025-12-24 16:46:53.446247,599631643415790773,-100.00
2025-12-24 16:46:53.446247,599631643415790773,-91.00
2025-12-24 16:46:53.446247,599631643415790773,-86.00
2025-12-24 16:46:53.446247,599631643415790773,-86.00
2025-12-24 16:46:53.446247,599631643415790773,-88.00
2025-12-24 16:46:53.446247,599631643415790773,-88.00
2025-12-24 16:46:53.446247,599631643415790773,-91.00
2025-12-24 16:46:53.446247,599631643415790773,-93.00
2025-12-24 16:46:53.446247,599631643415790773,-91.00
2025-12-24 16:46:53.446247,599631643415790773,-91.00
2025-12-24 16:46:53.446247,599631643415790773,-95.00
2025-12-24 16:46:53.446247,599631643415790773,-98.00
2025-12-24 16:46:53.446247,599631643415790773,-86.00
2025-12-24 16:46:53.446247,599631643415790773,-79.00
2025-12-24 16:46:53.446247,599631643415790773,-86.00
2025-12-24 16:46:53.446247,599631643415790773,-88.00
2025-12-24 16:46:53.446247,599631643415790773,-74.00
2025-12-24 16:46:53.446247,599631643415790773,-70.00
2025-12-24 16:46:53.446247,599631643415790773,-77.00
2025-12-24 16:46:53.446247,599631643415790773,-77.00
2025-12-24 16:46:53.446247,599631643415790773,-70.00
2025-12-24 16:46:53.446247,599631643415790773,-70.00
2025-12-24 16:46:53.446247,599631643415790773,-70.00
2025-12-24 16:46:53.446247,599631643415790773,-70.00
2025-12-24 16:46:53.446247,599631643415790773,-70.00
2025-12-24 16:46:53.446247,599631643415790773,-65.00
2025-12-24 16:46:53.446247,599631643415790773,-49.00
2025-12-24 16:46:53.446247,599631643415790773,-42.00
2025-12-24 16:46:53.446247,599631643415790773,-53.00
2025-12-24 16:46:53.446247,599631643415790773,-67.00
2025-12-24 16:46:53.446247,599631643415790773,-72.00
2025-12-24 16:46:53.446247,599631643415790773,-70.00
2025-12-24 16:46:53.446247,599631643415790773,-67.00
2025-12-24 16:46:53.446247,599631643415790773,-67.00
2025-12-24 16:46:53.446247,599631643415790773,-67.00
2025-12-24 16:46:53.446247,599631643415790773,-67.00
2025-12-24 16:46:53.446247,599631643415790773,-65.00
2025-12-24 16:46:53.446247,599631643415790773,-46.00
2025-12-24 16:46:53.446247,599631643415790773,46.00
2025-12-24 16:46:53.446247,599631643415790773,308.00
2025-12-24 16:46:53.446247,599631643415790773,681.00
2025-12-24 16:46:53.446247,599631643415790773,754.00
2025-12-24 16:46:53.446247,599631643415790773,147.00
2025-12-24 16:46:53.446247,599631643415790773,-504.00
2025-12-24 16:46:53.446247,599631643415790773,-378.00
2025-12-24 16:46:53.446247,599631643415790773,-30.00
2025-12-24 16:46:53.446247,599631643415790773,-65.00
2025-12-24 16:46:53.446247,599631643415790773,-109.00
2025-12-24 16:46:53.446247,599631643415790773,-28.00
2025-12-24 16:46:53.446247,599631643415790773,-25.00
2025-12-24 16:46:53.446247,599631643415790773,-51.00
2025-12-24 16:46:53.446247,599631643415790773,-23.00
2025-12-24 16:46:53.446247,599631643415790773,-14.00
2025-12-24 16:46:53.446247,599631643415790773,-23.00
2025-12-24 16:46:53.446247,599631643415790773,-7.00
2025-12-24 16:46:53.446247,599631643415790773,14.00
2025-12-24 16:46:53.446247,599631643415790773,14.00
2025-12-24 16:46:53.446247,599631643415790773,14.00
2025-12-24 16:46:53.446247,599631643415790773,25.00
2025-12-24 16:46:53.446247,599631643415790773,37.00
2025-12-24 16:46:53.996411,599631643976676008,49.00
2025-12-24 16:46:53.996411,599631643976676008,56.00
2025-12-24 16:46:53.996411,599631643976676008,67.00
2025-12-24 16:46:53.996411,599631643976676008,88.00
2025-12-24 16:46:53.996411,599631643976676008,98.00
2025-12-24 16:46:53.996411,599631643976676008,109.00
2025-12-24 16:46:53.996411,599631643976676008,133.00
2025-12-24 16:46:53.996411,599631643976676008,147.00
2025-12-24 16:46:53.996411,599631643976676008,147.00
2025-12-24 16:46:53.996411,599631643976676008,149.00
2025-12-24 16:46:53.996411,599631643976676008,154.00
2025-12-24 16:46:53.996411,599631643976676008,154.00
2025-12-24 16:46:53.996411,599631643976676008,135.00
2025-12-24 16:46:53.996411,599631643976676008,91.00
2025-12-24 16:46:53.996411,599631643976676008,25.00
2025-12-24 16:46:53.996411,599631643976676008,-44.00
2025-12-24 16:46:53.996411,599631643976676008,-93.00
2025-12-24 16:46:53.996411,599631643976676008,-128.00
2025-12-24 16:46:53.996411,599631643976676008,-158.00
2025-12-24 16:46:53.996411,599631643976676008,-177.00
2025-12-24 16:46:53.996411,599631643976676008,-182.00
2025-12-24 16:46:53.996411,599631643976676008,-177.00
2025-12-24 16:46:53.996411,599631643976676008,-177.00
2025-12-24 16:46:53.996411,599631643976676008,-170.00
2025-12-24 16:46:53.996411,599631643976676008,-161.00
2025-12-24 16:46:53.996411,599631643976676008,-158.00
2025-12-24 16:46:53.996411,599631643976676008,-156.00
2025-12-24 16:46:53.996411,599631643976676008,-147.00
2025-12-24 16:46:53.996411,599631643976676008,-137.00
2025-12-24 16:46:53.996411,599631643976676008,-133.00
2025-12-24 16:46:53.996411,599631643976676008,-128.00
2025-12-24 16:46:53.996411,599631643976676008,-128.00
2025-12-24 16:46:53.996411,599631643976676008,-126.00
2025-12-24 16:46:53.996411,599631643976676008,-121.00
2025-12-24 16:46:53.996411,599631643976676008,-119.00
2025-12-24 16:46:53.996411,599631643976676008,-116.00
2025-12-24 16:46:53.996411,599631643976676008,-109.00
2025-12-24 16:46:53.996411,599631643976676008,-107.00
2025-12-24 16:46:53.996411,599631643976676008,-109.00
2025-12-24 16:46:53.996411,599631643976676008,-112.00
2025-12-24 16:46:53.996411,599631643976676008,-112.00
2025-12-24 16:46:53.996411,599631643976676008,-107.00
2025-12-24 16:46:53.996411,599631643976676008,-107.00
2025-12-24 16:46:53.996411,599631643976676008,-107.00
2025-12-24 16:46:53.996411,599631643976676008,-107.00
2025-12-24 16:46:53.996411,599631643976676008,-109.00
2025-12-24 16:46:53.996411,599631643976676008,-114.00
2025-12-24 16:46:53.996411,599631643976676008,-112.00
2025-12-24 16:46:53.996411,599631643976676008,-107.00
2025-12-24 16:46:53.996411,599631643976676008,-107.00
2025-12-24 16:46:53.996411,599631643976676008,-114.00
2025-12-24 16:46:53.996411,599631643976676008,-112.00
2025-12-24 16:46:53.996411,599631643976676008,-109.00
2025-12-24 16:46:53.996411,599631643976676008,-109.00
2025-12-24 16:46:53.996411,599631643976676008,-107.00
2025-12-24 16:46:53.996411,599631643976676008,-105.00
2025-12-24 16:46:53.996411,599631643976676008,-105.00
2025-12-24 16:46:53.996411,599631643976676008,-107.00
2025-12-24 16:46:53.996411,599631643976676008,-107.00
2025-12-24 16:46:53.996411,599631643976676008,-100.00
2025-12-24 16:46:53.996411,599631643976676008,-95.00
2025-12-24 16:46:53.996411,599631643976676008,-98.00
2025-12-24 16:46:53.996411,599631643976676008,-98.00
2025-12-24 16:46:53.996411,599631643976676008,-95.00
2025-12-24 16:46:53.996411,599631643976676008,-95.00
2025-12-24 16:46:53.996411,599631643976676008,-93.00
2025-12-24 16:46:53.996411,599631643976676008,-88.00
2025-12-24 16:46:53.996411,599631643976676008,-93.00
2025-12-24 16:46:53.996411,599631643976676008,-98.00
2025-12-24 16:46:53.996411,599631643976676008,-93.00
2025-12-24 16:46:53.996411,599631643976676008,-84.00
2025-12-24 16:46:53.996411,599631643976676008,-84.00
2025-12-24 16:46:53.996411,599631643976676008,-84.00
2025-12-24 16:46:54.545695,599631644537566331,-81.00
2025-12-24 16:46:54.545695,599631644537566331,-84.00
2025-12-24 16:46:54.545695,599631644537566331,-88.00
2025-12-24 16:46:54.545695,599631644537566331,-84.00
2025-12-24 16:46:54.545695,599631644537566331,-65.00
2025-12-24 16:46:54.545695,599631644537566331,-51.00
2025-12-24 16:46:54.545695,599631644537566331,-60.00
2025-12-24 16:46:54.545695,599631644537566331,-84.00
2025-12-24 16:46:54.545695,599631644537566331,-81.00
2025-12-24 16:46:54.545695,599631644537566331,-60.00
2025-12-24 16:46:54.545695,599631644537566331,-56.00
2025-12-24 16:46:54.545695,599631644537566331,-63.00
2025-12-24 16:46:54.545695,599631644537566331,-58.00
2025-12-24 16:46:54.545695,599631644537566331,-44.00
2025-12-24 16:46:54.545695,599631644537566331,-37.00
2025-12-24 16:46:54.545695,599631644537566331,-18.00
2025-12-24 16:46:54.545695,599631644537566331,77.00
2025-12-24 16:46:54.545695,599631644537566331,336.00
2025-12-24 16:46:54.545695,599631644537566331,712.00
2025-12-24 16:46:54.545695,599631644537566331,805.00
2025-12-24 16:46:54.545695,599631644537566331,228.00
2025-12-24 16:46:54.545695,599631644537566331,-427.00
2025-12-24 16:46:54.545695,599631644537566331,-331.00
2025-12-24 16:46:54.545695,599631644537566331,18.00
2025-12-24 16:46:54.545695,599631644537566331,-11.00
2025-12-24 16:46:54.545695,599631644537566331,-77.00
2025-12-24 16:46:54.545695,599631644537566331,9.00
2025-12-24 16:46:54.545695,599631644537566331,21.00
2025-12-24 16:46:54.545695,599631644537566331,-21.00
2025-12-24 16:46:54.545695,599631644537566331,0.00
2025-12-24 16:46:54.545695,599631644537566331,18.00
2025-12-24 16:46:54.545695,599631644537566331,11.00
2025-12-24 16:46:54.545695,599631644537566331,14.00
2025-12-24 16:46:54.545695,599631644537566331,21.00
2025-12-24 16:46:54.545695,599631644537566331,23.00
2025-12-24 16:46:54.545695,599631644537566331,32.00
2025-12-24 16:46:54.545695,599631644537566331,42.00
2025-12-24 16:46:54.545695,599631644537566331,51.00
2025-12-24 16:46:54.545695,599631644537566331,65.00
2025-12-24 16:46:54.545695,599631644537566331,70.00
2025-12-24 16:46:54.545695,599631644537566331,74.00
2025-12-24 16:46:54.545695,599631644537566331,91.00
2025-12-24 16:46:54.545695,599631644537566331,105.00
2025-12-24 16:46:54.545695,599631644537566331,116.00
2025-12-24 16:46:54.545695,599631644537566331,126.00
2025-12-24 16:46:54.545695,599631644537566331,135.00
2025-12-24 16:46:54.545695,599631644537566331,142.00
2025-12-24 16:46:54.545695,599631644537566331,147.00
2025-12-24 16:46:54.545695,599631644537566331,147.00
2025-12-24 16:46:54.545695,599631644537566331,137.00
2025-12-24 16:46:54.545695,599631644537566331,121.00
2025-12-24 16:46:54.545695,599631644537566331,86.00
2025-12-24 16:46:54.545695,599631644537566331,25.00
2025-12-24 16:46:54.545695,599631644537566331,-44.00
2025-12-24 16:46:54.545695,599631644537566331,-100.00
2025-12-24 16:46:54.545695,599631644537566331,-137.00
2025-12-24 16:46:54.545695,599631644537566331,-165.00
2025-12-24 16:46:54.545695,599631644537566331,-186.00
2025-12-24 16:46:54.545695,599631644537566331,-196.00
2025-12-24 16:46:54.545695,599631644537566331,-193.00
2025-12-24 16:46:54.545695,599631644537566331,-191.00
2025-12-24 16:46:54.545695,599631644537566331,-193.00
2025-12-24 16:46:54.545695,599631644537566331,-184.00
2025-12-24 16:46:54.545695,599631644537566331,-172.00
2025-12-24 16:46:54.545695,599631644537566331,-175.00
2025-12-24 16:46:54.545695,599631644537566331,-177.00
2025-12-24 16:46:54.545695,599631644537566331,-168.00
2025-12-24 16:46:54.545695,599631644537566331,-158.00
2025-12-24 16:46:54.545695,599631644537566331,-158.00
2025-12-24 16:46:54.545695,599631644537566331,-156.00
2025-12-24 16:46:54.545695,599631644537566331,-151.00
2025-12-24 16:46:54.545695,599631644537566331,-140.00
2025-12-24 16:46:54.545695,599631644537566331,-137.00
2025-12-24 16:46:55.029368,599631645098476996,-140.00
2025-12-24 16:46:55.029368,599631645098476996,-135.00
2025-12-24 16:46:55.029368,599631645098476996,-128.00
2025-12-24 16:46:55.029368,599631645098476996,-126.00
2025-12-24 16:46:55.029368,599631645098476996,-126.00
2025-12-24 16:46:55.029368,599631645098476996,-119.00
2025-12-24 16:46:55.029368,599631645098476996,-112.00
2025-12-24 16:46:55.029368,599631645098476996,-112.00
2025-12-24 16:46:55.029368,599631645098476996,-116.00
2025-12-24 16:46:55.029368,599631645098476996,-114.00
2025-12-24 16:46:55.029368,599631645098476996,-107.00
2025-12-24 16:46:55.029368,599631645098476996,-102.00
2025-12-24 16:46:55.029368,599631645098476996,-98.00
2025-12-24 16:46:55.029368,599631645098476996,-93.00
2025-12-24 16:46:55.029368,599631645098476996,-91.00
2025-12-24 16:46:55.029368,599631645098476996,-91.00
2025-12-24 16:46:55.029368,599631645098476996,-93.00
2025-12-24 16:46:55.029368,599631645098476996,-86.00
2025-12-24 16:46:55.029368,599631645098476996,-77.00
2025-12-24 16:46:55.029368,599631645098476996,-74.00
2025-12-24 16:46:55.029368,599631645098476996,-81.00
2025-12-24 16:46:55.029368,599631645098476996,-84.00
2025-12-24 16:46:55.029368,599631645098476996,-81.00
2025-12-24 16:46:55.029368,599631645098476996,-77.00
2025-12-24 16:46:55.029368,599631645098476996,-74.00
2025-12-24 16:46:55.029368,599631645098476996,-77.00
2025-12-24 16:46:55.029368,599631645098476996,-81.00
2025-12-24 16:46:55.029368,599631645098476996,-77.00
2025-12-24 16:46:55.029368,599631645098476996,-72.00
2025-12-24 16:46:55.029368,599631645098476996,-70.00
2025-12-24 16:46:55.029368,599631645098476996,-74.00
2025-12-24 16:46:55.029368,599631645098476996,-74.00
2025-12-24 16:46:55.029368,599631645098476996,-70.00
2025-12-24 16:46:55.029368,599631645098476996,-70.00
2025-12-24 16:46:55.029368,599631645098476996,-72.00
2025-12-24 16:46:55.029368,599631645098476996,-70.00
2025-12-24 16:46:55.029368,599631645098476996,-70.00
2025-12-24 16:46:55.029368,599631645098476996,-70.00
2025-12-24 16:46:55.029368,599631645098476996,-72.00
2025-12-24 16:46:55.029368,599631645098476996,-72.00
2025-12-24 16:46:55.029368,599631645098476996,-67.00
2025-12-24 16:46:55.029368,599631645098476996,-58.00
2025-12-24 16:46:55.029368,599631645098476996,-53.00
2025-12-24 16:46:55.029368,599631645098476996,-56.00
2025-12-24 16:46:55.029368,599631645098476996,-56.00
2025-12-24 16:46:55.029368,599631645098476996,-53.00
2025-12-24 16:46:55.029368,599631645098476996,-39.00
2025-12-24 16:46:55.029368,599631645098476996,-25.00
2025-12-24 16:46:55.029368,599631645098476996,-35.00
2025-12-24 16:46:55.029368,599631645098476996,-56.00
2025-12-24 16:46:55.029368,599631645098476996,-67.00
2025-12-24 16:46:55.029368,599631645098476996,-60.00
2025-12-24 16:46:55.029368,599631645098476996,-53.00
2025-12-24 16:46:55.029368,599631645098476996,-56.00
2025-12-24 16:46:55.029368,599631645098476996,-53.00
2025-12-24 16:46:55.029368,599631645098476996,-49.00
2025-12-24 16:46:55.029368,599631645098476996,-53.00
2025-12-24 16:46:55.029368,599631645098476996,-42.00
2025-12-24 16:46:55.029368,599631645098476996,63.00
2025-12-24 16:46:55.029368,599631645098476996,338.00
2025-12-24 16:46:55.029368,599631645098476996,703.00
2025-12-24 16:46:55.029368,599631645098476996,724.00
2025-12-24 16:46:55.029368,599631645098476996,81.00
2025-12-24 16:46:55.029368,599631645098476996,-518.00
2025-12-24 16:46:55.029368,599631645098476996,-343.00
2025-12-24 16:46:55.029368,599631645098476996,-18.00
2025-12-24 16:46:55.029368,599631645098476996,-72.00
2025-12-24 16:46:55.029368,599631645098476996,-112.00
2025-12-24 16:46:55.029368,599631645098476996,-37.00
2025-12-24 16:46:55.029368,599631645098476996,-42.00
2025-12-24 16:46:55.029368,599631645098476996,-58.00
2025-12-24 16:46:55.029368,599631645098476996,-28.00
2025-12-24 16:46:55.029368,599631645098476996,-16.00
2025-12-24 16:46:55.657438,599631645659357149,-21.00
2025-12-24 16:46:55.657438,599631645659357149,-9.00
2025-12-24 16:46:55.657438,599631645659357149,2.00
2025-12-24 16:46:55.657438,599631645659357149,16.00
2025-12-24 16:46:55.657438,599631645659357149,35.00
2025-12-24 16:46:55.657438,599631645659357149,39.00
2025-12-24 16:46:55.657438,599631645659357149,35.00
2025-12-24 16:46:55.657438,599631645659357149,49.00
2025-12-24 16:46:55.657438,599631645659357149,67.00
2025-12-24 16:46:55.657438,599631645659357149,77.00
2025-12-24 16:46:55.657438,599631645659357149,84.00
2025-12-24 16:46:55.657438,599631645659357149,95.00
2025-12-24 16:46:55.657438,599631645659357149,109.00
2025-12-24 16:46:55.657438,599631645659357149,123.00
2025-12-24 16:46:55.657438,599631645659357149,133.00
2025-12-24 16:46:55.657438,599631645659357149,142.00
2025-12-24 16:46:55.657438,599631645659357149,144.00
2025-12-24 16:46:55.657438,599631645659357149,137.00
2025-12-24 16:46:55.657438,599631645659357149,121.00
2025-12-24 16:46:55.657438,599631645659357149,100.00
2025-12-24 16:46:55.657438,599631645659357149,65.00
2025-12-24 16:46:55.657438,599631645659357149,9.00
2025-12-24 16:46:55.657438,599631645659357149,-49.00
2025-12-24 16:46:55.657438,599631645659357149,-100.00
2025-12-24 16:46:55.657438,599631645659357149,-142.00
2025-12-24 16:46:55.657438,599631645659357149,-170.00
2025-12-24 16:46:55.657438,599631645659357149,-184.00
2025-12-24 16:46:55.657438,599631645659357149,-191.00
2025-12-24 16:46:55.657438,599631645659357149,-191.00
2025-12-24 16:46:55.657438,599631645659357149,-191.00
2025-12-24 16:46:55.657438,599631645659357149,-189.00
2025-12-24 16:46:55.657438,599631645659357149,-186.00
2025-12-24 16:46:55.657438,599631645659357149,-179.00
2025-12-24 16:46:55.657438,599631645659357149,-168.00
2025-12-24 16:46:55.657438,599631645659357149,-158.00
2025-12-24 16:46:55.657438,599631645659357149,-161.00
2025-12-24 16:46:55.657438,599631645659357149,-156.00
2025-12-24 16:46:55.657438,599631645659357149,-149.00
2025-12-24 16:46:55.657438,599631645659357149,-144.00
2025-12-24 16:46:55.657438,599631645659357149,-140.00
2025-12-24 16:46:55.657438,599631645659357149,-135.00
2025-12-24 16:46:55.657438,599631645659357149,-130.00
2025-12-24 16:46:55.657438,599631645659357149,-128.00
2025-12-24 16:46:55.657438,599631645659357149,-123.00
2025-12-24 16:46:55.657438,599631645659357149,-119.00
2025-12-24 16:46:55.657438,599631645659357149,-112.00
2025-12-24 16:46:55.657438,599631645659357149,-112.00
2025-12-24 16:46:55.657438,599631645659357149,-112.00
2025-12-24 16:46:55.657438,599631645659357149,-109.00
2025-12-24 16:46:55.657438,599631645659357149,-114.00
2025-12-24 16:46:55.657438,599631645659357149,-114.00
2025-12-24 16:46:55.657438,599631645659357149,-107.00
2025-12-24 16:46:55.657438,599631645659357149,-102.00
2025-12-24 16:46:55.657438,599631645659357149,-102.00
2025-12-24 16:46:55.657438,599631645659357149,-107.00
2025-12-24 16:46:55.657438,599631645659357149,-109.00
2025-12-24 16:46:55.657438,599631645659357149,-102.00
2025-12-24 16:46:55.657438,599631645659357149,-98.00
2025-12-24 16:46:55.657438,599631645659357149,-102.00
2025-12-24 16:46:55.657438,599631645659357149,-105.00
2025-12-24 16:46:55.657438,599631645659357149,-102.00
2025-12-24 16:46:55.657438,599631645659357149,-93.00
2025-12-24 16:46:55.657438,599631645659357149,-84.00
2025-12-24 16:46:55.657438,599631645659357149,-74.00
2025-12-24 16:46:55.657438,599631645659357149,-60.00
2025-12-24 16:46:55.657438,599631645659357149,-53.00
2025-12-24 16:46:55.657438,599631645659357149,-58.00
2025-12-24 16:46:55.657438,599631645659357149,-60.00
2025-12-24 16:46:55.657438,599631645659357149,-58.00
2025-12-24 16:46:55.657438,599631645659357149,-56.00
2025-12-24 16:46:55.657438,599631645659357149,-53.00
2025-12-24 16:46:55.657438,599631645659357149,-58.00
2025-12-24 16:46:55.657438,599631645659357149,-60.00
2025-12-24 16:46:56.159723,599631646220237298,-58.00
2025-12-24 16:46:56.159723,599631646220237298,-56.00
2025-12-24 16:46:56.159723,599631646220237298,-56.00
2025-12-24 16:46:56.159723,599631646220237298,-56.00
2025-12-24 16:46:56.159723,599631646220237298,-56.00
2025-12-24 16:46:56.159723,599631646220237298,-53.00
2025-12-24 16:46:56.159723,599631646220237298,-56.00
2025-12-24 16:46:56.159723,599631646220237298,-58.00
2025-12-24 16:46:56.159723,599631646220237298,-53.00
2025-12-24 16:46:56.159723,599631646220237298,-53.00
2025-12-24 16:46:56.159723,599631646220237298,-56.00
2025-12-24 16:46:56.159723,599631646220237298,-56.00
2025-12-24 16:46:56.159723,599631646220237298,-46.00
2025-12-24 16:46:56.159723,599631646220237298,-39.00
2025-12-24 16:46:56.159723,599631646220237298,-44.00
2025-12-24 16:46:56.159723,599631646220237298,-37.00
2025-12-24 16:46:56.159723,599631646220237298,-21.00
2025-12-24 16:46:56.159723,599631646220237298,-28.00
2025-12-24 16:46:56.159723,599631646220237298,-51.00
2025-12-24 16:46:56.159723,599631646220237298,-63.00
2025-12-24 16:46:56.159723,599631646220237298,-60.00
2025-12-24 16:46:56.159723,599631646220237298,-56.00
2025-12-24 16:46:56.159723,599631646220237298,-58.00
2025-12-24 16:46:56.159723,599631646220237298,-56.00
2025-12-24 16:46:56.159723,599631646220237298,-46.00
2025-12-24 16:46:56.159723,599631646220237298,-44.00
2025-12-24 16:46:56.159723,599631646220237298,-44.00
2025-12-24 16:46:56.159723,599631646220237298,21.00
2025-12-24 16:46:56.159723,599631646220237298,247.00
2025-12-24 16:46:56.159723,599631646220237298,628.00
2025-12-24 16:46:56.159723,599631646220237298,784.00
2025-12-24 16:46:56.159723,599631646220237298,254.00
2025-12-24 16:46:56.159723,599631646220237298,-462.00
2025-12-24 16:46:56.159723,599631646220237298,-450.00
2025-12-24 16:46:56.159723,599631646220237298,-81.00
2025-12-24 16:46:56.159723,599631646220237298,-60.00
2025-12-24 16:46:56.159723,599631646220237298,-121.00
2025-12-24 16:46:56.159723,599631646220237298,-46.00
2025-12-24 16:46:56.159723,599631646220237298,-35.00
2025-12-24 16:46:56.159723,599631646220237298,-65.00
2025-12-24 16:46:56.159723,599631646220237298,-42.00
2025-12-24 16:46:56.159723,599631646220237298,-25.00
2025-12-24 16:46:56.159723,599631646220237298,-35.00
2025-12-24 16:46:56.159723,599631646220237298,-30.00
2025-12-24 16:46:56.159723,599631646220237298,-14.00
2025-12-24 16:46:56.159723,599631646220237298,-4.00
2025-12-24 16:46:56.159723,599631646220237298,-2.00
2025-12-24 16:46:56.159723,599631646220237298,4.00
2025-12-24 16:46:56.159723,599631646220237298,18.00
2025-12-24 16:46:56.159723,599631646220237298,30.00
2025-12-24 16:46:56.159723,599631646220237298,37.00
2025-12-24 16:46:56.159723,599631646220237298,44.00
2025-12-24 16:46:56.159723,599631646220237298,53.00
2025-12-24 16:46:56.159723,599631646220237298,72.00
2025-12-24 16:46:56.159723,599631646220237298,95.00
2025-12-24 16:46:56.159723,599631646220237298,116.00
2025-12-24 16:46:56.159723,599631646220237298,140.00
2025-12-24 16:46:56.159723,599631646220237298,154.00
2025-12-24 16:46:56.159723,599631646220237298,156.00
2025-12-24 16:46:56.159723,599631646220237298,158.00
2025-12-24 16:46:56.159723,599631646220237298,154.00
2025-12-24 16:46:56.159723,599631646220237298,133.00
2025-12-24 16:46:56.159723,599631646220237298,88.00
2025-12-24 16:46:56.159723,599631646220237298,25.00
2025-12-24 16:46:56.159723,599631646220237298,-35.00
2025-12-24 16:46:56.159723,599631646220237298,-88.00
2025-12-24 16:46:56.159723,599631646220237298,-140.00
2025-12-24 16:46:56.159723,599631646220237298,-175.00
2025-12-24 16:46:56.159723,599631646220237298,-189.00
2025-12-24 16:46:56.159723,599631646220237298,-196.00
2025-12-24 16:46:56.159723,599631646220237298,-198.00
2025-12-24 16:46:56.159723,599631646220237298,-198.00
2025-12-24 16:46:56.159723,599631646220237298,-198.00
2025-12-24 16:46:56.752976,599631646781117447,-200.00
2025-12-24 16:46:56.752976,599631646781117447,-191.00
2025-12-24 16:46:56.752976,599631646781117447,-177.00
2025-12-24 16:46:56.752976,599631646781117447,-170.00
2025-12-24 16:46:56.752976,599631646781117447,-163.00
2025-12-24 16:46:56.752976,599631646781117447,-156.00
2025-12-24 16:46:56.752976,599631646781117447,-149.00
2025-12-24 16:46:56.752976,599631646781117447,-142.00
2025-12-24 16:46:56.752976,599631646781117447,-137.00
2025-12-24 16:46:56.752976,599631646781117447,-128.00
2025-12-24 16:46:56.752976,599631646781117447,-112.00
2025-12-24 16:46:56.752976,599631646781117447,-105.00
2025-12-24 16:46:56.752976,599631646781117447,-102.00
2025-12-24 16:46:56.752976,599631646781117447,-91.00
2025-12-24 16:46:56.752976,599631646781117447,-81.00
2025-12-24 16:46:56.752976,599631646781117447,-81.00
2025-12-24 16:46:56.752976,599631646781117447,-81.00
2025-12-24 16:46:56.752976,599631646781117447,-84.00
2025-12-24 16:46:56.752976,599631646781117447,-86.00
2025-12-24 16:46:56.752976,599631646781117447,-84.00
2025-12-24 16:46:56.752976,599631646781117447,-81.00
2025-12-24 16:46:56.752976,599631646781117447,-84.00
2025-12-24 16:46:56.752976,599631646781117447,-84.00
2025-12-24 16:46:56.752976,599631646781117447,-86.00
2025-12-24 16:46:56.752976,599631646781117447,-88.00
2025-12-24 16:46:56.752976,599631646781117447,-86.00
2025-12-24 16:46:56.752976,599631646781117447,-84.00
2025-12-24 16:46:56.752976,599631646781117447,-84.00
2025-12-24 16:46:56.752976,599631646781117447,-84.00
2025-12-24 16:46:56.752976,599631646781117447,-81.00
2025-12-24 16:46:56.752976,599631646781117447,-84.00
2025-12-24 16:46:56.752976,599631646781117447,-86.00
2025-12-24 16:46:56.752976,599631646781117447,-84.00
2025-12-24 16:46:56.752976,599631646781117447,-84.00
2025-12-24 16:46:56.752976,599631646781117447,-86.00
2025-12-24 16:46:56.752976,599631646781117447,-86.00
2025-12-24 16:46:56.752976,599631646781117447,-86.00
2025-12-24 16:46:56.752976,599631646781117447,-86.00
2025-12-24 16:46:56.752976,599631646781117447,-86.00
2025-12-24 16:46:56.752976,599631646781117447,-84.00
2025-12-24 16:46:56.752976,599631646781117447,-81.00
2025-12-24 16:46:56.752976,599631646781117447,-79.00
2025-12-24 16:46:56.752976,599631646781117447,-81.00
2025-12-24 16:46:56.752976,599631646781117447,-86.00
2025-12-24 16:46:56.752976,599631646781117447,-81.00
2025-12-24 16:46:56.752976,599631646781117447,-74.00
2025-12-24 16:46:56.752976,599631646781117447,-74.00
2025-12-24 16:46:56.752976,599631646781117447,-79.00
2025-12-24 16:46:56.752976,599631646781117447,-79.00
2025-12-24 16:46:56.752976,599631646781117447,-53.00
2025-12-24 16:46:56.752976,599631646781117447,-35.00
2025-12-24 16:46:56.752976,599631646781117447,-56.00
2025-12-24 16:46:56.752976,599631646781117447,-79.00
2025-12-24 16:46:56.752976,599631646781117447,-81.00
2025-12-24 16:46:56.752976,599631646781117447,-74.00
2025-12-24 16:46:56.752976,599631646781117447,-67.00
2025-12-24 16:46:56.752976,599631646781117447,-65.00
2025-12-24 16:46:56.752976,599631646781117447,-67.00
2025-12-24 16:46:56.752976,599631646781117447,-72.00
2025-12-24 16:46:56.752976,599631646781117447,-67.00
2025-12-24 16:46:56.752976,599631646781117447,-28.00
2025-12-24 16:46:56.752976,599631646781117447,123.00
2025-12-24 16:46:56.752976,599631646781117447,450.00
2025-12-24 16:46:56.752976,599631646781117447,747.00
2025-12-24 16:46:56.752976,599631646781117447,476.00
2025-12-24 16:46:56.752976,599631646781117447,-324.00
2025-12-24 16:46:56.752976,599631646781117447,-642.00
2025-12-24 16:46:56.752976,599631646781117447,-242.00
2025-12-24 16:46:56.752976,599631646781117447,-44.00
2025-12-24 16:46:56.752976,599631646781117447,-133.00
2025-12-24 16:46:56.752976,599631646781117447,-72.00
2025-12-24 16:46:56.752976,599631646781117447,-16.00
2025-12-24 16:46:56.752976,599631646781117447,-58.00
2025-12-24 16:46:57.360541,599631647341997596,-46.00
2025-12-24 16:46:57.360541,599631647341997596,-11.00
2025-12-24 16:46:57.360541,599631647341997596,-18.00
2025-12-24 16:46:57.360541,599631647341997596,-23.00
2025-12-24 16:46:57.360541,599631647341997596,-7.00
2025-12-24 16:46:57.360541,599631647341997596,4.00
2025-12-24 16:46:57.360541,599631647341997596,18.00
2025-12-24 16:46:57.360541,599631647341997596,39.00
2025-12-24 16:46:57.360541,599631647341997596,51.00
2025-12-24 16:46:57.360541,599631647341997596,56.00
2025-12-24 16:46:57.360541,599631647341997596,65.00
2025-12-24 16:46:57.360541,599631647341997596,77.00
2025-12-24 16:46:57.360541,599631647341997596,93.00
2025-12-24 16:46:57.360541,599631647341997596,109.00
2025-12-24 16:46:57.360541,599631647341997596,121.00
2025-12-24 16:46:57.360541,599631647341997596,135.00
2025-12-24 16:46:57.360541,599631647341997596,151.00
2025-12-24 16:46:57.360541,599631647341997596,165.00
2025-12-24 16:46:57.360541,599631647341997596,172.00
2025-12-24 16:46:57.360541,599631647341997596,172.00
2025-12-24 16:46:57.360541,599631647341997596,165.00
2025-12-24 16:46:57.360541,599631647341997596,151.00
2025-12-24 16:46:57.360541,599631647341997596,112.00
2025-12-24 16:46:57.360541,599631647341997596,49.00
2025-12-24 16:46:57.360541,599631647341997596,-18.00
2025-12-24 16:46:57.360541,599631647341997596,-81.00
2025-12-24 16:46:57.360541,599631647341997596,-135.00
2025-12-24 16:46:57.360541,599631647341997596,-170.00
2025-12-24 16:46:57.360541,599631647341997596,-193.00
2025-12-24 16:46:57.360541,599631647341997596,-210.00
2025-12-24 16:46:57.360541,599631647341997596,-210.00
2025-12-24 16:46:57.360541,599631647341997596,-205.00
2025-12-24 16:46:57.360541,599631647341997596,-205.00
2025-12-24 16:46:57.360541,599631647341997596,-203.00
2025-12-24 16:46:57.360541,599631647341997596,-196.00
2025-12-24 16:46:57.360541,599631647341997596,-186.00
2025-12-24 16:46:57.360541,599631647341997596,-182.00
2025-12-24 16:46:57.360541,599631647341997596,-175.00
2025-12-24 16:46:57.360541,599631647341997596,-161.00
2025-12-24 16:46:57.360541,599631647341997596,-151.00
2025-12-24 16:46:57.360541,599631647341997596,-147.00
2025-12-24 16:46:57.360541,599631647341997596,-130.00
2025-12-24 16:46:57.360541,599631647341997596,-109.00
2025-12-24 16:46:57.360541,599631647341997596,-102.00
2025-12-24 16:46:57.360541,599631647341997596,-100.00
2025-12-24 16:46:57.360541,599631647341997596,-91.00
2025-12-24 16:46:57.360541,599631647341997596,-86.00
2025-12-24 16:46:57.360541,599631647341997596,-88.00
2025-12-24 16:46:57.360541,599631647341997596,-88.00
2025-12-24 16:46:57.360541,599631647341997596,-86.00
2025-12-24 16:46:57.360541,599631647341997596,-88.00
2025-12-24 16:46:57.360541,599631647341997596,-91.00
2025-12-24 16:46:57.360541,599631647341997596,-91.00
2025-12-24 16:46:57.360541,599631647341997596,-88.00
2025-12-24 16:46:57.360541,599631647341997596,-86.00
2025-12-24 16:46:57.360541,599631647341997596,-88.00
2025-12-24 16:46:57.360541,599631647341997596,-91.00
2025-12-24 16:46:57.360541,599631647341997596,-93.00
2025-12-24 16:46:57.360541,599631647341997596,-86.00
2025-12-24 16:46:57.360541,599631647341997596,-84.00
2025-12-24 16:46:57.360541,599631647341997596,-88.00
2025-12-24 16:46:57.360541,599631647341997596,-88.00
2025-12-24 16:46:57.360541,599631647341997596,-84.00
2025-12-24 16:46:57.360541,599631647341997596,-81.00
2025-12-24 16:46:57.360541,599631647341997596,-86.00
2025-12-24 16:46:57.360541,599631647341997596,-88.00
2025-12-24 16:46:57.360541,599631647341997596,-86.00
2025-12-24 16:46:57.360541,599631647341997596,-84.00
2025-12-24 16:46:57.360541,599631647341997596,-81.00
2025-12-24 16:46:57.360541,599631647341997596,-77.00
2025-12-24 16:46:57.360541,599631647341997596,-72.00
2025-12-24 16:46:57.360541,599631647341997596,-70.00
2025-12-24 16:46:57.360541,599631647341997596,-70.00
2025-12-24 16:46:57.974456,599631647902877745,-70.00
2025-12-24 16:46:57.974456,599631647902877745,-72.00
2025-12-24 16:46:57.974456,599631647902877745,-72.00
2025-12-24 16:46:57.974456,599631647902877745,-72.00
2025-12-24 16:46:57.974456,599631647902877745,-74.00
2025-12-24 16:46:57.974456,599631647902877745,-72.00
2025-12-24 16:46:57.974456,599631647902877745,-74.00
2025-12-24 16:46:57.974456,599631647902877745,-72.00
2025-12-24 16:46:57.974456,599631647902877745,-56.00
2025-12-24 16:46:57.974456,599631647902877745,-49.00
2025-12-24 16:46:57.974456,599631647902877745,-53.00
2025-12-24 16:46:57.974456,599631647902877745,-63.00
2025-12-24 16:46:57.974456,599631647902877745,-70.00
2025-12-24 16:46:57.974456,599631647902877745,-67.00
2025-12-24 16:46:57.974456,599631647902877745,-63.00
2025-12-24 16:46:57.974456,599631647902877745,-56.00
2025-12-24 16:46:57.974456,599631647902877745,-44.00
2025-12-24 16:46:57.974456,599631647902877745,-44.00
2025-12-24 16:46:57.974456,599631647902877745,-46.00
2025-12-24 16:46:57.974456,599631647902877745,-11.00
2025-12-24 16:46:57.974456,599631647902877745,140.00
2025-12-24 16:46:57.974456,599631647902877745,476.00
2025-12-24 16:46:57.974456,599631647902877745,791.00
2025-12-24 16:46:57.974456,599631647902877745,579.00
2025-12-24 16:46:57.974456,599631647902877745,-179.00
2025-12-24 16:46:57.974456,599631647902877745,-551.00
2025-12-24 16:46:57.974456,599631647902877745,-214.00
2025-12-24 16:46:57.974456,599631647902877745,-16.00
2025-12-24 16:46:57.974456,599631647902877745,-112.00
2025-12-24 16:46:57.974456,599631647902877745,-74.00
2025-12-24 16:46:57.974456,599631647902877745,-11.00
2025-12-24 16:46:57.974456,599631647902877745,-49.00
2025-12-24 16:46:57.974456,599631647902877745,-56.00
2025-12-24 16:46:57.974456,599631647902877745,-21.00
2025-12-24 16:46:57.974456,599631647902877745,-16.00
2025-12-24 16:46:57.974456,599631647902877745,-14.00
2025-12-24 16:46:57.974456,599631647902877745,-2.00
2025-12-24 16:46:57.974456,599631647902877745,-2.00
2025-12-24 16:46:57.974456,599631647902877745,0.00
2025-12-24 16:46:57.974456,599631647902877745,18.00
2025-12-24 16:46:57.974456,599631647902877745,30.00
2025-12-24 16:46:57.974456,599631647902877745,32.00
2025-12-24 16:46:57.974456,599631647902877745,42.00
2025-12-24 16:46:57.974456,599631647902877745,58.00
2025-12-24 16:46:57.974456,599631647902877745,67.00
2025-12-24 16:46:57.974456,599631647902877745,81.00
2025-12-24 16:46:57.974456,599631647902877745,100.00
2025-12-24 16:46:57.974456,599631647902877745,116.00
2025-12-24 16:46:57.974456,599631647902877745,130.00
2025-12-24 16:46:57.974456,599631647902877745,144.00
2025-12-24 16:46:57.974456,599631647902877745,154.00
2025-12-24 16:46:57.974456,599631647902877745,158.00
2025-12-24 16:46:57.974456,599631647902877745,158.00
2025-12-24 16:46:57.974456,599631647902877745,140.00
2025-12-24 16:46:57.974456,599631647902877745,98.00
2025-12-24 16:46:57.974456,599631647902877745,42.00
2025-12-24 16:46:57.974456,599631647902877745,-28.00
2025-12-24 16:46:57.974456,599631647902877745,-95.00
2025-12-24 16:46:57.974456,599631647902877745,-144.00
2025-12-24 16:46:57.974456,599631647902877745,-179.00
2025-12-24 16:46:57.974456,599631647902877745,-203.00
2025-12-24 16:46:57.974456,599631647902877745,-210.00
2025-12-24 16:46:57.974456,599631647902877745,-205.00
2025-12-24 16:46:57.974456,599631647902877745,-207.00
2025-12-24 16:46:57.974456,599631647902877745,-203.00
2025-12-24 16:46:57.974456,599631647902877745,-191.00
2025-12-24 16:46:57.974456,599631647902877745,-189.00
2025-12-24 16:46:57.974456,599631647902877745,-191.00
2025-12-24 16:46:57.974456,599631647902877745,-184.00
2025-12-24 16:46:57.974456,599631647902877745,-172.00
2025-12-24 16:46:57.974456,599631647902877745,-163.00
2025-12-24 16:46:57.974456,599631647902877745,-156.00
2025-12-24 16:46:57.974456,599631647902877745,-151.00
2025-12-24 16:46:58.503390,599631648463788410,-147.00
2025-12-24 16:46:58.503390,599631648463788410,-137.00
2025-12-24 16:46:58.503390,599631648463788410,-130.00
2025-12-24 16:46:58.503390,599631648463788410,-126.00
2025-12-24 16:46:58.503390,599631648463788410,-123.00
2025-12-24 16:46:58.503390,599631648463788410,-121.00
2025-12-24 16:46:58.503390,599631648463788410,-114.00
2025-12-24 16:46:58.503390,599631648463788410,-107.00
2025-12-24 16:46:58.503390,599631648463788410,-105.00
2025-12-24 16:46:58.503390,599631648463788410,-100.00
2025-12-24 16:46:58.503390,599631648463788410,-93.00
2025-12-24 16:46:58.503390,599631648463788410,-95.00
2025-12-24 16:46:58.503390,599631648463788410,-93.00
2025-12-24 16:46:58.503390,599631648463788410,-79.00
2025-12-24 16:46:58.503390,599631648463788410,-70.00
2025-12-24 16:46:58.503390,599631648463788410,-72.00
2025-12-24 16:46:58.503390,599631648463788410,-74.00
2025-12-24 16:46:58.503390,599631648463788410,-77.00
2025-12-24 16:46:58.503390,599631648463788410,-79.00
2025-12-24 16:46:58.503390,599631648463788410,-79.00
2025-12-24 16:46:58.503390,599631648463788410,-74.00
2025-12-24 16:46:58.503390,599631648463788410,-70.00
