Timestamp,Device Timestamp (ns),ECG Value (uV)
2025-12-25 16:59:55.000870,599620116836288612,-78.00
2025-12-25 16:59:55.000870,599620116836288612,-64.00
2025-12-25 16:59:55.000870,599620116836288612,11.00
2025-12-25 16:59:55.000870,599620116836288612,248.00
2025-12-25 16:59:55.000870,599620116836288612,572.00
2025-12-25 16:59:55.000870,599620116836288612,517.00
2025-12-25 16:59:55.000870,599620116836288612,-289.00
2025-12-25 16:59:55.000870,599620116836288612,-1059.00
2025-12-25 16:59:55.000870,599620116836288612,-809.00
2025-12-25 16:59:55.000870,599620116836288612,-206.00
2025-12-25 16:59:55.000870,599620116836288612,-78.00
2025-12-25 16:59:55.000870,599620116836288612,-80.00
2025-12-25 16:59:55.000870,599620116836288612,11.00
2025-12-25 16:59:55.000870,599620116836288612,18.00
2025-12-25 16:59:55.000870,599620116836288612,-6.00
2025-12-25 16:59:55.000870,599620116836288612,16.00
2025-12-25 16:59:55.000870,599620116836288612,20.00
2025-12-25 16:59:55.000870,599620116836288612,22.00
2025-12-25 16:59:55.000870,599620116836288612,45.00
2025-12-25 16:59:55.000870,599620116836288612,50.00
2025-12-25 16:59:55.000870,599620116836288612,41.00
2025-12-25 16:59:55.000870,599620116836288612,45.00
2025-12-25 16:59:55.000870,599620116836288612,48.00
2025-12-25 16:59:55.000870,599620116836288612,48.00
2025-12-25 16:59:55.000870,599620116836288612,52.00
2025-12-25 16:59:55.000870,599620116836288612,62.00
2025-12-25 16:59:55.000870,599620116836288612,66.00
2025-12-25 16:59:55.000870,599620116836288612,71.00
2025-12-25 16:59:55.000870,599620116836288612,68.00
2025-12-25 16:59:55.000870,599620116836288612,71.00
2025-12-25 16:59:55.000870,599620116836288612,82.00
2025-12-25 16:59:55.000870,599620116836288612,89.00
2025-12-25 16:59:55.000870,599620116836288612,94.00
2025-12-25 16:59:55.000870,599620116836288612,105.00
2025-12-25 16:59:55.000870,599620116836288612,126.00
2025-12-25 16:59:55.000870,599620116836288612,128.00
2025-12-25 16:59:55.000870,599620116836288612,108.00
2025-12-25 16:59:55.000870,599620116836288612,87.00
2025-12-25 16:59:55.000870,599620116836288612,73.00
2025-12-25 16:59:55.000870,599620116836288612,62.00
2025-12-25 16:59:55.000870,599620116836288612,32.00
2025-12-25 16:59:55.000870,599620116836288612,-20.00
2025-12-25 16:59:55.000870,599620116836288612,-59.00
2025-12-25 16:59:55.000870,599620116836288612,-73.00
2025-12-25 16:59:55.000870,599620116836288612,-87.00
2025-12-25 16:59:55.000870,599620116836288612,-108.00
2025-12-25 16:59:55.000870,599620116836288612,-121.00
2025-12-25 16:59:55.000870,599620116836288612,-126.00
2025-12-25 16:59:55.000870,599620116836288612,-133.00
2025-12-25 16:59:55.000870,599620116836288612,-126.00
2025-12-25 16:59:55.000870,599620116836288612,-108.00
2025-12-25 16:59:55.000870,599620116836288612,-105.00
2025-12-25 16:59:55.000870,599620116836288612,-114.00
2025-12-25 16:59:55.000870,599620116836288612,-117.00
2025-12-25 16:59:55.000870,599620116836288612,-114.00
2025-12-25 16:59:55.000870,599620116836288612,-110.00
2025-12-25 16:59:55.000870,599620116836288612,-112.00
2025-12-25 16:59:55.000870,599620116836288612,-117.00
2025-12-25 16:59:55.000870,599620116836288612,-108.00
2025-12-25 16:59:55.000870,599620116836288612,-87.00
2025-12-25 16:59:55.000870,599620116836288612,-87.00
2025-12-25 16:59:55.000870,599620116836288612,-94.00
2025-12-25 16:59:55.000870,599620116836288612,-94.00
2025-12-25 16:59:55.000870,599620116836288612,-96.00
2025-12-25 16:59:55.000870,599620116836288612,-101.00
2025-12-25 16:59:55.000870,599620116836288612,-91.00
2025-12-25 16:59:55.000870,599620116836288612,-91.00
2025-12-25 16:59:55.000870,599620116836288612,-108.00
2025-12-25 16:59:55.000870,599620116836288612,-101.00
2025-12-25 16:59:55.000870,599620116836288612,-89.00
2025-12-25 16:59:55.000870,599620116836288612,-110.00
2025-12-25 16:59:55.000870,599620116836288612,-105.00
2025-12-25 16:59:55.000870,599620116836288612,-82.00
2025-12-25 16:59:55.079192,599620117397168761,-96.00
2025-12-25 16:59:55.079192,599620117397168761,-114.00
2025-12-25 16:59:55.079192,599620117397168761,-101.00
2025-12-25 16:59:55.079192,599620117397168761,-98.00
2025-12-25 16:59:55.079192,599620117397168761,-112.00
2025-12-25 16:59:55.079192,599620117397168761,-101.00
2025-12-25 16:59:55.079192,599620117397168761,-82.00
2025-12-25 16:59:55.079192,599620117397168761,-89.00
2025-12-25 16:59:55.079192,599620117397168761,-87.00
2025-12-25 16:59:55.079192,599620117397168761,-80.00
2025-12-25 16:59:55.079192,599620117397168761,-78.00
2025-12-25 16:59:55.079192,599620117397168761,-78.00
2025-12-25 16:59:55.079192,599620117397168761,-94.00
2025-12-25 16:59:55.079192,599620117397168761,-91.00
2025-12-25 16:59:55.079192,599620117397168761,-57.00
2025-12-25 16:59:55.079192,599620117397168761,-50.00
2025-12-25 16:59:55.079192,599620117397168761,-71.00
2025-12-25 16:59:55.079192,599620117397168761,-68.00
2025-12-25 16:59:55.079192,599620117397168761,-62.00
2025-12-25 16:59:55.079192,599620117397168761,-71.00
2025-12-25 16:59:55.079192,599620117397168761,-62.00
2025-12-25 16:59:55.079192,599620117397168761,-34.00
2025-12-25 16:59:55.079192,599620117397168761,-34.00
2025-12-25 16:59:55.079192,599620117397168761,-59.00
2025-12-25 16:59:55.079192,599620117397168761,-52.00
2025-12-25 16:59:55.079192,599620117397168761,-36.00
2025-12-25 16:59:55.079192,599620117397168761,-32.00
2025-12-25 16:59:55.079192,599620117397168761,-11.00
2025-12-25 16:59:55.079192,599620117397168761,4.00
2025-12-25 16:59:55.079192,599620117397168761,6.00
2025-12-25 16:59:55.079192,599620117397168761,11.00
2025-12-25 16:59:55.079192,599620117397168761,2.00
2025-12-25 16:59:55.079192,599620117397168761,-25.00
2025-12-25 16:59:55.079192,599620117397168761,-39.00
2025-12-25 16:59:55.079192,599620117397168761,-41.00
2025-12-25 16:59:55.079192,599620117397168761,-59.00
2025-12-25 16:59:55.079192,599620117397168761,-68.00
2025-12-25 16:59:55.079192,599620117397168761,-48.00
2025-12-25 16:59:55.079192,599620117397168761,-41.00
2025-12-25 16:59:55.079192,599620117397168761,-73.00
2025-12-25 16:59:55.079192,599620117397168761,-85.00
2025-12-25 16:59:55.079192,599620117397168761,-22.00
2025-12-25 16:59:55.079192,599620117397168761,147.00
2025-12-25 16:59:55.079192,599620117397168761,452.00
2025-12-25 16:59:55.079192,599620117397168761,602.00
2025-12-25 16:59:55.079192,599620117397168761,50.00
2025-12-25 16:59:55.079192,599620117397168761,-852.00
2025-12-25 16:59:55.079192,599620117397168761,-965.00
2025-12-25 16:59:55.079192,599620117397168761,-374.00
2025-12-25 16:59:55.079192,599620117397168761,-64.00
2025-12-25 16:59:55.079192,599620117397168761,-68.00
2025-12-25 16:59:55.079192,599620117397168761,-25.00
2025-12-25 16:59:55.079192,599620117397168761,18.00
2025-12-25 16:59:55.079192,599620117397168761,4.00
2025-12-25 16:59:55.079192,599620117397168761,-6.00
2025-12-25 16:59:55.079192,599620117397168761,0.00
2025-12-25 16:59:55.079192,599620117397168761,13.00
2025-12-25 16:59:55.079192,599620117397168761,20.00
2025-12-25 16:59:55.079192,599620117397168761,13.00
2025-12-25 16:59:55.079192,599620117397168761,13.00
2025-12-25 16:59:55.079192,599620117397168761,25.00
2025-12-25 16:59:55.079192,599620117397168761,20.00
2025-12-25 16:59:55.079192,599620117397168761,16.00
2025-12-25 16:59:55.079192,599620117397168761,22.00
2025-12-25 16:59:55.079192,599620117397168761,27.00
2025-12-25 16:59:55.079192,599620117397168761,36.00
2025-12-25 16:59:55.079192,599620117397168761,45.00
2025-12-25 16:59:55.079192,599620117397168761,45.00
2025-12-25 16:59:55.079192,599620117397168761,43.00
2025-12-25 16:59:55.079192,599620117397168761,45.00
2025-12-25 16:59:55.079192,599620117397168761,62.00
2025-12-25 16:59:55.079192,599620117397168761,71.00
2025-12-25 16:59:55.079192,599620117397168761,66.00
2025-12-25 16:59:55.286154,599620117958048908,78.00
2025-12-25 16:59:55.286154,599620117958048908,96.00
2025-12-25 16:59:55.286154,599620117958048908,91.00
2025-12-25 16:59:55.286154,599620117958048908,71.00
2025-12-25 16:59:55.286154,599620117958048908,66.00
2025-12-25 16:59:55.286154,599620117958048908,55.00
2025-12-25 16:59:55.286154,599620117958048908,20.00
2025-12-25 16:59:55.286154,599620117958048908,0.00
2025-12-25 16:59:55.286154,599620117958048908,-18.00
2025-12-25 16:59:55.286154,599620117958048908,-50.00
2025-12-25 16:59:55.286154,599620117958048908,-68.00
2025-12-25 16:59:55.286154,599620117958048908,-82.00
2025-12-25 16:59:55.286154,599620117958048908,-98.00
2025-12-25 16:59:55.286154,599620117958048908,-91.00
2025-12-25 16:59:55.286154,599620117958048908,-85.00
2025-12-25 16:59:55.286154,599620117958048908,-98.00
2025-12-25 16:59:55.286154,599620117958048908,-105.00
2025-12-25 16:59:55.286154,599620117958048908,-94.00
2025-12-25 16:59:55.286154,599620117958048908,-80.00
2025-12-25 16:59:55.286154,599620117958048908,-78.00
2025-12-25 16:59:55.286154,599620117958048908,-82.00
2025-12-25 16:59:55.286154,599620117958048908,-80.00
2025-12-25 16:59:55.286154,599620117958048908,-78.00
2025-12-25 16:59:55.286154,599620117958048908,-80.00
2025-12-25 16:59:55.286154,599620117958048908,-75.00
2025-12-25 16:59:55.286154,599620117958048908,-64.00
2025-12-25 16:59:55.286154,599620117958048908,-68.00
2025-12-25 16:59:55.286154,599620117958048908,-73.00
2025-12-25 16:59:55.286154,599620117958048908,-66.00
2025-12-25 16:59:55.286154,599620117958048908,-62.00
2025-12-25 16:59:55.286154,599620117958048908,-66.00
2025-12-25 16:59:55.286154,599620117958048908,-71.00
2025-12-25 16:59:55.286154,599620117958048908,-80.00
2025-12-25 16:59:55.286154,599620117958048908,-82.00
2025-12-25 16:59:55.286154,599620117958048908,-71.00
2025-12-25 16:59:55.286154,599620117958048908,-71.00
2025-12-25 16:59:55.286154,599620117958048908,-87.00
2025-12-25 16:59:55.286154,599620117958048908,-73.00
2025-12-25 16:59:55.286154,599620117958048908,-57.00
2025-12-25 16:59:55.286154,599620117958048908,-82.00
2025-12-25 16:59:55.286154,599620117958048908,-101.00
2025-12-25 16:59:55.286154,599620117958048908,-89.00
2025-12-25 16:59:55.286154,599620117958048908,-85.00
2025-12-25 16:59:55.286154,599620117958048908,-73.00
2025-12-25 16:59:55.286154,599620117958048908,-59.00
2025-12-25 16:59:55.286154,599620117958048908,-73.00
2025-12-25 16:59:55.286154,599620117958048908,-87.00
2025-12-25 16:59:55.286154,599620117958048908,-82.00
2025-12-25 16:59:55.286154,599620117958048908,-87.00
2025-12-25 16:59:55.286154,599620117958048908,-94.00
2025-12-25 16:59:55.286154,599620117958048908,-87.00
2025-12-25 16:59:55.286154,599620117958048908,-78.00
2025-12-25 16:59:55.286154,599620117958048908,-91.00
2025-12-25 16:59:55.286154,599620117958048908,-105.00
2025-12-25 16:59:55.286154,599620117958048908,-94.00
2025-12-25 16:59:55.286154,599620117958048908,-75.00
2025-12-25 16:59:55.286154,599620117958048908,-89.00
2025-12-25 16:59:55.286154,599620117958048908,-105.00
2025-12-25 16:59:55.286154,599620117958048908,-91.00
2025-12-25 16:59:55.286154,599620117958048908,-80.00
2025-12-25 16:59:55.286154,599620117958048908,-98.00
2025-12-25 16:59:55.286154,599620117958048908,-101.00
2025-12-25 16:59:55.286154,599620117958048908,-75.00
2025-12-25 16:59:55.286154,599620117958048908,-75.00
2025-12-25 16:59:55.286154,599620117958048908,-85.00
2025-12-25 16:59:55.286154,599620117958048908,-62.00
2025-12-25 16:59:55.286154,599620117958048908,-39.00
2025-12-25 16:59:55.286154,599620117958048908,-66.00
2025-12-25 16:59:55.286154,599620117958048908,-96.00
2025-12-25 16:59:55.286154,599620117958048908,-89.00
2025-12-25 16:59:55.286154,599620117958048908,-89.00
2025-12-25 16:59:55.286154,599620117958048908,-101.00
2025-12-25 16:59:55.286154,599620117958048908,-98.00
2025-12-25 16:59:55.921250,599620118518929061,-98.00
2025-12-25 16:59:55.921250,599620118518929061,-98.00
2025-12-25 16:59:55.921250,599620118518929061,-94.00
2025-12-25 16:59:55.921250,599620118518929061,-94.00
2025-12-25 16:59:55.921250,599620118518929061,-59.00
2025-12-25 16:59:55.921250,599620118518929061,71.00
2025-12-25 16:59:55.921250,599620118518929061,337.00
2025-12-25 16:59:55.921250,599620118518929061,570.00
2025-12-25 16:59:55.921250,599620118518929061,264.00
2025-12-25 16:59:55.921250,599620118518929061,-623.00
2025-12-25 16:59:55.921250,599620118518929061,-1039.00
2025-12-25 16:59:55.921250,599620118518929061,-542.00
2025-12-25 16:59:55.921250,599620118518929061,-85.00
2025-12-25 16:59:55.921250,599620118518929061,-55.00
2025-12-25 16:59:55.921250,599620118518929061,-32.00
2025-12-25 16:59:55.921250,599620118518929061,18.00
2025-12-25 16:59:55.921250,599620118518929061,2.00
2025-12-25 16:59:55.921250,599620118518929061,9.00
2025-12-25 16:59:55.921250,599620118518929061,43.00
2025-12-25 16:59:55.921250,599620118518929061,41.00
2025-12-25 16:59:55.921250,599620118518929061,20.00
2025-12-25 16:59:55.921250,599620118518929061,27.00
2025-12-25 16:59:55.921250,599620118518929061,57.00
2025-12-25 16:59:55.921250,599620118518929061,55.00
2025-12-25 16:59:55.921250,599620118518929061,39.00
2025-12-25 16:59:55.921250,599620118518929061,48.00
2025-12-25 16:59:55.921250,599620118518929061,59.00
2025-12-25 16:59:55.921250,599620118518929061,52.00
2025-12-25 16:59:55.921250,599620118518929061,55.00
2025-12-25 16:59:55.921250,599620118518929061,66.00
2025-12-25 16:59:55.921250,599620118518929061,66.00
2025-12-25 16:59:55.921250,599620118518929061,59.00
2025-12-25 16:59:55.921250,599620118518929061,80.00
2025-12-25 16:59:55.921250,599620118518929061,105.00
2025-12-25 16:59:55.921250,599620118518929061,101.00
2025-12-25 16:59:55.921250,599620118518929061,94.00
2025-12-25 16:59:55.921250,599620118518929061,105.00
2025-12-25 16:59:55.921250,599620118518929061,117.00
2025-12-25 16:59:55.921250,599620118518929061,108.00
2025-12-25 16:59:55.921250,599620118518929061,101.00
2025-12-25 16:59:55.921250,599620118518929061,98.00
2025-12-25 16:59:55.921250,599620118518929061,87.00
2025-12-25 16:59:55.921250,599620118518929061,57.00
2025-12-25 16:59:55.921250,599620118518929061,13.00
2025-12-25 16:59:55.921250,599620118518929061,-22.00
2025-12-25 16:59:55.921250,599620118518929061,-55.00
2025-12-25 16:59:55.921250,599620118518929061,-91.00
2025-12-25 16:59:55.921250,599620118518929061,-108.00
2025-12-25 16:59:55.921250,599620118518929061,-105.00
2025-12-25 16:59:55.921250,599620118518929061,-119.00
2025-12-25 16:59:55.921250,599620118518929061,-126.00
2025-12-25 16:59:55.921250,599620118518929061,-114.00
2025-12-25 16:59:55.921250,599620118518929061,-117.00
2025-12-25 16:59:55.921250,599620118518929061,-124.00
2025-12-25 16:59:55.921250,599620118518929061,-117.00
2025-12-25 16:59:55.921250,599620118518929061,-105.00
2025-12-25 16:59:55.921250,599620118518929061,-105.00
2025-12-25 16:59:55.921250,599620118518929061,-117.00
2025-12-25 16:59:55.921250,599620118518929061,-110.00
2025-12-25 16:59:55.921250,599620118518929061,-96.00
2025-12-25 16:59:55.921250,599620118518929061,-105.00
2025-12-25 16:59:55.921250,599620118518929061,-114.00
2025-12-25 16:59:55.921250,599620118518929061,-103.00
2025-12-25 16:59:55.921250,599620118518929061,-80.00
2025-12-25 16:59:55.921250,599620118518929061,-73.00
2025-12-25 16:59:55.921250,599620118518929061,-91.00
2025-12-25 16:59:55.921250,599620118518929061,-96.00
2025-12-25 16:59:55.921250,599620118518929061,-89.00
2025-12-25 16:59:55.921250,599620118518929061,-91.00
2025-12-25 16:59:55.921250,599620118518929061,-91.00
2025-12-25 16:59:55.921250,599620118518929061,-80.00
2025-12-25 16:59:55.921250,599620118518929061,-78.00
2025-12-25 16:59:55.921250,599620118518929061,-94.00
2025-12-25 16:59:56.491858,599620119079809210,-108.00
2025-12-25 16:59:56.491858,599620119079809210,-96.00
2025-12-25 16:59:56.491858,599620119079809210,-87.00
2025-12-25 16:59:56.491858,599620119079809210,-89.00
2025-12-25 16:59:56.491858,599620119079809210,-85.00
2025-12-25 16:59:56.491858,599620119079809210,-78.00
2025-12-25 16:59:56.491858,599620119079809210,-87.00
2025-12-25 16:59:56.491858,599620119079809210,-89.00
2025-12-25 16:59:56.491858,599620119079809210,-78.00
2025-12-25 16:59:56.491858,599620119079809210,-73.00
2025-12-25 16:59:56.491858,599620119079809210,-78.00
2025-12-25 16:59:56.491858,599620119079809210,-85.00
2025-12-25 16:59:56.491858,599620119079809210,-85.00
2025-12-25 16:59:56.491858,599620119079809210,-73.00
2025-12-25 16:59:56.491858,599620119079809210,-66.00
2025-12-25 16:59:56.491858,599620119079809210,-68.00
2025-12-25 16:59:56.491858,599620119079809210,-78.00
2025-12-25 16:59:56.491858,599620119079809210,-80.00
2025-12-25 16:59:56.491858,599620119079809210,-73.00
2025-12-25 16:59:56.491858,599620119079809210,-68.00
2025-12-25 16:59:56.491858,599620119079809210,-66.00
2025-12-25 16:59:56.491858,599620119079809210,-52.00
2025-12-25 16:59:56.491858,599620119079809210,-50.00
2025-12-25 16:59:56.491858,599620119079809210,-62.00
2025-12-25 16:59:56.491858,599620119079809210,-68.00
2025-12-25 16:59:56.491858,599620119079809210,-68.00
2025-12-25 16:59:56.491858,599620119079809210,-66.00
2025-12-25 16:59:56.491858,599620119079809210,-66.00
2025-12-25 16:59:56.491858,599620119079809210,-71.00
2025-12-25 16:59:56.491858,599620119079809210,-75.00
2025-12-25 16:59:56.491858,599620119079809210,-66.00
2025-12-25 16:59:56.491858,599620119079809210,-50.00
2025-12-25 16:59:56.491858,599620119079809210,-45.00
2025-12-25 16:59:56.491858,599620119079809210,-41.00
2025-12-25 16:59:56.491858,599620119079809210,-32.00
2025-12-25 16:59:56.491858,599620119079809210,-43.00
2025-12-25 16:59:56.491858,599620119079809210,-71.00
2025-12-25 16:59:56.491858,599620119079809210,-75.00
2025-12-25 16:59:56.491858,599620119079809210,-66.00
2025-12-25 16:59:56.491858,599620119079809210,-78.00
2025-12-25 16:59:56.491858,599620119079809210,-89.00
2025-12-25 16:59:56.491858,599620119079809210,-85.00
2025-12-25 16:59:56.491858,599620119079809210,-80.00
2025-12-25 16:59:56.491858,599620119079809210,-87.00
2025-12-25 16:59:56.491858,599620119079809210,-82.00
2025-12-25 16:59:56.491858,599620119079809210,-68.00
2025-12-25 16:59:56.491858,599620119079809210,4.00
2025-12-25 16:59:56.491858,599620119079809210,241.00
2025-12-25 16:59:56.491858,599620119079809210,537.00
2025-12-25 16:59:56.491858,599620119079809210,418.00
2025-12-25 16:59:56.491858,599620119079809210,-390.00
2025-12-25 16:59:56.491858,599620119079809210,-1057.00
2025-12-25 16:59:56.491858,599620119079809210,-756.00
2025-12-25 16:59:56.491858,599620119079809210,-204.00
2025-12-25 16:59:56.491858,599620119079809210,-89.00
2025-12-25 16:59:56.491858,599620119079809210,-71.00
2025-12-25 16:59:56.491858,599620119079809210,-4.00
2025-12-25 16:59:56.491858,599620119079809210,-16.00
2025-12-25 16:59:56.491858,599620119079809210,-34.00
2025-12-25 16:59:56.491858,599620119079809210,-4.00
2025-12-25 16:59:56.491858,599620119079809210,13.00
2025-12-25 16:59:56.491858,599620119079809210,6.00
2025-12-25 16:59:56.491858,599620119079809210,4.00
2025-12-25 16:59:56.491858,599620119079809210,13.00
2025-12-25 16:59:56.491858,599620119079809210,22.00
2025-12-25 16:59:56.491858,599620119079809210,20.00
2025-12-25 16:59:56.491858,599620119079809210,22.00
2025-12-25 16:59:56.491858,599620119079809210,32.00
2025-12-25 16:59:56.491858,599620119079809210,32.00
2025-12-25 16:59:56.491858,599620119079809210,34.00
2025-12-25 16:59:56.491858,599620119079809210,50.00
2025-12-25 16:59:56.491858,599620119079809210,62.00
2025-12-25 16:59:56.491858,599620119079809210,59.00
2025-12-25 16:59:57.003247,599620119640689359,62.00
2025-12-25 16:59:57.003247,599620119640689359,71.00
2025-12-25 16:59:57.003247,599620119640689359,80.00
2025-12-25 16:59:57.003247,599620119640689359,85.00
2025-12-25 16:59:57.003247,599620119640689359,101.00
2025-12-25 16:59:57.003247,599620119640689359,110.00
2025-12-25 16:59:57.003247,599620119640689359,98.00
2025-12-25 16:59:57.003247,599620119640689359,94.00
2025-12-25 16:59:57.003247,599620119640689359,98.00
2025-12-25 16:59:57.003247,599620119640689359,85.00
2025-12-25 16:59:57.003247,599620119640689359,64.00
2025-12-25 16:59:57.003247,599620119640689359,39.00
2025-12-25 16:59:57.003247,599620119640689359,0.00
2025-12-25 16:59:57.003247,599620119640689359,-25.00
2025-12-25 16:59:57.003247,599620119640689359,-43.00
2025-12-25 16:59:57.003247,599620119640689359,-71.00
2025-12-25 16:59:57.003247,599620119640689359,-87.00
2025-12-25 16:59:57.003247,599620119640689359,-91.00
2025-12-25 16:59:57.003247,599620119640689359,-101.00
2025-12-25 16:59:57.003247,599620119640689359,-98.00
2025-12-25 16:59:57.003247,599620119640689359,-91.00
2025-12-25 16:59:57.003247,599620119640689359,-101.00
2025-12-25 16:59:57.003247,599620119640689359,-96.00
2025-12-25 16:59:57.003247,599620119640689359,-87.00
2025-12-25 16:59:57.003247,599620119640689359,-94.00
2025-12-25 16:59:57.003247,599620119640689359,-94.00
2025-12-25 16:59:57.003247,599620119640689359,-94.00
2025-12-25 16:59:57.003247,599620119640689359,-96.00
2025-12-25 16:59:57.003247,599620119640689359,-89.00
2025-12-25 16:59:57.003247,599620119640689359,-85.00
2025-12-25 16:59:57.003247,599620119640689359,-89.00
2025-12-25 16:59:57.003247,599620119640689359,-80.00
2025-12-25 16:59:57.003247,599620119640689359,-75.00
2025-12-25 16:59:57.003247,599620119640689359,-82.00
2025-12-25 16:59:57.003247,599620119640689359,-85.00
2025-12-25 16:59:57.003247,599620119640689359,-87.00
2025-12-25 16:59:57.003247,599620119640689359,-94.00
2025-12-25 16:59:57.003247,599620119640689359,-87.00
2025-12-25 16:59:57.003247,599620119640689359,-71.00
2025-12-25 16:59:57.003247,599620119640689359,-78.00
2025-12-25 16:59:57.003247,599620119640689359,-91.00
2025-12-25 16:59:57.003247,599620119640689359,-87.00
2025-12-25 16:59:57.003247,599620119640689359,-82.00
2025-12-25 16:59:57.003247,599620119640689359,-91.00
2025-12-25 16:59:57.003247,599620119640689359,-98.00
2025-12-25 16:59:57.003247,599620119640689359,-94.00
2025-12-25 16:59:57.003247,599620119640689359,-89.00
2025-12-25 16:59:57.003247,599620119640689359,-94.00
2025-12-25 16:59:57.003247,599620119640689359,-96.00
2025-12-25 16:59:57.003247,599620119640689359,-94.00
2025-12-25 16:59:57.003247,599620119640689359,-89.00
2025-12-25 16:59:57.003247,599620119640689359,-89.00
2025-12-25 16:59:57.003247,599620119640689359,-91.00
2025-12-25 16:59:57.003247,599620119640689359,-96.00
2025-12-25 16:59:57.003247,599620119640689359,-101.00
2025-12-25 16:59:57.003247,599620119640689359,-98.00
2025-12-25 16:59:57.003247,599620119640689359,-87.00
2025-12-25 16:59:57.003247,599620119640689359,-87.00
2025-12-25 16:59:57.003247,599620119640689359,-98.00
2025-12-25 16:59:57.003247,599620119640689359,-101.00
2025-12-25 16:59:57.003247,599620119640689359,-82.00
2025-12-25 16:59:57.003247,599620119640689359,-73.00
2025-12-25 16:59:57.003247,599620119640689359,-78.00
2025-12-25 16:59:57.003247,599620119640689359,-78.00
2025-12-25 16:59:57.003247,599620119640689359,-75.00
2025-12-25 16:59:57.003247,599620119640689359,-80.00
2025-12-25 16:59:57.003247,599620119640689359,-78.00
2025-12-25 16:59:57.003247,599620119640689359,-80.00
2025-12-25 16:59:57.003247,599620119640689359,-94.00
2025-12-25 16:59:57.003247,599620119640689359,-89.00
2025-12-25 16:59:57.003247,599620119640689359,-66.00
2025-12-25 16:59:57.003247,599620119640689359,-55.00
2025-12-25 16:59:57.003247,599620119640689359,-43.00
2025-12-25 16:59:57.595229,599620120201600026,-22.00
2025-12-25 16:59:57.595229,599620120201600026,-32.00
2025-12-25 16:59:57.595229,599620120201600026,-68.00
2025-12-25 16:59:57.595229,599620120201600026,-85.00
2025-12-25 16:59:57.595229,599620120201600026,-78.00
2025-12-25 16:59:57.595229,599620120201600026,-73.00
2025-12-25 16:59:57.595229,599620120201600026,-71.00
2025-12-25 16:59:57.595229,599620120201600026,-66.00
2025-12-25 16:59:57.595229,599620120201600026,-64.00
2025-12-25 16:59:57.595229,599620120201600026,-64.00
2025-12-25 16:59:57.595229,599620120201600026,-64.00
2025-12-25 16:59:57.595229,599620120201600026,-55.00
2025-12-25 16:59:57.595229,599620120201600026,16.00
2025-12-25 16:59:57.595229,599620120201600026,234.00
2025-12-25 16:59:57.595229,599620120201600026,540.00
2025-12-25 16:59:57.595229,599620120201600026,526.00
2025-12-25 16:59:57.595229,599620120201600026,-195.00
2025-12-25 16:59:57.595229,599620120201600026,-974.00
2025-12-25 16:59:57.595229,599620120201600026,-818.00
2025-12-25 16:59:57.595229,599620120201600026,-227.00
2025-12-25 16:59:57.595229,599620120201600026,-55.00
2025-12-25 16:59:57.595229,599620120201600026,-64.00
2025-12-25 16:59:57.595229,599620120201600026,4.00
2025-12-25 16:59:57.595229,599620120201600026,13.00
2025-12-25 16:59:57.595229,599620120201600026,-4.00
2025-12-25 16:59:57.595229,599620120201600026,13.00
2025-12-25 16:59:57.595229,599620120201600026,25.00
2025-12-25 16:59:57.595229,599620120201600026,25.00
2025-12-25 16:59:57.595229,599620120201600026,32.00
2025-12-25 16:59:57.595229,599620120201600026,32.00
2025-12-25 16:59:57.595229,599620120201600026,29.00
2025-12-25 16:59:57.595229,599620120201600026,36.00
2025-12-25 16:59:57.595229,599620120201600026,41.00
2025-12-25 16:59:57.595229,599620120201600026,36.00
2025-12-25 16:59:57.595229,599620120201600026,34.00
2025-12-25 16:59:57.595229,599620120201600026,39.00
2025-12-25 16:59:57.595229,599620120201600026,52.00
2025-12-25 16:59:57.595229,599620120201600026,66.00
2025-12-25 16:59:57.595229,599620120201600026,62.00
2025-12-25 16:59:57.595229,599620120201600026,59.00
2025-12-25 16:59:57.595229,599620120201600026,73.00
2025-12-25 16:59:57.595229,599620120201600026,80.00
2025-12-25 16:59:57.595229,599620120201600026,85.00
2025-12-25 16:59:57.595229,599620120201600026,94.00
2025-12-25 16:59:57.595229,599620120201600026,101.00
2025-12-25 16:59:57.595229,599620120201600026,98.00
2025-12-25 16:59:57.595229,599620120201600026,101.00
2025-12-25 16:59:57.595229,599620120201600026,98.00
2025-12-25 16:59:57.595229,599620120201600026,87.00
2025-12-25 16:59:57.595229,599620120201600026,66.00
2025-12-25 16:59:57.595229,599620120201600026,29.00
2025-12-25 16:59:57.595229,599620120201600026,-13.00
2025-12-25 16:59:57.595229,599620120201600026,-48.00
2025-12-25 16:59:57.595229,599620120201600026,-78.00
2025-12-25 16:59:57.595229,599620120201600026,-96.00
2025-12-25 16:59:57.595229,599620120201600026,-98.00
2025-12-25 16:59:57.595229,599620120201600026,-110.00
2025-12-25 16:59:57.595229,599620120201600026,-126.00
2025-12-25 16:59:57.595229,599620120201600026,-124.00
2025-12-25 16:59:57.595229,599620120201600026,-119.00
2025-12-25 16:59:57.595229,599620120201600026,-119.00
2025-12-25 16:59:57.595229,599620120201600026,-112.00
2025-12-25 16:59:57.595229,599620120201600026,-110.00
2025-12-25 16:59:57.595229,599620120201600026,-117.00
2025-12-25 16:59:57.595229,599620120201600026,-110.00
2025-12-25 16:59:57.595229,599620120201600026,-103.00
2025-12-25 16:59:57.595229,599620120201600026,-108.00
2025-12-25 16:59:57.595229,599620120201600026,-105.00
2025-12-25 16:59:57.595229,599620120201600026,-94.00
2025-12-25 16:59:57.595229,599620120201600026,-89.00
2025-12-25 16:59:57.595229,599620120201600026,-94.00
2025-12-25 16:59:57.595229,599620120201600026,-87.00
2025-12-25 16:59:57.595229,599620120201600026,-82.00
2025-12-25 16:59:58.113849,599620120762449657,-89.00
2025-12-25 16:59:58.113849,599620120762449657,-91.00
2025-12-25 16:59:58.113849,599620120762449657,-89.00
2025-12-25 16:59:58.113849,599620120762449657,-91.00
2025-12-25 16:59:58.113849,599620120762449657,-91.00
2025-12-25 16:59:58.113849,599620120762449657,-82.00
2025-12-25 16:59:58.113849,599620120762449657,-78.00
2025-12-25 16:59:58.113849,599620120762449657,-87.00
2025-12-25 16:59:58.113849,599620120762449657,-96.00
2025-12-25 16:59:58.113849,599620120762449657,-96.00
2025-12-25 16:59:58.113849,599620120762449657,-80.00
2025-12-25 16:59:58.113849,599620120762449657,-66.00
2025-12-25 16:59:58.113849,599620120762449657,-73.00
2025-12-25 16:59:58.113849,599620120762449657,-82.00
2025-12-25 16:59:58.113849,599620120762449657,-82.00
2025-12-25 16:59:58.113849,599620120762449657,-89.00
2025-12-25 16:59:58.113849,599620120762449657,-89.00
2025-12-25 16:59:58.113849,599620120762449657,-75.00
2025-12-25 16:59:58.113849,599620120762449657,-75.00
2025-12-25 16:59:58.113849,599620120762449657,-89.00
2025-12-25 16:59:58.113849,599620120762449657,-89.00
2025-12-25 16:59:58.113849,599620120762449657,-82.00
2025-12-25 16:59:58.113849,599620120762449657,-85.00
2025-12-25 16:59:58.113849,599620120762449657,-89.00
2025-12-25 16:59:58.113849,599620120762449657,-85.00
2025-12-25 16:59:58.113849,599620120762449657,-82.00
2025-12-25 16:59:58.113849,599620120762449657,-96.00
2025-12-25 16:59:58.113849,599620120762449657,-105.00
2025-12-25 16:59:58.113849,599620120762449657,-89.00
2025-12-25 16:59:58.113849,599620120762449657,-71.00
2025-12-25 16:59:58.113849,599620120762449657,-78.00
2025-12-25 16:59:58.113849,599620120762449657,-91.00
2025-12-25 16:59:58.113849,599620120762449657,-82.00
2025-12-25 16:59:58.113849,599620120762449657,-80.00
2025-12-25 16:59:58.113849,599620120762449657,-89.00
2025-12-25 16:59:58.113849,599620120762449657,-89.00
2025-12-25 16:59:58.113849,599620120762449657,-89.00
2025-12-25 16:59:58.113849,599620120762449657,-96.00
2025-12-25 16:59:58.113849,599620120762449657,-89.00
2025-12-25 16:59:58.113849,599620120762449657,-78.00
2025-12-25 16:59:58.113849,599620120762449657,-80.00
2025-12-25 16:59:58.113849,599620120762449657,-85.00
2025-12-25 16:59:58.113849,599620120762449657,-73.00
2025-12-25 16:59:58.113849,599620120762449657,-68.00
2025-12-25 16:59:58.113849,599620120762449657,-80.00
2025-12-25 16:59:58.113849,599620120762449657,-87.00
2025-12-25 16:59:58.113849,599620120762449657,-80.00
2025-12-25 16:59:58.113849,599620120762449657,-68.00
2025-12-25 16:59:58.113849,599620120762449657,-62.00
2025-12-25 16:59:58.113849,599620120762449657,-59.00
2025-12-25 16:59:58.113849,599620120762449657,-57.00
2025-12-25 16:59:58.113849,599620120762449657,-50.00
2025-12-25 16:59:58.113849,599620120762449657,-32.00
2025-12-25 16:59:58.113849,599620120762449657,-18.00
2025-12-25 16:59:58.113849,599620120762449657,-32.00
2025-12-25 16:59:58.113849,599620120762449657,-71.00
2025-12-25 16:59:58.113849,599620120762449657,-80.00
2025-12-25 16:59:58.113849,599620120762449657,-55.00
2025-12-25 16:59:58.113849,599620120762449657,-48.00
2025-12-25 16:59:58.113849,599620120762449657,-62.00
2025-12-25 16:59:58.113849,599620120762449657,-62.00
2025-12-25 16:59:58.113849,599620120762449657,-57.00
2025-12-25 16:59:58.113849,599620120762449657,-62.00
2025-12-25 16:59:58.113849,599620120762449657,-64.00
2025-12-25 16:59:58.113849,599620120762449657,-41.00
2025-12-25 16:59:58.113849,599620120762449657,73.00
2025-12-25 16:59:58.113849,599620120762449657,337.00
2025-12-25 16:59:58.113849,599620120762449657,579.00
2025-12-25 16:59:58.113849,599620120762449657,305.00
2025-12-25 16:59:58.113849,599620120762449657,-551.00
2025-12-25 16:59:58.113849,599620120762449657,-1009.00
2025-12-25 16:59:58.113849,599620120762449657,-565.00
2025-12-25 16:59:58.113849,599620120762449657,-119.00
2025-12-25 16:59:58.623810,599620121323329806,-80.00
2025-12-25 16:59:58.623810,599620121323329806,-52.00
2025-12-25 16:59:58.623810,599620121323329806,-2.00
2025-12-25 16:59:58.623810,599620121323329806,-20.00
2025-12-25 16:59:58.623810,599620121323329806,-25.00
2025-12-25 16:59:58.623810,599620121323329806,-16.00
2025-12-25 16:59:58.623810,599620121323329806,-9.00
2025-12-25 16:59:58.623810,599620121323329806,11.00
2025-12-25 16:59:58.623810,599620121323329806,36.00
2025-12-25 16:59:58.623810,599620121323329806,50.00
2025-12-25 16:59:58.623810,599620121323329806,32.00
2025-12-25 16:59:58.623810,599620121323329806,18.00
2025-12-25 16:59:58.623810,599620121323329806,20.00
2025-12-25 16:59:58.623810,599620121323329806,18.00
2025-12-25 16:59:58.623810,599620121323329806,16.00
2025-12-25 16:59:58.623810,599620121323329806,22.00
2025-12-25 16:59:58.623810,599620121323329806,36.00
2025-12-25 16:59:58.623810,599620121323329806,55.00
2025-12-25 16:59:58.623810,599620121323329806,62.00
2025-12-25 16:59:58.623810,599620121323329806,64.00
2025-12-25 16:59:58.623810,599620121323329806,73.00
2025-12-25 16:59:58.623810,599620121323329806,80.00
2025-12-25 16:59:58.623810,599620121323329806,87.00
2025-12-25 16:59:58.623810,599620121323329806,98.00
2025-12-25 16:59:58.623810,599620121323329806,98.00
2025-12-25 16:59:58.623810,599620121323329806,91.00
2025-12-25 16:59:58.623810,599620121323329806,89.00
2025-12-25 16:59:58.623810,599620121323329806,94.00
2025-12-25 16:59:58.623810,599620121323329806,80.00
2025-12-25 16:59:58.623810,599620121323329806,43.00
2025-12-25 16:59:58.623810,599620121323329806,6.00
2025-12-25 16:59:58.623810,599620121323329806,-16.00
2025-12-25 16:59:58.623810,599620121323329806,-36.00
2025-12-25 16:59:58.623810,599620121323329806,-71.00
2025-12-25 16:59:58.623810,599620121323329806,-94.00
2025-12-25 16:59:58.623810,599620121323329806,-108.00
2025-12-25 16:59:58.623810,599620121323329806,-117.00
2025-12-25 16:59:58.623810,599620121323329806,-117.00
2025-12-25 16:59:58.623810,599620121323329806,-117.00
2025-12-25 16:59:58.623810,599620121323329806,-112.00
2025-12-25 16:59:58.623810,599620121323329806,-94.00
2025-12-25 16:59:58.623810,599620121323329806,-87.00
2025-12-25 16:59:58.623810,599620121323329806,-96.00
2025-12-25 16:59:58.623810,599620121323329806,-89.00
2025-12-25 16:59:58.623810,599620121323329806,-89.00
2025-12-25 16:59:58.623810,599620121323329806,-96.00
2025-12-25 16:59:58.623810,599620121323329806,-87.00
2025-12-25 16:59:58.623810,599620121323329806,-78.00
2025-12-25 16:59:58.623810,599620121323329806,-78.00
2025-12-25 16:59:58.623810,599620121323329806,-71.00
2025-12-25 16:59:58.623810,599620121323329806,-68.00
2025-12-25 16:59:58.623810,599620121323329806,-80.00
2025-12-25 16:59:58.623810,599620121323329806,-75.00
2025-12-25 16:59:58.623810,599620121323329806,-62.00
2025-12-25 16:59:58.623810,599620121323329806,-64.00
2025-12-25 16:59:58.623810,599620121323329806,-75.00
2025-12-25 16:59:58.623810,599620121323329806,-78.00
2025-12-25 16:59:58.623810,599620121323329806,-66.00
2025-12-25 16:59:58.623810,599620121323329806,-64.00
2025-12-25 16:59:58.623810,599620121323329806,-68.00
2025-12-25 16:59:58.623810,599620121323329806,-71.00
2025-12-25 16:59:58.623810,599620121323329806,-71.00
2025-12-25 16:59:58.623810,599620121323329806,-75.00
2025-12-25 16:59:58.623810,599620121323329806,-80.00
2025-12-25 16:59:58.623810,599620121323329806,-75.00
2025-12-25 16:59:58.623810,599620121323329806,-71.00
2025-12-25 16:59:58.623810,599620121323329806,-80.00
2025-12-25 16:59:58.623810,599620121323329806,-85.00
2025-12-25 16:59:58.623810,599620121323329806,-78.00
2025-12-25 16:59:58.623810,599620121323329806,-78.00
2025-12-25 16:59:58.623810,599620121323329806,-82.00
2025-12-25 16:59:58.623810,599620121323329806,-87.00
2025-12-25 16:59:58.623810,599620121323329806,-89.00
2025-12-25 16:59:59.273535,599620121884215043,-82.00
2025-12-25 16:59:59.273535,599620121884215043,-73.00
2025-12-25 16:59:59.273535,599620121884215043,-75.00
2025-12-25 16:59:59.273535,599620121884215043,-82.00
2025-12-25 16:59:59.273535,599620121884215043,-68.00
2025-12-25 16:59:59.273535,599620121884215043,-48.00
2025-12-25 16:59:59.273535,599620121884215043,-50.00
2025-12-25 16:59:59.273535,599620121884215043,-64.00
2025-12-25 16:59:59.273535,599620121884215043,-66.00
2025-12-25 16:59:59.273535,599620121884215043,-66.00
2025-12-25 16:59:59.273535,599620121884215043,-64.00
2025-12-25 16:59:59.273535,599620121884215043,-50.00
2025-12-25 16:59:59.273535,599620121884215043,-50.00
2025-12-25 16:59:59.273535,599620121884215043,-59.00
2025-12-25 16:59:59.273535,599620121884215043,-52.00
2025-12-25 16:59:59.273535,599620121884215043,-48.00
2025-12-25 16:59:59.273535,599620121884215043,-59.00
2025-12-25 16:59:59.273535,599620121884215043,-64.00
2025-12-25 16:59:59.273535,599620121884215043,-57.00
2025-12-25 16:59:59.273535,599620121884215043,-62.00
2025-12-25 16:59:59.273535,599620121884215043,-66.00
2025-12-25 16:59:59.273535,599620121884215043,-55.00
2025-12-25 16:59:59.273535,599620121884215043,-48.00
2025-12-25 16:59:59.273535,599620121884215043,-52.00
2025-12-25 16:59:59.273535,599620121884215043,-52.00
2025-12-25 16:59:59.273535,599620121884215043,-52.00
2025-12-25 16:59:59.273535,599620121884215043,-52.00
2025-12-25 16:59:59.273535,599620121884215043,-52.00
2025-12-25 16:59:59.273535,599620121884215043,-52.00
2025-12-25 16:59:59.273535,599620121884215043,-55.00
2025-12-25 16:59:59.273535,599620121884215043,-59.00
2025-12-25 16:59:59.273535,599620121884215043,-52.00
2025-12-25 16:59:59.273535,599620121884215043,-41.00
2025-12-25 16:59:59.273535,599620121884215043,-36.00
2025-12-25 16:59:59.273535,599620121884215043,-39.00
2025-12-25 16:59:59.273535,599620121884215043,-36.00
2025-12-25 16:59:59.273535,599620121884215043,-41.00
2025-12-25 16:59:59.273535,599620121884215043,-50.00
2025-12-25 16:59:59.273535,599620121884215043,-59.00
2025-12-25 16:59:59.273535,599620121884215043,-57.00
2025-12-25 16:59:59.273535,599620121884215043,-50.00
2025-12-25 16:59:59.273535,599620121884215043,-48.00
2025-12-25 16:59:59.273535,599620121884215043,-45.00
2025-12-25 16:59:59.273535,599620121884215043,-36.00
2025-12-25 16:59:59.273535,599620121884215043,-27.00
2025-12-25 16:59:59.273535,599620121884215043,-13.00
2025-12-25 16:59:59.273535,599620121884215043,-4.00
2025-12-25 16:59:59.273535,599620121884215043,-25.00
2025-12-25 16:59:59.273535,599620121884215043,-59.00
2025-12-25 16:59:59.273535,599620121884215043,-64.00
2025-12-25 16:59:59.273535,599620121884215043,-59.00
2025-12-25 16:59:59.273535,599620121884215043,-64.00
2025-12-25 16:59:59.273535,599620121884215043,-68.00
2025-12-25 16:59:59.273535,599620121884215043,-73.00
2025-12-25 16:59:59.273535,599620121884215043,-80.00
2025-12-25 16:59:59.273535,599620121884215043,-85.00
2025-12-25 16:59:59.273535,599620121884215043,-85.00
2025-12-25 16:59:59.273535,599620121884215043,-55.00
2025-12-25 16:59:59.273535,599620121884215043,73.00
2025-12-25 16:59:59.273535,599620121884215043,342.00
2025-12-25 16:59:59.273535,599620121884215043,554.00
2025-12-25 16:59:59.273535,599620121884215043,216.00
2025-12-25 16:59:59.273535,599620121884215043,-643.00
2025-12-25 16:59:59.273535,599620121884215043,-1011.00
2025-12-25 16:59:59.273535,599620121884215043,-526.00
2025-12-25 16:59:59.273535,599620121884215043,-114.00
2025-12-25 16:59:59.273535,599620121884215043,-103.00
2025-12-25 16:59:59.273535,599620121884215043,-82.00
2025-12-25 16:59:59.273535,599620121884215043,-29.00
2025-12-25 16:59:59.273535,599620121884215043,-43.00
2025-12-25 16:59:59.273535,599620121884215043,-45.00
2025-12-25 16:59:59.273535,599620121884215043,-22.00
2025-12-25 16:59:59.273535,599620121884215043,-16.00
2025-12-25 16:59:59.791303,599620122445100278,-20.00
2025-12-25 16:59:59.791303,599620122445100278,-20.00
2025-12-25 16:59:59.791303,599620122445100278,-2.00
2025-12-25 16:59:59.791303,599620122445100278,9.00
2025-12-25 16:59:59.791303,599620122445100278,0.00
2025-12-25 16:59:59.791303,599620122445100278,-6.00
2025-12-25 16:59:59.791303,599620122445100278,2.00
2025-12-25 16:59:59.791303,599620122445100278,16.00
2025-12-25 16:59:59.791303,599620122445100278,32.00
2025-12-25 16:59:59.791303,599620122445100278,45.00
2025-12-25 16:59:59.791303,599620122445100278,41.00
2025-12-25 16:59:59.791303,599620122445100278,39.00
2025-12-25 16:59:59.791303,599620122445100278,45.00
2025-12-25 16:59:59.791303,599620122445100278,55.00
2025-12-25 16:59:59.791303,599620122445100278,75.00
2025-12-25 16:59:59.791303,599620122445100278,87.00
2025-12-25 16:59:59.791303,599620122445100278,78.00
2025-12-25 16:59:59.791303,599620122445100278,89.00
2025-12-25 16:59:59.791303,599620122445100278,110.00
2025-12-25 16:59:59.791303,599620122445100278,98.00
2025-12-25 16:59:59.791303,599620122445100278,78.00
2025-12-25 16:59:59.791303,599620122445100278,73.00
2025-12-25 16:59:59.791303,599620122445100278,55.00
2025-12-25 16:59:59.791303,599620122445100278,22.00
2025-12-25 16:59:59.791303,599620122445100278,-2.00
2025-12-25 16:59:59.791303,599620122445100278,-27.00
2025-12-25 16:59:59.791303,599620122445100278,-52.00
2025-12-25 16:59:59.791303,599620122445100278,-66.00
2025-12-25 16:59:59.791303,599620122445100278,-78.00
2025-12-25 16:59:59.791303,599620122445100278,-96.00
2025-12-25 16:59:59.791303,599620122445100278,-108.00
2025-12-25 16:59:59.791303,599620122445100278,-103.00
2025-12-25 16:59:59.791303,599620122445100278,-94.00
2025-12-25 16:59:59.791303,599620122445100278,-91.00
2025-12-25 16:59:59.791303,599620122445100278,-91.00
2025-12-25 16:59:59.791303,599620122445100278,-91.00
2025-12-25 16:59:59.791303,599620122445100278,-91.00
2025-12-25 16:59:59.791303,599620122445100278,-87.00
2025-12-25 16:59:59.791303,599620122445100278,-82.00
2025-12-25 16:59:59.791303,599620122445100278,-82.00
2025-12-25 16:59:59.791303,599620122445100278,-85.00
2025-12-25 16:59:59.791303,599620122445100278,-82.00
2025-12-25 16:59:59.791303,599620122445100278,-78.00
2025-12-25 16:59:59.791303,599620122445100278,-68.00
2025-12-25 16:59:59.791303,599620122445100278,-57.00
2025-12-25 16:59:59.791303,599620122445100278,-59.00
2025-12-25 16:59:59.791303,599620122445100278,-66.00
2025-12-25 16:59:59.791303,599620122445100278,-71.00
2025-12-25 16:59:59.791303,599620122445100278,-73.00
2025-12-25 16:59:59.791303,599620122445100278,-66.00
2025-12-25 16:59:59.791303,599620122445100278,-59.00
2025-12-25 16:59:59.791303,599620122445100278,-62.00
2025-12-25 16:59:59.791303,599620122445100278,-66.00
2025-12-25 16:59:59.791303,599620122445100278,-68.00
2025-12-25 16:59:59.791303,599620122445100278,-75.00
2025-12-25 16:59:59.791303,599620122445100278,-75.00
2025-12-25 16:59:59.791303,599620122445100278,-71.00
2025-12-25 16:59:59.791303,599620122445100278,-75.00
2025-12-25 16:59:59.791303,599620122445100278,-87.00
2025-12-25 16:59:59.791303,599620122445100278,-89.00
2025-12-25 16:59:59.791303,599620122445100278,-78.00
2025-12-25 16:59:59.791303,599620122445100278,-68.00
2025-12-25 16:59:59.791303,599620122445100278,-64.00
2025-12-25 16:59:59.791303,599620122445100278,-66.00
2025-12-25 16:59:59.791303,599620122445100278,-71.00
2025-12-25 16:59:59.791303,599620122445100278,-68.00
2025-12-25 16:59:59.791303,599620122445100278,-59.00
2025-12-25 16:59:59.791303,599620122445100278,-55.00
2025-12-25 16:59:59.791303,599620122445100278,-57.00
2025-12-25 16:59:59.791303,599620122445100278,-66.00
2025-12-25 16:59:59.791303,599620122445100278,-71.00
2025-12-25 16:59:59.791303,599620122445100278,-66.00
2025-12-25 16:59:59.791303,599620122445100278,-62.00
2025-12-25 17:00:00.470199,599620123005970255,-66.00
2025-12-25 17:00:00.470199,599620123005970255,-66.00
2025-12-25 17:00:00.470199,599620123005970255,-62.00
2025-12-25 17:00:00.470199,599620123005970255,-66.00
2025-12-25 17:00:00.470199,599620123005970255,-71.00
2025-12-25 17:00:00.470199,599620123005970255,-71.00
2025-12-25 17:00:00.470199,599620123005970255,-68.00
2025-12-25 17:00:00.470199,599620123005970255,-71.00
2025-12-25 17:00:00.470199,599620123005970255,-73.00
2025-12-25 17:00:00.470199,599620123005970255,-80.00
2025-12-25 17:00:00.470199,599620123005970255,-78.00
2025-12-25 17:00:00.470199,599620123005970255,-62.00
2025-12-25 17:00:00.470199,599620123005970255,-52.00
2025-12-25 17:00:00.470199,599620123005970255,-59.00
2025-12-25 17:00:00.470199,599620123005970255,-66.00
2025-12-25 17:00:00.470199,599620123005970255,-68.00
2025-12-25 17:00:00.470199,599620123005970255,-64.00
2025-12-25 17:00:00.470199,599620123005970255,-52.00
2025-12-25 17:00:00.470199,599620123005970255,-55.00
2025-12-25 17:00:00.470199,599620123005970255,-59.00
2025-12-25 17:00:00.470199,599620123005970255,-52.00
2025-12-25 17:00:00.470199,599620123005970255,-52.00
2025-12-25 17:00:00.470199,599620123005970255,-64.00
2025-12-25 17:00:00.470199,599620123005970255,-71.00
2025-12-25 17:00:00.470199,599620123005970255,-59.00
2025-12-25 17:00:00.470199,599620123005970255,-48.00
2025-12-25 17:00:00.470199,599620123005970255,-50.00
2025-12-25 17:00:00.470199,599620123005970255,-59.00
2025-12-25 17:00:00.470199,599620123005970255,-62.00
2025-12-25 17:00:00.470199,599620123005970255,-55.00
2025-12-25 17:00:00.470199,599620123005970255,-41.00
2025-12-25 17:00:00.470199,599620123005970255,-25.00
2025-12-25 17:00:00.470199,599620123005970255,-20.00
2025-12-25 17:00:00.470199,599620123005970255,-39.00
2025-12-25 17:00:00.470199,599620123005970255,-62.00
2025-12-25 17:00:00.470199,599620123005970255,-71.00
2025-12-25 17:00:00.470199,599620123005970255,-75.00
2025-12-25 17:00:00.470199,599620123005970255,-78.00
2025-12-25 17:00:00.470199,599620123005970255,-80.00
2025-12-25 17:00:00.470199,599620123005970255,-85.00
2025-12-25 17:00:00.470199,599620123005970255,-87.00
2025-12-25 17:00:00.470199,599620123005970255,-87.00
2025-12-25 17:00:00.470199,599620123005970255,-89.00
2025-12-25 17:00:00.470199,599620123005970255,-75.00
2025-12-25 17:00:00.470199,599620123005970255,20.00
2025-12-25 17:00:00.470199,599620123005970255,271.00
2025-12-25 17:00:00.470199,599620123005970255,542.00
2025-12-25 17:00:00.470199,599620123005970255,374.00
2025-12-25 17:00:00.470199,599620123005970255,-434.00
2025-12-25 17:00:00.470199,599620123005970255,-1020.00
2025-12-25 17:00:00.470199,599620123005970255,-696.00
2025-12-25 17:00:00.470199,599620123005970255,-211.00
2025-12-25 17:00:00.470199,599620123005970255,-128.00
2025-12-25 17:00:00.470199,599620123005970255,-98.00
2025-12-25 17:00:00.470199,599620123005970255,-34.00
2025-12-25 17:00:00.470199,599620123005970255,-45.00
2025-12-25 17:00:00.470199,599620123005970255,-50.00
2025-12-25 17:00:00.470199,599620123005970255,-27.00
2025-12-25 17:00:00.470199,599620123005970255,-22.00
2025-12-25 17:00:00.470199,599620123005970255,-20.00
2025-12-25 17:00:00.470199,599620123005970255,-11.00
2025-12-25 17:00:00.470199,599620123005970255,-6.00
2025-12-25 17:00:00.470199,599620123005970255,-2.00
2025-12-25 17:00:00.470199,599620123005970255,2.00
2025-12-25 17:00:00.470199,599620123005970255,2.00
2025-12-25 17:00:00.470199,599620123005970255,-4.00
2025-12-25 17:00:00.470199,599620123005970255,0.00
2025-12-25 17:00:00.470199,599620123005970255,16.00
2025-12-25 17:00:00.470199,599620123005970255,22.00
2025-12-25 17:00:00.470199,599620123005970255,20.00
2025-12-25 17:00:00.470199,599620123005970255,22.00
2025-12-25 17:00:00.470199,599620123005970255,27.00
2025-12-25 17:00:00.470199,599620123005970255,36.00
2025-12-25 17:00:00.996163,599620123566850404,48.00
2025-12-25 17:00:00.996163,599620123566850404,52.00
2025-12-25 17:00:00.996163,599620123566850404,57.00
2025-12-25 17:00:00.996163,599620123566850404,66.00
2025-12-25 17:00:00.996163,599620123566850404,64.00
2025-12-25 17:00:00.996163,599620123566850404,57.00
2025-12-25 17:00:00.996163,599620123566850404,62.00
2025-12-25 17:00:00.996163,599620123566850404,64.00
2025-12-25 17:00:00.996163,599620123566850404,43.00
2025-12-25 17:00:00.996163,599620123566850404,20.00
2025-12-25 17:00:00.996163,599620123566850404,0.00
2025-12-25 17:00:00.996163,599620123566850404,-39.00
2025-12-25 17:00:00.996163,599620123566850404,-71.00
2025-12-25 17:00:00.996163,599620123566850404,-85.00
2025-12-25 17:00:00.996163,599620123566850404,-103.00
2025-12-25 17:00:00.996163,599620123566850404,-114.00
2025-12-25 17:00:00.996163,599620123566850404,-110.00
2025-12-25 17:00:00.996163,599620123566850404,-105.00
2025-12-25 17:00:00.996163,599620123566850404,-108.00
2025-12-25 17:00:00.996163,599620123566850404,-103.00
2025-12-25 17:00:00.996163,599620123566850404,-98.00
2025-12-25 17:00:00.996163,599620123566850404,-91.00
2025-12-25 17:00:00.996163,599620123566850404,-85.00
2025-12-25 17:00:00.996163,599620123566850404,-80.00
2025-12-25 17:00:00.996163,599620123566850404,-80.00
2025-12-25 17:00:00.996163,599620123566850404,-78.00
2025-12-25 17:00:00.996163,599620123566850404,-71.00
2025-12-25 17:00:00.996163,599620123566850404,-62.00
2025-12-25 17:00:00.996163,599620123566850404,-57.00
2025-12-25 17:00:00.996163,599620123566850404,-57.00
2025-12-25 17:00:00.996163,599620123566850404,-59.00
2025-12-25 17:00:00.996163,599620123566850404,-57.00
2025-12-25 17:00:00.996163,599620123566850404,-48.00
2025-12-25 17:00:00.996163,599620123566850404,-48.00
2025-12-25 17:00:00.996163,599620123566850404,-52.00
2025-12-25 17:00:00.996163,599620123566850404,-59.00
2025-12-25 17:00:00.996163,599620123566850404,-59.00
2025-12-25 17:00:00.996163,599620123566850404,-50.00
2025-12-25 17:00:00.996163,599620123566850404,-43.00
2025-12-25 17:00:00.996163,599620123566850404,-52.00
2025-12-25 17:00:00.996163,599620123566850404,-62.00
2025-12-25 17:00:00.996163,599620123566850404,-64.00
2025-12-25 17:00:00.996163,599620123566850404,-68.00
2025-12-25 17:00:00.996163,599620123566850404,-71.00
2025-12-25 17:00:00.996163,599620123566850404,-66.00
2025-12-25 17:00:00.996163,599620123566850404,-66.00
2025-12-25 17:00:00.996163,599620123566850404,-73.00
2025-12-25 17:00:00.996163,599620123566850404,-73.00
2025-12-25 17:00:00.996163,599620123566850404,-62.00
2025-12-25 17:00:00.996163,599620123566850404,-59.00
2025-12-25 17:00:00.996163,599620123566850404,-66.00
2025-12-25 17:00:00.996163,599620123566850404,-68.00
2025-12-25 17:00:00.996163,599620123566850404,-68.00
2025-12-25 17:00:00.996163,599620123566850404,-75.00
2025-12-25 17:00:00.996163,599620123566850404,-82.00
2025-12-25 17:00:00.996163,599620123566850404,-71.00
2025-12-25 17:00:00.996163,599620123566850404,-64.00
2025-12-25 17:00:00.996163,599620123566850404,-75.00
2025-12-25 17:00:00.996163,599620123566850404,-80.00
2025-12-25 17:00:00.996163,599620123566850404,-78.00
2025-12-25 17:00:00.996163,599620123566850404,-78.00
2025-12-25 17:00:00.996163,599620123566850404,-78.00
2025-12-25 17:00:00.996163,599620123566850404,-78.00
2025-12-25 17:00:00.996163,599620123566850404,-85.00
2025-12-25 17:00:00.996163,599620123566850404,-91.00
2025-12-25 17:00:00.996163,599620123566850404,-96.00
2025-12-25 17:00:00.996163,599620123566850404,-96.00
2025-12-25 17:00:00.996163,599620123566850404,-91.00
2025-12-25 17:00:00.996163,599620123566850404,-87.00
2025-12-25 17:00:00.996163,599620123566850404,-94.00
2025-12-25 17:00:00.996163,599620123566850404,-98.00
2025-12-25 17:00:00.996163,599620123566850404,-89.00
2025-12-25 17:00:00.996163,599620123566850404,-82.00
2025-12-25 17:00:01.569596,599620124127725465,-91.00
2025-12-25 17:00:01.569596,599620124127725465,-94.00
2025-12-25 17:00:01.569596,599620124127725465,-85.00
2025-12-25 17:00:01.569596,599620124127725465,-78.00
2025-12-25 17:00:01.569596,599620124127725465,-80.00
2025-12-25 17:00:01.569596,599620124127725465,-85.00
2025-12-25 17:00:01.569596,599620124127725465,-87.00
2025-12-25 17:00:01.569596,599620124127725465,-80.00
2025-12-25 17:00:01.569596,599620124127725465,-66.00
2025-12-25 17:00:01.569596,599620124127725465,-62.00
2025-12-25 17:00:01.569596,599620124127725465,-52.00
2025-12-25 17:00:01.569596,599620124127725465,-27.00
2025-12-25 17:00:01.569596,599620124127725465,-25.00
2025-12-25 17:00:01.569596,599620124127725465,-57.00
2025-12-25 17:00:01.569596,599620124127725465,-78.00
2025-12-25 17:00:01.569596,599620124127725465,-78.00
2025-12-25 17:00:01.569596,599620124127725465,-78.00
2025-12-25 17:00:01.569596,599620124127725465,-73.00
2025-12-25 17:00:01.569596,599620124127725465,-68.00
2025-12-25 17:00:01.569596,599620124127725465,-75.00
2025-12-25 17:00:01.569596,599620124127725465,-78.00
2025-12-25 17:00:01.569596,599620124127725465,-68.00
2025-12-25 17:00:01.569596,599620124127725465,-50.00
2025-12-25 17:00:01.569596,599620124127725465,41.00
2025-12-25 17:00:01.569596,599620124127725465,287.00
2025-12-25 17:00:01.569596,599620124127725465,558.00
2025-12-25 17:00:01.569596,599620124127725465,386.00
2025-12-25 17:00:01.569596,599620124127725465,-441.00
2025-12-25 17:00:01.569596,599620124127725465,-1050.00
2025-12-25 17:00:01.569596,599620124127725465,-691.00
2025-12-25 17:00:01.569596,599620124127725465,-163.00
2025-12-25 17:00:01.569596,599620124127725465,-98.00
2025-12-25 17:00:01.569596,599620124127725465,-96.00
2025-12-25 17:00:01.569596,599620124127725465,-22.00
2025-12-25 17:00:01.569596,599620124127725465,-32.00
2025-12-25 17:00:01.569596,599620124127725465,-50.00
2025-12-25 17:00:01.569596,599620124127725465,-18.00
2025-12-25 17:00:01.569596,599620124127725465,-13.00
2025-12-25 17:00:01.569596,599620124127725465,-22.00
2025-12-25 17:00:01.569596,599620124127725465,-9.00
2025-12-25 17:00:01.569596,599620124127725465,0.00
2025-12-25 17:00:01.569596,599620124127725465,2.00
2025-12-25 17:00:01.569596,599620124127725465,6.00
2025-12-25 17:00:01.569596,599620124127725465,4.00
2025-12-25 17:00:01.569596,599620124127725465,0.00
2025-12-25 17:00:01.569596,599620124127725465,6.00
2025-12-25 17:00:01.569596,599620124127725465,27.00
2025-12-25 17:00:01.569596,599620124127725465,34.00
2025-12-25 17:00:01.569596,599620124127725465,22.00
2025-12-25 17:00:01.569596,599620124127725465,20.00
2025-12-25 17:00:01.569596,599620124127725465,36.00
2025-12-25 17:00:01.569596,599620124127725465,41.00
2025-12-25 17:00:01.569596,599620124127725465,43.00
2025-12-25 17:00:01.569596,599620124127725465,59.00
2025-12-25 17:00:01.569596,599620124127725465,78.00
2025-12-25 17:00:01.569596,599620124127725465,80.00
2025-12-25 17:00:01.569596,599620124127725465,68.00
2025-12-25 17:00:01.569596,599620124127725465,64.00
2025-12-25 17:00:01.569596,599620124127725465,64.00
2025-12-25 17:00:01.569596,599620124127725465,57.00
2025-12-25 17:00:01.569596,599620124127725465,41.00
2025-12-25 17:00:01.569596,599620124127725465,16.00
2025-12-25 17:00:01.569596,599620124127725465,-16.00
2025-12-25 17:00:01.569596,599620124127725465,-48.00
2025-12-25 17:00:01.569596,599620124127725465,-73.00
2025-12-25 17:00:01.569596,599620124127725465,-89.00
2025-12-25 17:00:01.569596,599620124127725465,-103.00
2025-12-25 17:00:01.569596,599620124127725465,-112.00
2025-12-25 17:00:01.569596,599620124127725465,-108.00
2025-12-25 17:00:01.569596,599620124127725465,-105.00
2025-12-25 17:00:01.569596,599620124127725465,-105.00
2025-12-25 17:00:01.569596,599620124127725465,-96.00
2025-12-25 17:00:01.569596,599620124127725465,-91.00
2025-12-25 17:00:02.076732,599620124688610700,-96.00
2025-12-25 17:00:02.076732,599620124688610700,-98.00
2025-12-25 17:00:02.076732,599620124688610700,-89.00
2025-12-25 17:00:02.076732,599620124688610700,-80.00
2025-12-25 17:00:02.076732,599620124688610700,-75.00
2025-12-25 17:00:02.076732,599620124688610700,-68.00
2025-12-25 17:00:02.076732,599620124688610700,-64.00
2025-12-25 17:00:02.076732,599620124688610700,-64.00
2025-12-25 17:00:02.076732,599620124688610700,-57.00
2025-12-25 17:00:02.076732,599620124688610700,-39.00
2025-12-25 17:00:02.076732,599620124688610700,-25.00
2025-12-25 17:00:02.076732,599620124688610700,-27.00
2025-12-25 17:00:02.076732,599620124688610700,-34.00
2025-12-25 17:00:02.076732,599620124688610700,-32.00
2025-12-25 17:00:02.076732,599620124688610700,-29.00
2025-12-25 17:00:02.076732,599620124688610700,-22.00
2025-12-25 17:00:02.076732,599620124688610700,-11.00
2025-12-25 17:00:02.076732,599620124688610700,-18.00
2025-12-25 17:00:02.076732,599620124688610700,-27.00
2025-12-25 17:00:02.076732,599620124688610700,-25.00
2025-12-25 17:00:02.076732,599620124688610700,-25.00
2025-12-25 17:00:02.076732,599620124688610700,-29.00
2025-12-25 17:00:02.076732,599620124688610700,-32.00
2025-12-25 17:00:02.076732,599620124688610700,-39.00
2025-12-25 17:00:02.076732,599620124688610700,-50.00
2025-12-25 17:00:02.076732,599620124688610700,-45.00
2025-12-25 17:00:02.076732,599620124688610700,-36.00
2025-12-25 17:00:02.076732,599620124688610700,-41.00
2025-12-25 17:00:02.076732,599620124688610700,-50.00
2025-12-25 17:00:02.076732,599620124688610700,-45.00
2025-12-25 17:00:02.076732,599620124688610700,-36.00
2025-12-25 17:00:02.076732,599620124688610700,-43.00
2025-12-25 17:00:02.076732,599620124688610700,-52.00
2025-12-25 17:00:02.076732,599620124688610700,-50.00
2025-12-25 17:00:02.076732,599620124688610700,-48.00
2025-12-25 17:00:02.076732,599620124688610700,-52.00
2025-12-25 17:00:02.076732,599620124688610700,-57.00
2025-12-25 17:00:02.076732,599620124688610700,-59.00
2025-12-25 17:00:02.076732,599620124688610700,-57.00
2025-12-25 17:00:02.076732,599620124688610700,-52.00
2025-12-25 17:00:02.076732,599620124688610700,-55.00
2025-12-25 17:00:02.076732,599620124688610700,-64.00
2025-12-25 17:00:02.076732,599620124688610700,-66.00
2025-12-25 17:00:02.076732,599620124688610700,-68.00
2025-12-25 17:00:02.076732,599620124688610700,-68.00
2025-12-25 17:00:02.076732,599620124688610700,-68.00
2025-12-25 17:00:02.076732,599620124688610700,-68.00
2025-12-25 17:00:02.076732,599620124688610700,-71.00
2025-12-25 17:00:02.076732,599620124688610700,-73.00
2025-12-25 17:00:02.076732,599620124688610700,-75.00
2025-12-25 17:00:02.076732,599620124688610700,-78.00
2025-12-25 17:00:02.076732,599620124688610700,-80.00
2025-12-25 17:00:02.076732,599620124688610700,-80.00
2025-12-25 17:00:02.076732,599620124688610700,-75.00
2025-12-25 17:00:02.076732,599620124688610700,-75.00
2025-12-25 17:00:02.076732,599620124688610700,-80.00
2025-12-25 17:00:02.076732,599620124688610700,-80.00
2025-12-25 17:00:02.076732,599620124688610700,-68.00
2025-12-25 17:00:02.076732,599620124688610700,-59.00
2025-12-25 17:00:02.076732,599620124688610700,-48.00
2025-12-25 17:00:02.076732,599620124688610700,-25.00
2025-12-25 17:00:02.076732,599620124688610700,-25.00
2025-12-25 17:00:02.076732,599620124688610700,-59.00
2025-12-25 17:00:02.076732,599620124688610700,-78.00
2025-12-25 17:00:02.076732,599620124688610700,-68.00
2025-12-25 17:00:02.076732,599620124688610700,-71.00
2025-12-25 17:00:02.076732,599620124688610700,-85.00
2025-12-25 17:00:02.076732,599620124688610700,-82.00
2025-12-25 17:00:02.076732,599620124688610700,-75.00
2025-12-25 17:00:02.076732,599620124688610700,-85.00
2025-12-25 17:00:02.076732,599620124688610700,-94.00
2025-12-25 17:00:02.076732,599620124688610700,-82.00
2025-12-25 17:00:02.076732,599620124688610700,-13.00
2025-12-25 17:00:02.651855,599620125249465421,193.00
2025-12-25 17:00:02.651855,599620125249465421,471.00
2025-12-25 17:00:02.651855,599620125249465421,443.00
2025-12-25 17:00:02.651855,599620125249465421,-241.00
2025-12-25 17:00:02.651855,599620125249465421,-958.00
2025-12-25 17:00:02.651855,599620125249465421,-806.00
2025-12-25 17:00:02.651855,599620125249465421,-259.00
2025-12-25 17:00:02.651855,599620125249465421,-78.00
2025-12-25 17:00:02.651855,599620125249465421,-75.00
2025-12-25 17:00:02.651855,599620125249465421,-20.00
2025-12-25 17:00:02.651855,599620125249465421,-16.00
2025-12-25 17:00:02.651855,599620125249465421,-29.00
2025-12-25 17:00:02.651855,599620125249465421,2.00
2025-12-25 17:00:02.651855,599620125249465421,20.00
2025-12-25 17:00:02.651855,599620125249465421,6.00
2025-12-25 17:00:02.651855,599620125249465421,9.00
2025-12-25 17:00:02.651855,599620125249465421,16.00
2025-12-25 17:00:02.651855,599620125249465421,13.00
2025-12-25 17:00:02.651855,599620125249465421,16.00
2025-12-25 17:00:02.651855,599620125249465421,25.00
2025-12-25 17:00:02.651855,599620125249465421,27.00
2025-12-25 17:00:02.651855,599620125249465421,29.00
2025-12-25 17:00:02.651855,599620125249465421,39.00
2025-12-25 17:00:02.651855,599620125249465421,39.00
2025-12-25 17:00:02.651855,599620125249465421,39.00
2025-12-25 17:00:02.651855,599620125249465421,48.00
2025-12-25 17:00:02.651855,599620125249465421,57.00
2025-12-25 17:00:02.651855,599620125249465421,59.00
2025-12-25 17:00:02.651855,599620125249465421,59.00
2025-12-25 17:00:02.651855,599620125249465421,62.00
2025-12-25 17:00:02.651855,599620125249465421,73.00
2025-12-25 17:00:02.651855,599620125249465421,80.00
2025-12-25 17:00:02.651855,599620125249465421,80.00
2025-12-25 17:00:02.651855,599620125249465421,85.00
2025-12-25 17:00:02.651855,599620125249465421,85.00
2025-12-25 17:00:02.651855,599620125249465421,71.00
2025-12-25 17:00:02.651855,599620125249465421,50.00
2025-12-25 17:00:02.651855,599620125249465421,25.00
2025-12-25 17:00:02.651855,599620125249465421,-9.00
2025-12-25 17:00:02.651855,599620125249465421,-41.00
2025-12-25 17:00:02.651855,599620125249465421,-64.00
2025-12-25 17:00:02.651855,599620125249465421,-80.00
2025-12-25 17:00:02.651855,599620125249465421,-98.00
2025-12-25 17:00:02.651855,599620125249465421,-114.00
2025-12-25 17:00:02.651855,599620125249465421,-121.00
2025-12-25 17:00:02.651855,599620125249465421,-124.00
2025-12-25 17:00:02.651855,599620125249465421,-124.00
2025-12-25 17:00:02.651855,599620125249465421,-121.00
2025-12-25 17:00:02.651855,599620125249465421,-117.00
2025-12-25 17:00:02.651855,599620125249465421,-119.00
2025-12-25 17:00:02.651855,599620125249465421,-119.00
2025-12-25 17:00:02.651855,599620125249465421,-112.00
2025-12-25 17:00:02.651855,599620125249465421,-101.00
2025-12-25 17:00:02.651855,599620125249465421,-96.00
2025-12-25 17:00:02.651855,599620125249465421,-89.00
2025-12-25 17:00:02.651855,599620125249465421,-78.00
2025-12-25 17:00:02.651855,599620125249465421,-73.00
2025-12-25 17:00:02.651855,599620125249465421,-78.00
2025-12-25 17:00:02.651855,599620125249465421,-80.00
2025-12-25 17:00:02.651855,599620125249465421,-78.00
2025-12-25 17:00:02.651855,599620125249465421,-71.00
2025-12-25 17:00:02.651855,599620125249465421,-71.00
2025-12-25 17:00:02.651855,599620125249465421,-75.00
2025-12-25 17:00:02.651855,599620125249465421,-78.00
2025-12-25 17:00:02.651855,599620125249465421,-71.00
2025-12-25 17:00:02.651855,599620125249465421,-68.00
2025-12-25 17:00:02.651855,599620125249465421,-78.00
2025-12-25 17:00:02.651855,599620125249465421,-82.00
2025-12-25 17:00:02.651855,599620125249465421,-80.00
2025-12-25 17:00:02.651855,599620125249465421,-82.00
2025-12-25 17:00:02.651855,599620125249465421,-80.00
2025-12-25 17:00:02.651855,599620125249465421,-75.00
2025-12-25 17:00:02.651855,599620125249465421,-78.00
2025-12-25 17:00:03.277466,599620125810360830,-80.00
2025-12-25 17:00:03.277466,599620125810360830,-73.00
2025-12-25 17:00:03.277466,599620125810360830,-66.00
2025-12-25 17:00:03.277466,599620125810360830,-68.00
2025-12-25 17:00:03.277466,599620125810360830,-68.00
2025-12-25 17:00:03.277466,599620125810360830,-68.00
2025-12-25 17:00:03.277466,599620125810360830,-68.00
2025-12-25 17:00:03.277466,599620125810360830,-68.00
2025-12-25 17:00:03.277466,599620125810360830,-68.00
2025-12-25 17:00:03.277466,599620125810360830,-59.00
2025-12-25 17:00:03.277466,599620125810360830,-48.00
2025-12-25 17:00:03.277466,599620125810360830,-50.00
2025-12-25 17:00:03.277466,599620125810360830,-50.00
2025-12-25 17:00:03.277466,599620125810360830,-43.00
2025-12-25 17:00:03.277466,599620125810360830,-45.00
2025-12-25 17:00:03.277466,599620125810360830,-48.00
2025-12-25 17:00:03.277466,599620125810360830,-52.00
2025-12-25 17:00:03.277466,599620125810360830,-59.00
2025-12-25 17:00:03.277466,599620125810360830,-62.00
2025-12-25 17:00:03.277466,599620125810360830,-62.00
2025-12-25 17:00:03.277466,599620125810360830,-59.00
2025-12-25 17:00:03.277466,599620125810360830,-59.00
2025-12-25 17:00:03.277466,599620125810360830,-64.00
2025-12-25 17:00:03.277466,599620125810360830,-66.00
2025-12-25 17:00:03.277466,599620125810360830,-62.00
2025-12-25 17:00:03.277466,599620125810360830,-57.00
2025-12-25 17:00:03.277466,599620125810360830,-45.00
2025-12-25 17:00:03.277466,599620125810360830,-27.00
2025-12-25 17:00:03.277466,599620125810360830,-22.00
2025-12-25 17:00:03.277466,599620125810360830,-45.00
2025-12-25 17:00:03.277466,599620125810360830,-75.00
2025-12-25 17:00:03.277466,599620125810360830,-80.00
2025-12-25 17:00:03.277466,599620125810360830,-80.00
2025-12-25 17:00:03.277466,599620125810360830,-85.00
2025-12-25 17:00:03.277466,599620125810360830,-85.00
2025-12-25 17:00:03.277466,599620125810360830,-89.00
2025-12-25 17:00:03.277466,599620125810360830,-94.00
2025-12-25 17:00:03.277466,599620125810360830,-91.00
2025-12-25 17:00:03.277466,599620125810360830,-89.00
2025-12-25 17:00:03.277466,599620125810360830,-52.00
2025-12-25 17:00:03.277466,599620125810360830,94.00
2025-12-25 17:00:03.277466,599620125810360830,377.00
2025-12-25 17:00:03.277466,599620125810360830,556.00
2025-12-25 17:00:03.277466,599620125810360830,133.00
2025-12-25 17:00:03.277466,599620125810360830,-744.00
2025-12-25 17:00:03.277466,599620125810360830,-1020.00
2025-12-25 17:00:03.277466,599620125810360830,-501.00
2025-12-25 17:00:03.277466,599620125810360830,-119.00
2025-12-25 17:00:03.277466,599620125810360830,-96.00
2025-12-25 17:00:03.277466,599620125810360830,-57.00
2025-12-25 17:00:03.277466,599620125810360830,-11.00
2025-12-25 17:00:03.277466,599620125810360830,-29.00
2025-12-25 17:00:03.277466,599620125810360830,-29.00
2025-12-25 17:00:03.277466,599620125810360830,-11.00
2025-12-25 17:00:03.277466,599620125810360830,-11.00
2025-12-25 17:00:03.277466,599620125810360830,-13.00
2025-12-25 17:00:03.277466,599620125810360830,-2.00
2025-12-25 17:00:03.277466,599620125810360830,0.00
2025-12-25 17:00:03.277466,599620125810360830,-2.00
2025-12-25 17:00:03.277466,599620125810360830,-2.00
2025-12-25 17:00:03.277466,599620125810360830,4.00
2025-12-25 17:00:03.277466,599620125810360830,11.00
2025-12-25 17:00:03.277466,599620125810360830,20.00
2025-12-25 17:00:03.277466,599620125810360830,18.00
2025-12-25 17:00:03.277466,599620125810360830,13.00
2025-12-25 17:00:03.277466,599620125810360830,25.00
2025-12-25 17:00:03.277466,599620125810360830,36.00
2025-12-25 17:00:03.277466,599620125810360830,34.00
2025-12-25 17:00:03.277466,599620125810360830,36.00
2025-12-25 17:00:03.277466,599620125810360830,48.00
2025-12-25 17:00:03.277466,599620125810360830,57.00
2025-12-25 17:00:03.277466,599620125810360830,64.00
2025-12-25 17:00:03.277466,599620125810360830,71.00
2025-12-25 17:00:03.785098,599620126371220633,73.00
2025-12-25 17:00:03.785098,599620126371220633,75.00
2025-12-25 17:00:03.785098,599620126371220633,71.00
2025-12-25 17:00:03.785098,599620126371220633,57.00
2025-12-25 17:00:03.785098,599620126371220633,27.00
2025-12-25 17:00:03.785098,599620126371220633,-9.00
2025-12-25 17:00:03.785098,599620126371220633,-36.00
2025-12-25 17:00:03.785098,599620126371220633,-62.00
2025-12-25 17:00:03.785098,599620126371220633,-96.00
2025-12-25 17:00:03.785098,599620126371220633,-117.00
2025-12-25 17:00:03.785098,599620126371220633,-121.00
2025-12-25 17:00:03.785098,599620126371220633,-128.00
2025-12-25 17:00:03.785098,599620126371220633,-126.00
2025-12-25 17:00:03.785098,599620126371220633,-117.00
2025-12-25 17:00:03.785098,599620126371220633,-117.00
2025-12-25 17:00:03.785098,599620126371220633,-124.00
2025-12-25 17:00:03.785098,599620126371220633,-121.00
2025-12-25 17:00:03.785098,599620126371220633,-114.00
2025-12-25 17:00:03.785098,599620126371220633,-105.00
2025-12-25 17:00:03.785098,599620126371220633,-85.00
2025-12-25 17:00:03.785098,599620126371220633,-80.00
2025-12-25 17:00:03.785098,599620126371220633,-91.00
2025-12-25 17:00:03.785098,599620126371220633,-89.00
2025-12-25 17:00:03.785098,599620126371220633,-82.00
2025-12-25 17:00:03.785098,599620126371220633,-85.00
2025-12-25 17:00:03.785098,599620126371220633,-82.00
2025-12-25 17:00:03.785098,599620126371220633,-78.00
2025-12-25 17:00:03.785098,599620126371220633,-80.00
2025-12-25 17:00:03.785098,599620126371220633,-78.00
2025-12-25 17:00:03.785098,599620126371220633,-78.00
2025-12-25 17:00:03.785098,599620126371220633,-78.00
2025-12-25 17:00:03.785098,599620126371220633,-71.00
2025-12-25 17:00:03.785098,599620126371220633,-73.00
2025-12-25 17:00:03.785098,599620126371220633,-85.00
2025-12-25 17:00:03.785098,599620126371220633,-85.00
2025-12-25 17:00:03.785098,599620126371220633,-78.00
2025-12-25 17:00:03.785098,599620126371220633,-71.00
2025-12-25 17:00:03.785098,599620126371220633,-71.00
2025-12-25 17:00:03.785098,599620126371220633,-66.00
2025-12-25 17:00:03.785098,599620126371220633,-59.00
2025-12-25 17:00:03.785098,599620126371220633,-59.00
2025-12-25 17:00:03.785098,599620126371220633,-66.00
2025-12-25 17:00:03.785098,599620126371220633,-64.00
2025-12-25 17:00:03.785098,599620126371220633,-55.00
2025-12-25 17:00:03.785098,599620126371220633,-57.00
2025-12-25 17:00:03.785098,599620126371220633,-62.00
2025-12-25 17:00:03.785098,599620126371220633,-62.00
2025-12-25 17:00:03.785098,599620126371220633,-62.00
2025-12-25 17:00:03.785098,599620126371220633,-64.00
2025-12-25 17:00:03.785098,599620126371220633,-66.00
2025-12-25 17:00:03.785098,599620126371220633,-71.00
2025-12-25 17:00:03.785098,599620126371220633,-75.00
2025-12-25 17:00:03.785098,599620126371220633,-68.00
2025-12-25 17:00:03.785098,599620126371220633,-66.00
2025-12-25 17:00:03.785098,599620126371220633,-71.00
2025-12-25 17:00:03.785098,599620126371220633,-71.00
2025-12-25 17:00:03.785098,599620126371220633,-68.00
2025-12-25 17:00:03.785098,599620126371220633,-59.00
2025-12-25 17:00:03.785098,599620126371220633,-50.00
2025-12-25 17:00:03.785098,599620126371220633,-36.00
2025-12-25 17:00:03.785098,599620126371220633,-18.00
2025-12-25 17:00:03.785098,599620126371220633,-22.00
2025-12-25 17:00:03.785098,599620126371220633,-50.00
2025-12-25 17:00:03.785098,599620126371220633,-64.00
2025-12-25 17:00:03.785098,599620126371220633,-62.00
2025-12-25 17:00:03.785098,599620126371220633,-64.00
2025-12-25 17:00:03.785098,599620126371220633,-62.00
2025-12-25 17:00:03.785098,599620126371220633,-57.00
2025-12-25 17:00:03.785098,599620126371220633,-59.00
2025-12-25 17:00:03.785098,599620126371220633,-68.00
2025-12-25 17:00:03.785098,599620126371220633,-66.00
2025-12-25 17:00:03.785098,599620126371220633,-41.00
2025-12-25 17:00:03.785098,599620126371220633,52.00
2025-12-25 17:00:04.282138,599620126932100782,294.00
2025-12-25 17:00:04.282138,599620126932100782,581.00
2025-12-25 17:00:04.282138,599620126932100782,436.00
2025-12-25 17:00:04.282138,599620126932100782,-397.00
2025-12-25 17:00:04.282138,599620126932100782,-1046.00
2025-12-25 17:00:04.282138,599620126932100782,-740.00
2025-12-25 17:00:04.282138,599620126932100782,-209.00
2025-12-25 17:00:04.282138,599620126932100782,-89.00
2025-12-25 17:00:04.282138,599620126932100782,-66.00
2025-12-25 17:00:04.282138,599620126932100782,-2.00
2025-12-25 17:00:04.282138,599620126932100782,2.00
2025-12-25 17:00:04.282138,599620126932100782,2.00
2025-12-25 17:00:04.282138,599620126932100782,18.00
2025-12-25 17:00:04.282138,599620126932100782,13.00
2025-12-25 17:00:04.282138,599620126932100782,9.00
2025-12-25 17:00:04.282138,599620126932100782,29.00
2025-12-25 17:00:04.282138,599620126932100782,50.00
2025-12-25 17:00:04.282138,599620126932100782,50.00
2025-12-25 17:00:04.282138,599620126932100782,41.00
2025-12-25 17:00:04.282138,599620126932100782,45.00
2025-12-25 17:00:04.282138,599620126932100782,50.00
2025-12-25 17:00:04.282138,599620126932100782,48.00
2025-12-25 17:00:04.282138,599620126932100782,50.00
2025-12-25 17:00:04.282138,599620126932100782,59.00
2025-12-25 17:00:04.282138,599620126932100782,68.00
2025-12-25 17:00:04.282138,599620126932100782,71.00
2025-12-25 17:00:04.282138,599620126932100782,78.00
2025-12-25 17:00:04.282138,599620126932100782,87.00
2025-12-25 17:00:04.282138,599620126932100782,98.00
2025-12-25 17:00:04.282138,599620126932100782,101.00
2025-12-25 17:00:04.282138,599620126932100782,110.00
2025-12-25 17:00:04.282138,599620126932100782,124.00
2025-12-25 17:00:04.282138,599620126932100782,133.00
2025-12-25 17:00:04.282138,599620126932100782,131.00
2025-12-25 17:00:04.282138,599620126932100782,124.00
2025-12-25 17:00:04.282138,599620126932100782,105.00
2025-12-25 17:00:04.282138,599620126932100782,78.00
2025-12-25 17:00:04.282138,599620126932100782,43.00
2025-12-25 17:00:04.282138,599620126932100782,4.00
2025-12-25 17:00:04.282138,599620126932100782,-29.00
2025-12-25 17:00:04.282138,599620126932100782,-57.00
2025-12-25 17:00:04.282138,599620126932100782,-85.00
2025-12-25 17:00:04.282138,599620126932100782,-103.00
2025-12-25 17:00:04.282138,599620126932100782,-105.00
2025-12-25 17:00:04.282138,599620126932100782,-101.00
2025-12-25 17:00:04.282138,599620126932100782,-101.00
2025-12-25 17:00:04.282138,599620126932100782,-108.00
2025-12-25 17:00:04.282138,599620126932100782,-105.00
2025-12-25 17:00:04.282138,599620126932100782,-98.00
2025-12-25 17:00:04.282138,599620126932100782,-103.00
2025-12-25 17:00:04.282138,599620126932100782,-105.00
2025-12-25 17:00:04.282138,599620126932100782,-98.00
2025-12-25 17:00:04.282138,599620126932100782,-91.00
2025-12-25 17:00:04.282138,599620126932100782,-87.00
2025-12-25 17:00:04.282138,599620126932100782,-85.00
2025-12-25 17:00:04.282138,599620126932100782,-87.00
2025-12-25 17:00:04.282138,599620126932100782,-85.00
2025-12-25 17:00:04.282138,599620126932100782,-80.00
2025-12-25 17:00:04.282138,599620126932100782,-78.00
2025-12-25 17:00:04.282138,599620126932100782,-75.00
2025-12-25 17:00:04.282138,599620126932100782,-71.00
2025-12-25 17:00:04.282138,599620126932100782,-68.00
2025-12-25 17:00:04.282138,599620126932100782,-71.00
2025-12-25 17:00:04.282138,599620126932100782,-68.00
2025-12-25 17:00:04.282138,599620126932100782,-64.00
2025-12-25 17:00:04.282138,599620126932100782,-68.00
2025-12-25 17:00:04.282138,599620126932100782,-78.00
2025-12-25 17:00:04.282138,599620126932100782,-80.00
2025-12-25 17:00:04.282138,599620126932100782,-78.00
2025-12-25 17:00:04.282138,599620126932100782,-78.00
2025-12-25 17:00:04.282138,599620126932100782,-85.00
2025-12-25 17:00:04.282138,599620126932100782,-85.00
2025-12-25 17:00:04.282138,599620126932100782,-82.00
2025-12-25 17:00:04.866489,599620127492975843,-78.00
2025-12-25 17:00:04.866489,599620127492975843,-78.00
2025-12-25 17:00:04.866489,599620127492975843,-82.00
2025-12-25 17:00:04.866489,599620127492975843,-87.00
2025-12-25 17:00:04.866489,599620127492975843,-85.00
2025-12-25 17:00:04.866489,599620127492975843,-82.00
2025-12-25 17:00:04.866489,599620127492975843,-78.00
2025-12-25 17:00:04.866489,599620127492975843,-66.00
2025-12-25 17:00:04.866489,599620127492975843,-59.00
2025-12-25 17:00:04.866489,599620127492975843,-66.00
2025-12-25 17:00:04.866489,599620127492975843,-68.00
2025-12-25 17:00:04.866489,599620127492975843,-68.00
2025-12-25 17:00:04.866489,599620127492975843,-66.00
2025-12-25 17:00:04.866489,599620127492975843,-57.00
2025-12-25 17:00:04.866489,599620127492975843,-48.00
2025-12-25 17:00:04.866489,599620127492975843,-48.00
2025-12-25 17:00:04.866489,599620127492975843,-48.00
2025-12-25 17:00:04.866489,599620127492975843,-32.00
2025-12-25 17:00:04.866489,599620127492975843,-4.00
2025-12-25 17:00:04.866489,599620127492975843,0.00
2025-12-25 17:00:04.866489,599620127492975843,-29.00
2025-12-25 17:00:04.866489,599620127492975843,-52.00
2025-12-25 17:00:04.866489,599620127492975843,-55.00
2025-12-25 17:00:04.866489,599620127492975843,-57.00
2025-12-25 17:00:04.866489,599620127492975843,-55.00
2025-12-25 17:00:04.866489,599620127492975843,-48.00
2025-12-25 17:00:04.866489,599620127492975843,-52.00
2025-12-25 17:00:04.866489,599620127492975843,-55.00
2025-12-25 17:00:04.866489,599620127492975843,-52.00
2025-12-25 17:00:04.866489,599620127492975843,-55.00
2025-12-25 17:00:04.866489,599620127492975843,-11.00
2025-12-25 17:00:04.866489,599620127492975843,167.00
2025-12-25 17:00:04.866489,599620127492975843,473.00
2025-12-25 17:00:04.866489,599620127492975843,574.00
2025-12-25 17:00:04.866489,599620127492975843,-18.00
2025-12-25 17:00:04.866489,599620127492975843,-898.00
2025-12-25 17:00:04.866489,599620127492975843,-954.00
2025-12-25 17:00:04.866489,599620127492975843,-340.00
2025-12-25 17:00:04.866489,599620127492975843,-55.00
2025-12-25 17:00:04.866489,599620127492975843,-75.00
2025-12-25 17:00:04.866489,599620127492975843,-27.00
2025-12-25 17:00:04.866489,599620127492975843,6.00
2025-12-25 17:00:04.866489,599620127492975843,-6.00
2025-12-25 17:00:04.866489,599620127492975843,9.00
2025-12-25 17:00:04.866489,599620127492975843,20.00
2025-12-25 17:00:04.866489,599620127492975843,11.00
2025-12-25 17:00:04.866489,599620127492975843,16.00
2025-12-25 17:00:04.866489,599620127492975843,25.00
2025-12-25 17:00:04.866489,599620127492975843,25.00
2025-12-25 17:00:04.866489,599620127492975843,25.00
2025-12-25 17:00:04.866489,599620127492975843,29.00
2025-12-25 17:00:04.866489,599620127492975843,34.00
2025-12-25 17:00:04.866489,599620127492975843,41.00
2025-12-25 17:00:04.866489,599620127492975843,50.00
2025-12-25 17:00:04.866489,599620127492975843,55.00
2025-12-25 17:00:04.866489,599620127492975843,55.00
2025-12-25 17:00:04.866489,599620127492975843,55.00
2025-12-25 17:00:04.866489,599620127492975843,59.00
2025-12-25 17:00:04.866489,599620127492975843,68.00
2025-12-25 17:00:04.866489,599620127492975843,75.00
2025-12-25 17:00:04.866489,599620127492975843,87.00
2025-12-25 17:00:04.866489,599620127492975843,89.00
2025-12-25 17:00:04.866489,599620127492975843,91.00
2025-12-25 17:00:04.866489,599620127492975843,96.00
2025-12-25 17:00:04.866489,599620127492975843,101.00
2025-12-25 17:00:04.866489,599620127492975843,98.00
2025-12-25 17:00:04.866489,599620127492975843,87.00
2025-12-25 17:00:04.866489,599620127492975843,68.00
2025-12-25 17:00:04.866489,599620127492975843,39.00
2025-12-25 17:00:04.866489,599620127492975843,-2.00
2025-12-25 17:00:04.866489,599620127492975843,-43.00
2025-12-25 17:00:04.866489,599620127492975843,-71.00
2025-12-25 17:00:04.866489,599620127492975843,-89.00
2025-12-25 17:00:05.364450,599620128053861078,-108.00
2025-12-25 17:00:05.364450,599620128053861078,-124.00
2025-12-25 17:00:05.364450,599620128053861078,-128.00
2025-12-25 17:00:05.364450,599620128053861078,-121.00
2025-12-25 17:00:05.364450,599620128053861078,-112.00
2025-12-25 17:00:05.364450,599620128053861078,-103.00
2025-12-25 17:00:05.364450,599620128053861078,-101.00
2025-12-25 17:00:05.364450,599620128053861078,-103.00
2025-12-25 17:00:05.364450,599620128053861078,-101.00
2025-12-25 17:00:05.364450,599620128053861078,-91.00
2025-12-25 17:00:05.364450,599620128053861078,-73.00
2025-12-25 17:00:05.364450,599620128053861078,-59.00
2025-12-25 17:00:05.364450,599620128053861078,-66.00
2025-12-25 17:00:05.364450,599620128053861078,-68.00
2025-12-25 17:00:05.364450,599620128053861078,-62.00
2025-12-25 17:00:05.364450,599620128053861078,-59.00
2025-12-25 17:00:05.364450,599620128053861078,-57.00
2025-12-25 17:00:05.364450,599620128053861078,-50.00
2025-12-25 17:00:05.364450,599620128053861078,-50.00
2025-12-25 17:00:05.364450,599620128053861078,-52.00
2025-12-25 17:00:05.364450,599620128053861078,-52.00
2025-12-25 17:00:05.364450,599620128053861078,-50.00
2025-12-25 17:00:05.364450,599620128053861078,-45.00
2025-12-25 17:00:05.364450,599620128053861078,-52.00
2025-12-25 17:00:05.364450,599620128053861078,-64.00
2025-12-25 17:00:05.364450,599620128053861078,-62.00
2025-12-25 17:00:05.364450,599620128053861078,-62.00
2025-12-25 17:00:05.364450,599620128053861078,-66.00
2025-12-25 17:00:05.364450,599620128053861078,-68.00
2025-12-25 17:00:05.364450,599620128053861078,-71.00
2025-12-25 17:00:05.364450,599620128053861078,-78.00
2025-12-25 17:00:05.364450,599620128053861078,-75.00
2025-12-25 17:00:05.364450,599620128053861078,-75.00
2025-12-25 17:00:05.364450,599620128053861078,-78.00
2025-12-25 17:00:05.364450,599620128053861078,-78.00
2025-12-25 17:00:05.364450,599620128053861078,-78.00
2025-12-25 17:00:05.364450,599620128053861078,-82.00
2025-12-25 17:00:05.364450,599620128053861078,-82.00
2025-12-25 17:00:05.364450,599620128053861078,-82.00
2025-12-25 17:00:05.364450,599620128053861078,-89.00
2025-12-25 17:00:05.364450,599620128053861078,-85.00
2025-12-25 17:00:05.364450,599620128053861078,-71.00
2025-12-25 17:00:05.364450,599620128053861078,-71.00
2025-12-25 17:00:05.364450,599620128053861078,-82.00
2025-12-25 17:00:05.364450,599620128053861078,-87.00
2025-12-25 17:00:05.364450,599620128053861078,-87.00
2025-12-25 17:00:05.364450,599620128053861078,-87.00
2025-12-25 17:00:05.364450,599620128053861078,-85.00
2025-12-25 17:00:05.364450,599620128053861078,-80.00
2025-12-25 17:00:05.364450,599620128053861078,-82.00
2025-12-25 17:00:05.364450,599620128053861078,-89.00
2025-12-25 17:00:05.364450,599620128053861078,-91.00
2025-12-25 17:00:05.364450,599620128053861078,-89.00
2025-12-25 17:00:05.364450,599620128053861078,-85.00
2025-12-25 17:00:05.364450,599620128053861078,-87.00
2025-12-25 17:00:05.364450,599620128053861078,-85.00
2025-12-25 17:00:05.364450,599620128053861078,-80.00
2025-12-25 17:00:05.364450,599620128053861078,-71.00
2025-12-25 17:00:05.364450,599620128053861078,-50.00
2025-12-25 17:00:05.364450,599620128053861078,-45.00
2025-12-25 17:00:05.364450,599620128053861078,-73.00
2025-12-25 17:00:05.364450,599620128053861078,-98.00
2025-12-25 17:00:05.364450,599620128053861078,-96.00
2025-12-25 17:00:05.364450,599620128053861078,-94.00
2025-12-25 17:00:05.364450,599620128053861078,-101.00
2025-12-25 17:00:05.364450,599620128053861078,-101.00
2025-12-25 17:00:05.364450,599620128053861078,-105.00
2025-12-25 17:00:05.364450,599620128053861078,-114.00
2025-12-25 17:00:05.364450,599620128053861078,-112.00
2025-12-25 17:00:05.364450,599620128053861078,-96.00
2025-12-25 17:00:05.364450,599620128053861078,-57.00
2025-12-25 17:00:05.364450,599620128053861078,71.00
2025-12-25 17:00:05.364450,599620128053861078,351.00
2025-12-25 17:00:06.005378,599620128614741231,567.00
2025-12-25 17:00:06.005378,599620128614741231,193.00
2025-12-25 17:00:06.005378,599620128614741231,-696.00
2025-12-25 17:00:06.005378,599620128614741231,-1036.00
2025-12-25 17:00:06.005378,599620128614741231,-517.00
2025-12-25 17:00:06.005378,599620128614741231,-105.00
2025-12-25 17:00:06.005378,599620128614741231,-101.00
2025-12-25 17:00:06.005378,599620128614741231,-64.00
2025-12-25 17:00:06.005378,599620128614741231,6.00
2025-12-25 17:00:06.005378,599620128614741231,-4.00
2025-12-25 17:00:06.005378,599620128614741231,-4.00
2025-12-25 17:00:06.005378,599620128614741231,22.00
2025-12-25 17:00:06.005378,599620128614741231,25.00
2025-12-25 17:00:06.005378,599620128614741231,20.00
2025-12-25 17:00:06.005378,599620128614741231,29.00
2025-12-25 17:00:06.005378,599620128614741231,34.00
2025-12-25 17:00:06.005378,599620128614741231,36.00
2025-12-25 17:00:06.005378,599620128614741231,43.00
2025-12-25 17:00:06.005378,599620128614741231,45.00
2025-12-25 17:00:06.005378,599620128614741231,48.00
2025-12-25 17:00:06.005378,599620128614741231,55.00
2025-12-25 17:00:06.005378,599620128614741231,62.00
2025-12-25 17:00:06.005378,599620128614741231,62.00
2025-12-25 17:00:06.005378,599620128614741231,64.00
2025-12-25 17:00:06.005378,599620128614741231,73.00
2025-12-25 17:00:06.005378,599620128614741231,75.00
2025-12-25 17:00:06.005378,599620128614741231,78.00
2025-12-25 17:00:06.005378,599620128614741231,82.00
2025-12-25 17:00:06.005378,599620128614741231,91.00
2025-12-25 17:00:06.005378,599620128614741231,108.00
2025-12-25 17:00:06.005378,599620128614741231,110.00
2025-12-25 17:00:06.005378,599620128614741231,103.00
2025-12-25 17:00:06.005378,599620128614741231,108.00
2025-12-25 17:00:06.005378,599620128614741231,108.00
2025-12-25 17:00:06.005378,599620128614741231,89.00
2025-12-25 17:00:06.005378,599620128614741231,57.00
2025-12-25 17:00:06.005378,599620128614741231,27.00
2025-12-25 17:00:06.005378,599620128614741231,-6.00
2025-12-25 17:00:06.005378,599620128614741231,-43.00
2025-12-25 17:00:06.005378,599620128614741231,-75.00
2025-12-25 17:00:06.005378,599620128614741231,-96.00
2025-12-25 17:00:06.005378,599620128614741231,-105.00
2025-12-25 17:00:06.005378,599620128614741231,-110.00
2025-12-25 17:00:06.005378,599620128614741231,-112.00
2025-12-25 17:00:06.005378,599620128614741231,-117.00
2025-12-25 17:00:06.005378,599620128614741231,-114.00
2025-12-25 17:00:06.005378,599620128614741231,-110.00
2025-12-25 17:00:06.005378,599620128614741231,-110.00
2025-12-25 17:00:06.005378,599620128614741231,-112.00
2025-12-25 17:00:06.005378,599620128614741231,-108.00
2025-12-25 17:00:06.005378,599620128614741231,-105.00
2025-12-25 17:00:06.005378,599620128614741231,-103.00
2025-12-25 17:00:06.005378,599620128614741231,-101.00
2025-12-25 17:00:06.005378,599620128614741231,-96.00
2025-12-25 17:00:06.005378,599620128614741231,-91.00
2025-12-25 17:00:06.005378,599620128614741231,-94.00
2025-12-25 17:00:06.005378,599620128614741231,-94.00
2025-12-25 17:00:06.005378,599620128614741231,-89.00
2025-12-25 17:00:06.005378,599620128614741231,-87.00
2025-12-25 17:00:06.005378,599620128614741231,-85.00
2025-12-25 17:00:06.005378,599620128614741231,-85.00
2025-12-25 17:00:06.005378,599620128614741231,-87.00
2025-12-25 17:00:06.005378,599620128614741231,-91.00
2025-12-25 17:00:06.005378,599620128614741231,-85.00
2025-12-25 17:00:06.005378,599620128614741231,-75.00
2025-12-25 17:00:06.005378,599620128614741231,-80.00
2025-12-25 17:00:06.005378,599620128614741231,-85.00
2025-12-25 17:00:06.005378,599620128614741231,-85.00
2025-12-25 17:00:06.005378,599620128614741231,-87.00
2025-12-25 17:00:06.005378,599620128614741231,-91.00
2025-12-25 17:00:06.005378,599620128614741231,-94.00
2025-12-25 17:00:06.005378,599620128614741231,-98.00
2025-12-25 17:00:06.005378,599620128614741231,-101.00
2025-12-25 17:00:06.637357,599620129175621380,-96.00
2025-12-25 17:00:06.637357,599620129175621380,-89.00
2025-12-25 17:00:06.637357,599620129175621380,-85.00
2025-12-25 17:00:06.637357,599620129175621380,-80.00
2025-12-25 17:00:06.637357,599620129175621380,-78.00
2025-12-25 17:00:06.637357,599620129175621380,-80.00
2025-12-25 17:00:06.637357,599620129175621380,-82.00
2025-12-25 17:00:06.637357,599620129175621380,-82.00
2025-12-25 17:00:06.637357,599620129175621380,-82.00
2025-12-25 17:00:06.637357,599620129175621380,-85.00
2025-12-25 17:00:06.637357,599620129175621380,-82.00
2025-12-25 17:00:06.637357,599620129175621380,-68.00
2025-12-25 17:00:06.637357,599620129175621380,-62.00
2025-12-25 17:00:06.637357,599620129175621380,-71.00
2025-12-25 17:00:06.637357,599620129175621380,-71.00
2025-12-25 17:00:06.637357,599620129175621380,-66.00
2025-12-25 17:00:06.637357,599620129175621380,-66.00
2025-12-25 17:00:06.637357,599620129175621380,-62.00
2025-12-25 17:00:06.637357,599620129175621380,-57.00
2025-12-25 17:00:06.637357,599620129175621380,-59.00
2025-12-25 17:00:06.637357,599620129175621380,-68.00
2025-12-25 17:00:06.637357,599620129175621380,-71.00
2025-12-25 17:00:06.637357,599620129175621380,-64.00
2025-12-25 17:00:06.637357,599620129175621380,-57.00
2025-12-25 17:00:06.637357,599620129175621380,-62.00
2025-12-25 17:00:06.637357,599620129175621380,-71.00
2025-12-25 17:00:06.637357,599620129175621380,-71.00
2025-12-25 17:00:06.637357,599620129175621380,-68.00
2025-12-25 17:00:06.637357,599620129175621380,-59.00
2025-12-25 17:00:06.637357,599620129175621380,-50.00
2025-12-25 17:00:06.637357,599620129175621380,-48.00
2025-12-25 17:00:06.637357,599620129175621380,-36.00
2025-12-25 17:00:06.637357,599620129175621380,-36.00
2025-12-25 17:00:06.637357,599620129175621380,-64.00
2025-12-25 17:00:06.637357,599620129175621380,-82.00
2025-12-25 17:00:06.637357,599620129175621380,-73.00
2025-12-25 17:00:06.637357,599620129175621380,-73.00
2025-12-25 17:00:06.637357,599620129175621380,-85.00
2025-12-25 17:00:06.637357,599620129175621380,-85.00
2025-12-25 17:00:06.637357,599620129175621380,-80.00
2025-12-25 17:00:06.637357,599620129175621380,-82.00
2025-12-25 17:00:06.637357,599620129175621380,-85.00
2025-12-25 17:00:06.637357,599620129175621380,-85.00
2025-12-25 17:00:06.637357,599620129175621380,-55.00
2025-12-25 17:00:06.637357,599620129175621380,91.00
2025-12-25 17:00:06.637357,599620129175621380,393.00
2025-12-25 17:00:06.637357,599620129175621380,581.00
2025-12-25 17:00:06.637357,599620129175621380,147.00
2025-12-25 17:00:06.637357,599620129175621380,-744.00
2025-12-25 17:00:06.637357,599620129175621380,-1025.00
2025-12-25 17:00:06.637357,599620129175621380,-503.00
2025-12-25 17:00:06.637357,599620129175621380,-124.00
2025-12-25 17:00:06.637357,599620129175621380,-108.00
2025-12-25 17:00:06.637357,599620129175621380,-62.00
2025-12-25 17:00:06.637357,599620129175621380,-4.00
2025-12-25 17:00:06.637357,599620129175621380,-18.00
2025-12-25 17:00:06.637357,599620129175621380,-9.00
2025-12-25 17:00:06.637357,599620129175621380,16.00
2025-12-25 17:00:06.637357,599620129175621380,11.00
2025-12-25 17:00:06.637357,599620129175621380,6.00
2025-12-25 17:00:06.637357,599620129175621380,16.00
2025-12-25 17:00:06.637357,599620129175621380,20.00
2025-12-25 17:00:06.637357,599620129175621380,20.00
2025-12-25 17:00:06.637357,599620129175621380,29.00
2025-12-25 17:00:06.637357,599620129175621380,39.00
2025-12-25 17:00:06.637357,599620129175621380,36.00
2025-12-25 17:00:06.637357,599620129175621380,34.00
2025-12-25 17:00:06.637357,599620129175621380,41.00
2025-12-25 17:00:06.637357,599620129175621380,52.00
2025-12-25 17:00:06.637357,599620129175621380,64.00
2025-12-25 17:00:06.637357,599620129175621380,66.00
2025-12-25 17:00:06.637357,599620129175621380,68.00
2025-12-25 17:00:06.637357,599620129175621380,78.00
2025-12-25 17:00:07.130911,599620129736486269,89.00
2025-12-25 17:00:07.130911,599620129736486269,96.00
2025-12-25 17:00:07.130911,599620129736486269,105.00
2025-12-25 17:00:07.130911,599620129736486269,105.00
2025-12-25 17:00:07.130911,599620129736486269,105.00
2025-12-25 17:00:07.130911,599620129736486269,103.00
2025-12-25 17:00:07.130911,599620129736486269,94.00
2025-12-25 17:00:07.130911,599620129736486269,85.00
2025-12-25 17:00:07.130911,599620129736486269,71.00
2025-12-25 17:00:07.130911,599620129736486269,43.00
2025-12-25 17:00:07.130911,599620129736486269,9.00
2025-12-25 17:00:07.130911,599620129736486269,-29.00
2025-12-25 17:00:07.130911,599620129736486269,-62.00
2025-12-25 17:00:07.130911,599620129736486269,-78.00
2025-12-25 17:00:07.130911,599620129736486269,-85.00
2025-12-25 17:00:07.130911,599620129736486269,-91.00
2025-12-25 17:00:07.130911,599620129736486269,-98.00
2025-12-25 17:00:07.130911,599620129736486269,-105.00
2025-12-25 17:00:07.130911,599620129736486269,-110.00
2025-12-25 17:00:07.130911,599620129736486269,-108.00
2025-12-25 17:00:07.130911,599620129736486269,-98.00
2025-12-25 17:00:07.130911,599620129736486269,-96.00
2025-12-25 17:00:07.130911,599620129736486269,-94.00
2025-12-25 17:00:07.130911,599620129736486269,-94.00
2025-12-25 17:00:07.130911,599620129736486269,-101.00
2025-12-25 17:00:07.130911,599620129736486269,-94.00
2025-12-25 17:00:07.130911,599620129736486269,-78.00
2025-12-25 17:00:07.130911,599620129736486269,-71.00
2025-12-25 17:00:07.130911,599620129736486269,-71.00
2025-12-25 17:00:07.130911,599620129736486269,-73.00
2025-12-25 17:00:07.130911,599620129736486269,-73.00
2025-12-25 17:00:07.130911,599620129736486269,-66.00
2025-12-25 17:00:07.130911,599620129736486269,-57.00
2025-12-25 17:00:07.130911,599620129736486269,-64.00
2025-12-25 17:00:07.130911,599620129736486269,-73.00
2025-12-25 17:00:07.130911,599620129736486269,-75.00
2025-12-25 17:00:07.130911,599620129736486269,-75.00
2025-12-25 17:00:07.130911,599620129736486269,-78.00
2025-12-25 17:00:07.130911,599620129736486269,-71.00
2025-12-25 17:00:07.130911,599620129736486269,-71.00
2025-12-25 17:00:07.130911,599620129736486269,-80.00
2025-12-25 17:00:07.130911,599620129736486269,-85.00
2025-12-25 17:00:07.130911,599620129736486269,-82.00
2025-12-25 17:00:07.130911,599620129736486269,-82.00
2025-12-25 17:00:07.130911,599620129736486269,-82.00
2025-12-25 17:00:07.130911,599620129736486269,-85.00
2025-12-25 17:00:07.130911,599620129736486269,-82.00
2025-12-25 17:00:07.130911,599620129736486269,-75.00
2025-12-25 17:00:07.130911,599620129736486269,-78.00
2025-12-25 17:00:07.130911,599620129736486269,-78.00
2025-12-25 17:00:07.130911,599620129736486269,-73.00
2025-12-25 17:00:07.130911,599620129736486269,-78.00
2025-12-25 17:00:07.130911,599620129736486269,-85.00
2025-12-25 17:00:07.130911,599620129736486269,-87.00
2025-12-25 17:00:07.130911,599620129736486269,-82.00
2025-12-25 17:00:07.130911,599620129736486269,-73.00
2025-12-25 17:00:07.130911,599620129736486269,-78.00
2025-12-25 17:00:07.130911,599620129736486269,-87.00
2025-12-25 17:00:07.130911,599620129736486269,-87.00
2025-12-25 17:00:07.130911,599620129736486269,-85.00
2025-12-25 17:00:07.130911,599620129736486269,-87.00
2025-12-25 17:00:07.130911,599620129736486269,-80.00
2025-12-25 17:00:07.130911,599620129736486269,-68.00
2025-12-25 17:00:07.130911,599620129736486269,-73.00
2025-12-25 17:00:07.130911,599620129736486269,-80.00
2025-12-25 17:00:07.130911,599620129736486269,-85.00
2025-12-25 17:00:07.130911,599620129736486269,-89.00
2025-12-25 17:00:07.130911,599620129736486269,-85.00
2025-12-25 17:00:07.130911,599620129736486269,-75.00
2025-12-25 17:00:07.130911,599620129736486269,-73.00
2025-12-25 17:00:07.130911,599620129736486269,-78.00
2025-12-25 17:00:07.130911,599620129736486269,-75.00
2025-12-25 17:00:07.130911,599620129736486269,-68.00
2025-12-25 17:00:07.623860,599620130297351160,-68.00
2025-12-25 17:00:07.623860,599620130297351160,-66.00
2025-12-25 17:00:07.623860,599620130297351160,-59.00
2025-12-25 17:00:07.623860,599620130297351160,-45.00
2025-12-25 17:00:07.623860,599620130297351160,-29.00
2025-12-25 17:00:07.623860,599620130297351160,-39.00
2025-12-25 17:00:07.623860,599620130297351160,-59.00
2025-12-25 17:00:07.623860,599620130297351160,-64.00
2025-12-25 17:00:07.623860,599620130297351160,-75.00
2025-12-25 17:00:07.623860,599620130297351160,-94.00
2025-12-25 17:00:07.623860,599620130297351160,-91.00
2025-12-25 17:00:07.623860,599620130297351160,-66.00
2025-12-25 17:00:07.623860,599620130297351160,-50.00
2025-12-25 17:00:07.623860,599620130297351160,-50.00
2025-12-25 17:00:07.623860,599620130297351160,-52.00
2025-12-25 17:00:07.623860,599620130297351160,-34.00
2025-12-25 17:00:07.623860,599620130297351160,66.00
2025-12-25 17:00:07.623860,599620130297351160,319.00
2025-12-25 17:00:07.623860,599620130297351160,590.00
2025-12-25 17:00:07.623860,599620130297351160,397.00
2025-12-25 17:00:07.623860,599620130297351160,-443.00
2025-12-25 17:00:07.623860,599620130297351160,-1018.00
2025-12-25 17:00:07.623860,599620130297351160,-648.00
2025-12-25 17:00:07.623860,599620130297351160,-142.00
2025-12-25 17:00:07.623860,599620130297351160,-66.00
2025-12-25 17:00:07.623860,599620130297351160,-50.00
2025-12-25 17:00:07.623860,599620130297351160,9.00
2025-12-25 17:00:07.623860,599620130297351160,2.00
2025-12-25 17:00:07.623860,599620130297351160,-2.00
2025-12-25 17:00:07.623860,599620130297351160,13.00
2025-12-25 17:00:07.623860,599620130297351160,18.00
2025-12-25 17:00:07.623860,599620130297351160,18.00
2025-12-25 17:00:07.623860,599620130297351160,16.00
2025-12-25 17:00:07.623860,599620130297351160,11.00
2025-12-25 17:00:07.623860,599620130297351160,13.00
2025-12-25 17:00:07.623860,599620130297351160,27.00
2025-12-25 17:00:07.623860,599620130297351160,36.00
2025-12-25 17:00:07.623860,599620130297351160,34.00
2025-12-25 17:00:07.623860,599620130297351160,36.00
2025-12-25 17:00:07.623860,599620130297351160,48.00
2025-12-25 17:00:07.623860,599620130297351160,57.00
2025-12-25 17:00:07.623860,599620130297351160,62.00
2025-12-25 17:00:07.623860,599620130297351160,66.00
2025-12-25 17:00:07.623860,599620130297351160,66.00
2025-12-25 17:00:07.623860,599620130297351160,62.00
2025-12-25 17:00:07.623860,599620130297351160,68.00
2025-12-25 17:00:07.623860,599620130297351160,87.00
2025-12-25 17:00:07.623860,599620130297351160,89.00
2025-12-25 17:00:07.623860,599620130297351160,94.00
2025-12-25 17:00:07.623860,599620130297351160,103.00
2025-12-25 17:00:07.623860,599620130297351160,96.00
2025-12-25 17:00:07.623860,599620130297351160,89.00
2025-12-25 17:00:07.623860,599620130297351160,80.00
2025-12-25 17:00:07.623860,599620130297351160,66.00
2025-12-25 17:00:07.623860,599620130297351160,45.00
2025-12-25 17:00:07.623860,599620130297351160,9.00
2025-12-25 17:00:07.623860,599620130297351160,-34.00
2025-12-25 17:00:07.623860,599620130297351160,-66.00
2025-12-25 17:00:07.623860,599620130297351160,-78.00
2025-12-25 17:00:07.623860,599620130297351160,-89.00
2025-12-25 17:00:07.623860,599620130297351160,-103.00
2025-12-25 17:00:07.623860,599620130297351160,-108.00
2025-12-25 17:00:07.623860,599620130297351160,-105.00
2025-12-25 17:00:07.623860,599620130297351160,-112.00
2025-12-25 17:00:07.623860,599620130297351160,-117.00
2025-12-25 17:00:07.623860,599620130297351160,-112.00
2025-12-25 17:00:07.623860,599620130297351160,-101.00
2025-12-25 17:00:07.623860,599620130297351160,-98.00
2025-12-25 17:00:07.623860,599620130297351160,-101.00
2025-12-25 17:00:07.623860,599620130297351160,-89.00
2025-12-25 17:00:07.623860,599620130297351160,-80.00
2025-12-25 17:00:07.623860,599620130297351160,-80.00
2025-12-25 17:00:07.623860,599620130297351160,-80.00
2025-12-25 17:00:08.249282,599620130858231309,-82.00
2025-12-25 17:00:08.249282,599620130858231309,-87.00
2025-12-25 17:00:08.249282,599620130858231309,-85.00
2025-12-25 17:00:08.249282,599620130858231309,-75.00
2025-12-25 17:00:08.249282,599620130858231309,-71.00
2025-12-25 17:00:08.249282,599620130858231309,-66.00
2025-12-25 17:00:08.249282,599620130858231309,-66.00
2025-12-25 17:00:08.249282,599620130858231309,-75.00
2025-12-25 17:00:08.249282,599620130858231309,-75.00
2025-12-25 17:00:08.249282,599620130858231309,-59.00
2025-12-25 17:00:08.249282,599620130858231309,-55.00
2025-12-25 17:00:08.249282,599620130858231309,-66.00
2025-12-25 17:00:08.249282,599620130858231309,-71.00
2025-12-25 17:00:08.249282,599620130858231309,-68.00
2025-12-25 17:00:08.249282,599620130858231309,-71.00
2025-12-25 17:00:08.249282,599620130858231309,-71.00
2025-12-25 17:00:08.249282,599620130858231309,-62.00
2025-12-25 17:00:08.249282,599620130858231309,-68.00
2025-12-25 17:00:08.249282,599620130858231309,-82.00
2025-12-25 17:00:08.249282,599620130858231309,-80.00
2025-12-25 17:00:08.249282,599620130858231309,-71.00
2025-12-25 17:00:08.249282,599620130858231309,-80.00
2025-12-25 17:00:08.249282,599620130858231309,-85.00
2025-12-25 17:00:08.249282,599620130858231309,-78.00
2025-12-25 17:00:08.249282,599620130858231309,-78.00
2025-12-25 17:00:08.249282,599620130858231309,-85.00
2025-12-25 17:00:08.249282,599620130858231309,-80.00
2025-12-25 17:00:08.249282,599620130858231309,-66.00
2025-12-25 17:00:08.249282,599620130858231309,-64.00
2025-12-25 17:00:08.249282,599620130858231309,-68.00
2025-12-25 17:00:08.249282,599620130858231309,-68.00
2025-12-25 17:00:08.249282,599620130858231309,-66.00
2025-12-25 17:00:08.249282,599620130858231309,-66.00
2025-12-25 17:00:08.249282,599620130858231309,-66.00
2025-12-25 17:00:08.249282,599620130858231309,-71.00
2025-12-25 17:00:08.249282,599620130858231309,-73.00
2025-12-25 17:00:08.249282,599620130858231309,-71.00
2025-12-25 17:00:08.249282,599620130858231309,-73.00
2025-12-25 17:00:08.249282,599620130858231309,-75.00
2025-12-25 17:00:08.249282,599620130858231309,-68.00
2025-12-25 17:00:08.249282,599620130858231309,-71.00
2025-12-25 17:00:08.249282,599620130858231309,-80.00
2025-12-25 17:00:08.249282,599620130858231309,-82.00
2025-12-25 17:00:08.249282,599620130858231309,-75.00
2025-12-25 17:00:08.249282,599620130858231309,-62.00
2025-12-25 17:00:08.249282,599620130858231309,-48.00
2025-12-25 17:00:08.249282,599620130858231309,-36.00
2025-12-25 17:00:08.249282,599620130858231309,-20.00
2025-12-25 17:00:08.249282,599620130858231309,-11.00
2025-12-25 17:00:08.249282,599620130858231309,-25.00
2025-12-25 17:00:08.249282,599620130858231309,-45.00
2025-12-25 17:00:08.249282,599620130858231309,-52.00
2025-12-25 17:00:08.249282,599620130858231309,-57.00
2025-12-25 17:00:08.249282,599620130858231309,-66.00
2025-12-25 17:00:08.249282,599620130858231309,-68.00
2025-12-25 17:00:08.249282,599620130858231309,-66.00
2025-12-25 17:00:08.249282,599620130858231309,-68.00
2025-12-25 17:00:08.249282,599620130858231309,-73.00
2025-12-25 17:00:08.249282,599620130858231309,-68.00
2025-12-25 17:00:08.249282,599620130858231309,-59.00
2025-12-25 17:00:08.249282,599620130858231309,20.00
2025-12-25 17:00:08.249282,599620130858231309,255.00
2025-12-25 17:00:08.249282,599620130858231309,544.00
2025-12-25 17:00:08.249282,599620130858231309,457.00
2025-12-25 17:00:08.249282,599620130858231309,-310.00
2025-12-25 17:00:08.249282,599620130858231309,-1009.00
2025-12-25 17:00:08.249282,599620130858231309,-760.00
2025-12-25 17:00:08.249282,599620130858231309,-200.00
2025-12-25 17:00:08.249282,599620130858231309,-78.00
2025-12-25 17:00:08.249282,599620130858231309,-89.00
2025-12-25 17:00:08.249282,599620130858231309,-20.00
2025-12-25 17:00:08.249282,599620130858231309,-13.00
2025-12-25 17:00:08.249282,599620130858231309,-32.00
2025-12-25 17:00:08.740602,599620131419111456,-13.00
2025-12-25 17:00:08.740602,599620131419111456,-4.00
2025-12-25 17:00:08.740602,599620131419111456,-9.00
2025-12-25 17:00:08.740602,599620131419111456,-4.00
2025-12-25 17:00:08.740602,599620131419111456,-4.00
2025-12-25 17:00:08.740602,599620131419111456,2.00
2025-12-25 17:00:08.740602,599620131419111456,22.00
2025-12-25 17:00:08.740602,599620131419111456,29.00
2025-12-25 17:00:08.740602,599620131419111456,22.00
2025-12-25 17:00:08.740602,599620131419111456,27.00
2025-12-25 17:00:08.740602,599620131419111456,39.00
2025-12-25 17:00:08.740602,599620131419111456,43.00
2025-12-25 17:00:08.740602,599620131419111456,52.00
2025-12-25 17:00:08.740602,599620131419111456,57.00
2025-12-25 17:00:08.740602,599620131419111456,57.00
2025-12-25 17:00:08.740602,599620131419111456,68.00
2025-12-25 17:00:08.740602,599620131419111456,82.00
2025-12-25 17:00:08.740602,599620131419111456,96.00
2025-12-25 17:00:08.740602,599620131419111456,119.00
2025-12-25 17:00:08.740602,599620131419111456,133.00
2025-12-25 17:00:08.740602,599620131419111456,126.00
2025-12-25 17:00:08.740602,599620131419111456,112.00
2025-12-25 17:00:08.740602,599620131419111456,114.00
2025-12-25 17:00:08.740602,599620131419111456,112.00
2025-12-25 17:00:08.740602,599620131419111456,98.00
2025-12-25 17:00:08.740602,599620131419111456,78.00
2025-12-25 17:00:08.740602,599620131419111456,25.00
2025-12-25 17:00:08.740602,599620131419111456,-39.00
2025-12-25 17:00:08.740602,599620131419111456,-66.00
2025-12-25 17:00:08.740602,599620131419111456,-73.00
2025-12-25 17:00:08.740602,599620131419111456,-91.00
2025-12-25 17:00:08.740602,599620131419111456,-108.00
2025-12-25 17:00:08.740602,599620131419111456,-98.00
2025-12-25 17:00:08.740602,599620131419111456,-96.00
2025-12-25 17:00:08.740602,599620131419111456,-105.00
2025-12-25 17:00:08.740602,599620131419111456,-108.00
2025-12-25 17:00:08.740602,599620131419111456,-108.00
2025-12-25 17:00:08.740602,599620131419111456,-112.00
2025-12-25 17:00:08.740602,599620131419111456,-103.00
2025-12-25 17:00:08.740602,599620131419111456,-82.00
2025-12-25 17:00:08.740602,599620131419111456,-75.00
2025-12-25 17:00:08.740602,599620131419111456,-87.00
2025-12-25 17:00:08.740602,599620131419111456,-87.00
2025-12-25 17:00:08.740602,599620131419111456,-75.00
2025-12-25 17:00:08.740602,599620131419111456,-75.00
2025-12-25 17:00:08.740602,599620131419111456,-89.00
2025-12-25 17:00:08.740602,599620131419111456,-94.00
2025-12-25 17:00:08.740602,599620131419111456,-82.00
2025-12-25 17:00:08.740602,599620131419111456,-78.00
2025-12-25 17:00:08.740602,599620131419111456,-80.00
2025-12-25 17:00:08.740602,599620131419111456,-73.00
2025-12-25 17:00:08.740602,599620131419111456,-66.00
2025-12-25 17:00:08.740602,599620131419111456,-68.00
2025-12-25 17:00:08.740602,599620131419111456,-75.00
2025-12-25 17:00:08.740602,599620131419111456,-78.00
2025-12-25 17:00:08.740602,599620131419111456,-78.00
2025-12-25 17:00:08.740602,599620131419111456,-82.00
2025-12-25 17:00:08.740602,599620131419111456,-87.00
2025-12-25 17:00:08.740602,599620131419111456,-94.00
2025-12-25 17:00:08.740602,599620131419111456,-94.00
2025-12-25 17:00:08.740602,599620131419111456,-89.00
2025-12-25 17:00:08.740602,599620131419111456,-89.00
2025-12-25 17:00:08.740602,599620131419111456,-96.00
2025-12-25 17:00:08.740602,599620131419111456,-103.00
2025-12-25 17:00:08.740602,599620131419111456,-98.00
2025-12-25 17:00:08.740602,599620131419111456,-96.00
2025-12-25 17:00:08.740602,599620131419111456,-98.00
2025-12-25 17:00:08.740602,599620131419111456,-98.00
2025-12-25 17:00:08.740602,599620131419111456,-94.00
2025-12-25 17:00:08.740602,599620131419111456,-85.00
2025-12-25 17:00:08.740602,599620131419111456,-80.00
2025-12-25 17:00:08.740602,599620131419111456,-87.00
2025-12-25 17:00:08.740602,599620131419111456,-96.00
2025-12-25 17:00:09.361608,599620131979991609,-91.00
2025-12-25 17:00:09.361608,599620131979991609,-94.00
2025-12-25 17:00:09.361608,599620131979991609,-94.00
2025-12-25 17:00:09.361608,599620131979991609,-80.00
2025-12-25 17:00:09.361608,599620131979991609,-68.00
2025-12-25 17:00:09.361608,599620131979991609,-73.00
2025-12-25 17:00:09.361608,599620131979991609,-80.00
2025-12-25 17:00:09.361608,599620131979991609,-82.00
2025-12-25 17:00:09.361608,599620131979991609,-82.00
2025-12-25 17:00:09.361608,599620131979991609,-75.00
2025-12-25 17:00:09.361608,599620131979991609,-66.00
2025-12-25 17:00:09.361608,599620131979991609,-50.00
2025-12-25 17:00:09.361608,599620131979991609,-34.00
2025-12-25 17:00:09.361608,599620131979991609,-25.00
2025-12-25 17:00:09.361608,599620131979991609,-34.00
2025-12-25 17:00:09.361608,599620131979991609,-57.00
2025-12-25 17:00:09.361608,599620131979991609,-68.00
2025-12-25 17:00:09.361608,599620131979991609,-68.00
2025-12-25 17:00:09.361608,599620131979991609,-68.00
2025-12-25 17:00:09.361608,599620131979991609,-75.00
2025-12-25 17:00:09.361608,599620131979991609,-78.00
2025-12-25 17:00:09.361608,599620131979991609,-75.00
2025-12-25 17:00:09.361608,599620131979991609,-78.00
2025-12-25 17:00:09.361608,599620131979991609,-85.00
2025-12-25 17:00:09.361608,599620131979991609,-75.00
2025-12-25 17:00:09.361608,599620131979991609,20.00
2025-12-25 17:00:09.361608,599620131979991609,268.00
2025-12-25 17:00:09.361608,599620131979991609,560.00
2025-12-25 17:00:09.361608,599620131979991609,448.00
2025-12-25 17:00:09.361608,599620131979991609,-351.00
2025-12-25 17:00:09.361608,599620131979991609,-1032.00
2025-12-25 17:00:09.361608,599620131979991609,-756.00
2025-12-25 17:00:09.361608,599620131979991609,-209.00
2025-12-25 17:00:09.361608,599620131979991609,-94.00
2025-12-25 17:00:09.361608,599620131979991609,-85.00
2025-12-25 17:00:09.361608,599620131979991609,-2.00
2025-12-25 17:00:09.361608,599620131979991609,0.00
2025-12-25 17:00:09.361608,599620131979991609,-32.00
2025-12-25 17:00:09.361608,599620131979991609,-13.00
2025-12-25 17:00:09.361608,599620131979991609,6.00
2025-12-25 17:00:09.361608,599620131979991609,0.00
2025-12-25 17:00:09.361608,599620131979991609,0.00
2025-12-25 17:00:09.361608,599620131979991609,11.00
2025-12-25 17:00:09.361608,599620131979991609,22.00
2025-12-25 17:00:09.361608,599620131979991609,20.00
2025-12-25 17:00:09.361608,599620131979991609,20.00
2025-12-25 17:00:09.361608,599620131979991609,27.00
2025-12-25 17:00:09.361608,599620131979991609,32.00
2025-12-25 17:00:09.361608,599620131979991609,32.00
2025-12-25 17:00:09.361608,599620131979991609,34.00
2025-12-25 17:00:09.361608,599620131979991609,41.00
2025-12-25 17:00:09.361608,599620131979991609,48.00
2025-12-25 17:00:09.361608,599620131979991609,50.00
2025-12-25 17:00:09.361608,599620131979991609,57.00
2025-12-25 17:00:09.361608,599620131979991609,66.00
2025-12-25 17:00:09.361608,599620131979991609,73.00
2025-12-25 17:00:09.361608,599620131979991609,87.00
2025-12-25 17:00:09.361608,599620131979991609,96.00
2025-12-25 17:00:09.361608,599620131979991609,91.00
2025-12-25 17:00:09.361608,599620131979991609,87.00
2025-12-25 17:00:09.361608,599620131979991609,85.00
2025-12-25 17:00:09.361608,599620131979991609,73.00
2025-12-25 17:00:09.361608,599620131979991609,52.00
2025-12-25 17:00:09.361608,599620131979991609,22.00
2025-12-25 17:00:09.361608,599620131979991609,-13.00
2025-12-25 17:00:09.361608,599620131979991609,-50.00
2025-12-25 17:00:09.361608,599620131979991609,-78.00
2025-12-25 17:00:09.361608,599620131979991609,-101.00
2025-12-25 17:00:09.361608,599620131979991609,-114.00
2025-12-25 17:00:09.361608,599620131979991609,-121.00
2025-12-25 17:00:09.361608,599620131979991609,-126.00
2025-12-25 17:00:09.361608,599620131979991609,-128.00
2025-12-25 17:00:09.361608,599620131979991609,-131.00
2025-12-25 17:00:09.855677,599620132540851412,-131.00
2025-12-25 17:00:09.855677,599620132540851412,-128.00
2025-12-25 17:00:09.855677,599620132540851412,-119.00
2025-12-25 17:00:09.855677,599620132540851412,-112.00
2025-12-25 17:00:09.855677,599620132540851412,-112.00
2025-12-25 17:00:09.855677,599620132540851412,-108.00
2025-12-25 17:00:09.855677,599620132540851412,-105.00
2025-12-25 17:00:09.855677,599620132540851412,-108.00
2025-12-25 17:00:09.855677,599620132540851412,-103.00
2025-12-25 17:00:09.855677,599620132540851412,-96.00
2025-12-25 17:00:09.855677,599620132540851412,-98.00
2025-12-25 17:00:09.855677,599620132540851412,-96.00
2025-12-25 17:00:09.855677,599620132540851412,-80.00
2025-12-25 17:00:09.855677,599620132540851412,-68.00
2025-12-25 17:00:09.855677,599620132540851412,-71.00
2025-12-25 17:00:09.855677,599620132540851412,-75.00
2025-12-25 17:00:09.855677,599620132540851412,-75.00
2025-12-25 17:00:09.855677,599620132540851412,-78.00
2025-12-25 17:00:09.855677,599620132540851412,-73.00
2025-12-25 17:00:09.855677,599620132540851412,-71.00
2025-12-25 17:00:09.855677,599620132540851412,-78.00
2025-12-25 17:00:09.855677,599620132540851412,-82.00
2025-12-25 17:00:09.855677,599620132540851412,-80.00
2025-12-25 17:00:09.855677,599620132540851412,-73.00
2025-12-25 17:00:09.855677,599620132540851412,-66.00
2025-12-25 17:00:09.855677,599620132540851412,-71.00
2025-12-25 17:00:09.855677,599620132540851412,-78.00
2025-12-25 17:00:09.855677,599620132540851412,-75.00
2025-12-25 17:00:09.855677,599620132540851412,-73.00
2025-12-25 17:00:09.855677,599620132540851412,-78.00
2025-12-25 17:00:09.855677,599620132540851412,-78.00
2025-12-25 17:00:09.855677,599620132540851412,-75.00
2025-12-25 17:00:09.855677,599620132540851412,-75.00
2025-12-25 17:00:09.855677,599620132540851412,-73.00
2025-12-25 17:00:09.855677,599620132540851412,-71.00
2025-12-25 17:00:09.855677,599620132540851412,-71.00
2025-12-25 17:00:09.855677,599620132540851412,-73.00
2025-12-25 17:00:09.855677,599620132540851412,-75.00
2025-12-25 17:00:09.855677,599620132540851412,-78.00
2025-12-25 17:00:09.855677,599620132540851412,-82.00
2025-12-25 17:00:09.855677,599620132540851412,-78.00
2025-12-25 17:00:09.855677,599620132540851412,-73.00
2025-12-25 17:00:09.855677,599620132540851412,-73.00
2025-12-25 17:00:09.855677,599620132540851412,-71.00
2025-12-25 17:00:09.855677,599620132540851412,-71.00
2025-12-25 17:00:09.855677,599620132540851412,-80.00
2025-12-25 17:00:09.855677,599620132540851412,-85.00
2025-12-25 17:00:09.855677,599620132540851412,-75.00
2025-12-25 17:00:09.855677,599620132540851412,-66.00
2025-12-25 17:00:09.855677,599620132540851412,-59.00
2025-12-25 17:00:09.855677,599620132540851412,-45.00
2025-12-25 17:00:09.855677,599620132540851412,-48.00
2025-12-25 17:00:09.855677,599620132540851412,-64.00
2025-12-25 17:00:09.855677,599620132540851412,-73.00
2025-12-25 17:00:09.855677,599620132540851412,-78.00
2025-12-25 17:00:09.855677,599620132540851412,-85.00
2025-12-25 17:00:09.855677,599620132540851412,-87.00
2025-12-25 17:00:09.855677,599620132540851412,-82.00
2025-12-25 17:00:09.855677,599620132540851412,-82.00
2025-12-25 17:00:09.855677,599620132540851412,-82.00
2025-12-25 17:00:09.855677,599620132540851412,-80.00
2025-12-25 17:00:09.855677,599620132540851412,-68.00
2025-12-25 17:00:09.855677,599620132540851412,2.00
2025-12-25 17:00:09.855677,599620132540851412,213.00
2025-12-25 17:00:09.855677,599620132540851412,514.00
2025-12-25 17:00:09.855677,599620132540851412,505.00
2025-12-25 17:00:09.855677,599620132540851412,-225.00
2025-12-25 17:00:09.855677,599620132540851412,-995.00
2025-12-25 17:00:09.855677,599620132540851412,-793.00
2025-12-25 17:00:09.855677,599620132540851412,-190.00
2025-12-25 17:00:09.855677,599620132540851412,-52.00
2025-12-25 17:00:09.855677,599620132540851412,-87.00
2025-12-25 17:00:09.855677,599620132540851412,-22.00
2025-12-25 17:00:10.552100,599620133101736647,-9.00
2025-12-25 17:00:10.552100,599620133101736647,-27.00
2025-12-25 17:00:10.552100,599620133101736647,-9.00
2025-12-25 17:00:10.552100,599620133101736647,2.00
2025-12-25 17:00:10.552100,599620133101736647,0.00
2025-12-25 17:00:10.552100,599620133101736647,6.00
2025-12-25 17:00:10.552100,599620133101736647,11.00
2025-12-25 17:00:10.552100,599620133101736647,11.00
2025-12-25 17:00:10.552100,599620133101736647,13.00
2025-12-25 17:00:10.552100,599620133101736647,25.00
2025-12-25 17:00:10.552100,599620133101736647,36.00
2025-12-25 17:00:10.552100,599620133101736647,41.00
2025-12-25 17:00:10.552100,599620133101736647,41.00
2025-12-25 17:00:10.552100,599620133101736647,45.00
2025-12-25 17:00:10.552100,599620133101736647,52.00
2025-12-25 17:00:10.552100,599620133101736647,66.00
2025-12-25 17:00:10.552100,599620133101736647,82.00
2025-12-25 17:00:10.552100,599620133101736647,87.00
2025-12-25 17:00:10.552100,599620133101736647,91.00
2025-12-25 17:00:10.552100,599620133101736647,101.00
2025-12-25 17:00:10.552100,599620133101736647,110.00
2025-12-25 17:00:10.552100,599620133101736647,121.00
2025-12-25 17:00:10.552100,599620133101736647,126.00
2025-12-25 17:00:10.552100,599620133101736647,126.00
2025-12-25 17:00:10.552100,599620133101736647,126.00
2025-12-25 17:00:10.552100,599620133101736647,119.00
2025-12-25 17:00:10.552100,599620133101736647,98.00
2025-12-25 17:00:10.552100,599620133101736647,66.00
2025-12-25 17:00:10.552100,599620133101736647,27.00
2025-12-25 17:00:10.552100,599620133101736647,-13.00
2025-12-25 17:00:10.552100,599620133101736647,-43.00
2025-12-25 17:00:10.552100,599620133101736647,-64.00
2025-12-25 17:00:10.552100,599620133101736647,-85.00
2025-12-25 17:00:10.552100,599620133101736647,-94.00
2025-12-25 17:00:10.552100,599620133101736647,-96.00
2025-12-25 17:00:10.552100,599620133101736647,-98.00
2025-12-25 17:00:10.552100,599620133101736647,-101.00
2025-12-25 17:00:10.552100,599620133101736647,-101.00
2025-12-25 17:00:10.552100,599620133101736647,-96.00
2025-12-25 17:00:10.552100,599620133101736647,-94.00
2025-12-25 17:00:10.552100,599620133101736647,-94.00
2025-12-25 17:00:10.552100,599620133101736647,-87.00
2025-12-25 17:00:10.552100,599620133101736647,-85.00
2025-12-25 17:00:10.552100,599620133101736647,-85.00
2025-12-25 17:00:10.552100,599620133101736647,-80.00
2025-12-25 17:00:10.552100,599620133101736647,-80.00
2025-12-25 17:00:10.552100,599620133101736647,-80.00
2025-12-25 17:00:10.552100,599620133101736647,-85.00
2025-12-25 17:00:10.552100,599620133101736647,-85.00
2025-12-25 17:00:10.552100,599620133101736647,-78.00
2025-12-25 17:00:10.552100,599620133101736647,-73.00
2025-12-25 17:00:10.552100,599620133101736647,-75.00
2025-12-25 17:00:10.552100,599620133101736647,-75.00
2025-12-25 17:00:10.552100,599620133101736647,-75.00
2025-12-25 17:00:10.552100,599620133101736647,-82.00
2025-12-25 17:00:10.552100,599620133101736647,-87.00
2025-12-25 17:00:10.552100,599620133101736647,-80.00
2025-12-25 17:00:10.552100,599620133101736647,-75.00
2025-12-25 17:00:10.552100,599620133101736647,-78.00
2025-12-25 17:00:10.552100,599620133101736647,-82.00
2025-12-25 17:00:10.552100,599620133101736647,-82.00
2025-12-25 17:00:10.552100,599620133101736647,-80.00
2025-12-25 17:00:10.552100,599620133101736647,-82.00
2025-12-25 17:00:10.552100,599620133101736647,-87.00
2025-12-25 17:00:10.552100,599620133101736647,-89.00
2025-12-25 17:00:10.552100,599620133101736647,-91.00
2025-12-25 17:00:10.552100,599620133101736647,-89.00
2025-12-25 17:00:10.552100,599620133101736647,-87.00
2025-12-25 17:00:10.552100,599620133101736647,-87.00
2025-12-25 17:00:10.552100,599620133101736647,-89.00
2025-12-25 17:00:10.552100,599620133101736647,-94.00
2025-12-25 17:00:10.552100,599620133101736647,-96.00
2025-12-25 17:00:10.552100,599620133101736647,-91.00
2025-12-25 17:00:11.048131,599620133662601538,-87.00
2025-12-25 17:00:11.048131,599620133662601538,-89.00
2025-12-25 17:00:11.048131,599620133662601538,-94.00
2025-12-25 17:00:11.048131,599620133662601538,-96.00
2025-12-25 17:00:11.048131,599620133662601538,-101.00
2025-12-25 17:00:11.048131,599620133662601538,-101.00
2025-12-25 17:00:11.048131,599620133662601538,-89.00
2025-12-25 17:00:11.048131,599620133662601538,-73.00
2025-12-25 17:00:11.048131,599620133662601538,-55.00
2025-12-25 17:00:11.048131,599620133662601538,-34.00
2025-12-25 17:00:11.048131,599620133662601538,-50.00
2025-12-25 17:00:11.048131,599620133662601538,-78.00
2025-12-25 17:00:11.048131,599620133662601538,-71.00
2025-12-25 17:00:11.048131,599620133662601538,-55.00
2025-12-25 17:00:11.048131,599620133662601538,-62.00
2025-12-25 17:00:11.048131,599620133662601538,-66.00
2025-12-25 17:00:11.048131,599620133662601538,-62.00
2025-12-25 17:00:11.048131,599620133662601538,-64.00
2025-12-25 17:00:11.048131,599620133662601538,-59.00
2025-12-25 17:00:11.048131,599620133662601538,-48.00
2025-12-25 17:00:11.048131,599620133662601538,-25.00
2025-12-25 17:00:11.048131,599620133662601538,98.00
2025-12-25 17:00:11.048131,599620133662601538,404.00
2025-12-25 17:00:11.048131,599620133662601538,659.00
2025-12-25 17:00:11.048131,599620133662601538,291.00
2025-12-25 17:00:11.048131,599620133662601538,-659.00
2025-12-25 17:00:11.048131,599620133662601538,-1059.00
2025-12-25 17:00:11.048131,599620133662601538,-537.00
2025-12-25 17:00:11.048131,599620133662601538,-112.00
2025-12-25 17:00:11.048131,599620133662601538,-96.00
2025-12-25 17:00:11.048131,599620133662601538,-45.00
2025-12-25 17:00:11.048131,599620133662601538,11.00
2025-12-25 17:00:11.048131,599620133662601538,-13.00
2025-12-25 17:00:11.048131,599620133662601538,-11.00
2025-12-25 17:00:11.048131,599620133662601538,13.00
2025-12-25 17:00:11.048131,599620133662601538,9.00
