Timestamp,Device Timestamp (ns),ECG Value (uV)
2025-12-25 17:12:18.427032,599620860465403848,52.00
2025-12-25 17:12:18.427032,599620860465403848,55.00
2025-12-25 17:12:18.427032,599620860465403848,59.00
2025-12-25 17:12:18.427032,599620860465403848,66.00
2025-12-25 17:12:18.427032,599620860465403848,71.00
2025-12-25 17:12:18.427032,599620860465403848,78.00
2025-12-25 17:12:18.427032,599620860465403848,87.00
2025-12-25 17:12:18.427032,599620860465403848,98.00
2025-12-25 17:12:18.427032,599620860465403848,105.00
2025-12-25 17:12:18.427032,599620860465403848,108.00
2025-12-25 17:12:18.427032,599620860465403848,112.00
2025-12-25 17:12:18.427032,599620860465403848,119.00
2025-12-25 17:12:18.427032,599620860465403848,121.00
2025-12-25 17:12:18.427032,599620860465403848,110.00
2025-12-25 17:12:18.427032,599620860465403848,85.00
2025-12-25 17:12:18.427032,599620860465403848,57.00
2025-12-25 17:12:18.427032,599620860465403848,32.00
2025-12-25 17:12:18.427032,599620860465403848,0.00
2025-12-25 17:12:18.427032,599620860465403848,-41.00
2025-12-25 17:12:18.427032,599620860465403848,-71.00
2025-12-25 17:12:18.427032,599620860465403848,-85.00
2025-12-25 17:12:18.427032,599620860465403848,-96.00
2025-12-25 17:12:18.427032,599620860465403848,-101.00
2025-12-25 17:12:18.427032,599620860465403848,-98.00
2025-12-25 17:12:18.427032,599620860465403848,-98.00
2025-12-25 17:12:18.427032,599620860465403848,-98.00
2025-12-25 17:12:18.427032,599620860465403848,-101.00
2025-12-25 17:12:18.427032,599620860465403848,-101.00
2025-12-25 17:12:18.427032,599620860465403848,-87.00
2025-12-25 17:12:18.427032,599620860465403848,-75.00
2025-12-25 17:12:18.427032,599620860465403848,-75.00
2025-12-25 17:12:18.427032,599620860465403848,-80.00
2025-12-25 17:12:18.427032,599620860465403848,-78.00
2025-12-25 17:12:18.427032,599620860465403848,-75.00
2025-12-25 17:12:18.427032,599620860465403848,-73.00
2025-12-25 17:12:18.427032,599620860465403848,-71.00
2025-12-25 17:12:18.427032,599620860465403848,-68.00
2025-12-25 17:12:18.427032,599620860465403848,-64.00
2025-12-25 17:12:18.427032,599620860465403848,-66.00
2025-12-25 17:12:18.427032,599620860465403848,-68.00
2025-12-25 17:12:18.427032,599620860465403848,-66.00
2025-12-25 17:12:18.427032,599620860465403848,-62.00
2025-12-25 17:12:18.427032,599620860465403848,-62.00
2025-12-25 17:12:18.427032,599620860465403848,-62.00
2025-12-25 17:12:18.427032,599620860465403848,-59.00
2025-12-25 17:12:18.427032,599620860465403848,-55.00
2025-12-25 17:12:18.427032,599620860465403848,-52.00
2025-12-25 17:12:18.427032,599620860465403848,-52.00
2025-12-25 17:12:18.427032,599620860465403848,-43.00
2025-12-25 17:12:18.427032,599620860465403848,-25.00
2025-12-25 17:12:18.427032,599620860465403848,-25.00
2025-12-25 17:12:18.427032,599620860465403848,-32.00
2025-12-25 17:12:18.427032,599620860465403848,-32.00
2025-12-25 17:12:18.427032,599620860465403848,-29.00
2025-12-25 17:12:18.427032,599620860465403848,-32.00
2025-12-25 17:12:18.427032,599620860465403848,-34.00
2025-12-25 17:12:18.427032,599620860465403848,-36.00
2025-12-25 17:12:18.427032,599620860465403848,-36.00
2025-12-25 17:12:18.427032,599620860465403848,-34.00
2025-12-25 17:12:18.427032,599620860465403848,-34.00
2025-12-25 17:12:18.427032,599620860465403848,-36.00
2025-12-25 17:12:18.427032,599620860465403848,-39.00
2025-12-25 17:12:18.427032,599620860465403848,-43.00
2025-12-25 17:12:18.427032,599620860465403848,-48.00
2025-12-25 17:12:18.427032,599620860465403848,-41.00
2025-12-25 17:12:18.427032,599620860465403848,-29.00
2025-12-25 17:12:18.427032,599620860465403848,-20.00
2025-12-25 17:12:18.427032,599620860465403848,-4.00
2025-12-25 17:12:18.427032,599620860465403848,2.00
2025-12-25 17:12:18.427032,599620860465403848,-27.00
2025-12-25 17:12:18.427032,599620860465403848,-57.00
2025-12-25 17:12:18.427032,599620860465403848,-52.00
2025-12-25 17:12:18.427032,599620860465403848,-50.00
2025-12-25 17:12:18.503973,599620861026278909,-59.00
2025-12-25 17:12:18.503973,599620861026278909,-64.00
2025-12-25 17:12:18.503973,599620861026278909,-59.00
2025-12-25 17:12:18.503973,599620861026278909,-57.00
2025-12-25 17:12:18.503973,599620861026278909,-59.00
2025-12-25 17:12:18.503973,599620861026278909,-57.00
2025-12-25 17:12:18.503973,599620861026278909,-20.00
2025-12-25 17:12:18.503973,599620861026278909,137.00
2025-12-25 17:12:18.503973,599620861026278909,455.00
2025-12-25 17:12:18.503973,599620861026278909,609.00
2025-12-25 17:12:18.503973,599620861026278909,73.00
2025-12-25 17:12:18.503973,599620861026278909,-843.00
2025-12-25 17:12:18.503973,599620861026278909,-988.00
2025-12-25 17:12:18.503973,599620861026278909,-356.00
2025-12-25 17:12:18.503973,599620861026278909,-2.00
2025-12-25 17:12:18.503973,599620861026278909,-27.00
2025-12-25 17:12:18.503973,599620861026278909,9.00
2025-12-25 17:12:18.503973,599620861026278909,52.00
2025-12-25 17:12:18.503973,599620861026278909,27.00
2025-12-25 17:12:18.503973,599620861026278909,36.00
2025-12-25 17:12:18.503973,599620861026278909,59.00
2025-12-25 17:12:18.503973,599620861026278909,45.00
2025-12-25 17:12:18.503973,599620861026278909,43.00
2025-12-25 17:12:18.503973,599620861026278909,55.00
2025-12-25 17:12:18.503973,599620861026278909,52.00
2025-12-25 17:12:18.503973,599620861026278909,50.00
2025-12-25 17:12:18.503973,599620861026278909,55.00
2025-12-25 17:12:18.503973,599620861026278909,57.00
2025-12-25 17:12:18.503973,599620861026278909,59.00
2025-12-25 17:12:18.503973,599620861026278909,64.00
2025-12-25 17:12:18.503973,599620861026278909,64.00
2025-12-25 17:12:18.503973,599620861026278909,71.00
2025-12-25 17:12:18.503973,599620861026278909,80.00
2025-12-25 17:12:18.503973,599620861026278909,85.00
2025-12-25 17:12:18.503973,599620861026278909,91.00
2025-12-25 17:12:18.503973,599620861026278909,108.00
2025-12-25 17:12:18.503973,599620861026278909,119.00
2025-12-25 17:12:18.503973,599620861026278909,121.00
2025-12-25 17:12:18.503973,599620861026278909,128.00
2025-12-25 17:12:18.503973,599620861026278909,128.00
2025-12-25 17:12:18.503973,599620861026278909,124.00
2025-12-25 17:12:18.503973,599620861026278909,124.00
2025-12-25 17:12:18.503973,599620861026278909,114.00
2025-12-25 17:12:18.503973,599620861026278909,82.00
2025-12-25 17:12:18.503973,599620861026278909,39.00
2025-12-25 17:12:18.503973,599620861026278909,-2.00
2025-12-25 17:12:18.503973,599620861026278909,-39.00
2025-12-25 17:12:18.503973,599620861026278909,-68.00
2025-12-25 17:12:18.503973,599620861026278909,-82.00
2025-12-25 17:12:18.503973,599620861026278909,-87.00
2025-12-25 17:12:18.503973,599620861026278909,-96.00
2025-12-25 17:12:18.503973,599620861026278909,-101.00
2025-12-25 17:12:18.503973,599620861026278909,-96.00
2025-12-25 17:12:18.503973,599620861026278909,-91.00
2025-12-25 17:12:18.503973,599620861026278909,-91.00
2025-12-25 17:12:18.503973,599620861026278909,-89.00
2025-12-25 17:12:18.503973,599620861026278909,-89.00
2025-12-25 17:12:18.503973,599620861026278909,-87.00
2025-12-25 17:12:18.503973,599620861026278909,-80.00
2025-12-25 17:12:18.503973,599620861026278909,-78.00
2025-12-25 17:12:18.503973,599620861026278909,-80.00
2025-12-25 17:12:18.503973,599620861026278909,-73.00
2025-12-25 17:12:18.503973,599620861026278909,-66.00
2025-12-25 17:12:18.503973,599620861026278909,-71.00
2025-12-25 17:12:18.503973,599620861026278909,-73.00
2025-12-25 17:12:18.503973,599620861026278909,-66.00
2025-12-25 17:12:18.503973,599620861026278909,-57.00
2025-12-25 17:12:18.503973,599620861026278909,-50.00
2025-12-25 17:12:18.503973,599620861026278909,-48.00
2025-12-25 17:12:18.503973,599620861026278909,-43.00
2025-12-25 17:12:18.503973,599620861026278909,-41.00
2025-12-25 17:12:18.503973,599620861026278909,-43.00
2025-12-25 17:12:18.503973,599620861026278909,-45.00
2025-12-25 17:12:18.905350,599620861587164144,-43.00
2025-12-25 17:12:18.905350,599620861587164144,-45.00
2025-12-25 17:12:18.905350,599620861587164144,-50.00
2025-12-25 17:12:18.905350,599620861587164144,-50.00
2025-12-25 17:12:18.905350,599620861587164144,-45.00
2025-12-25 17:12:18.905350,599620861587164144,-34.00
2025-12-25 17:12:18.905350,599620861587164144,-25.00
2025-12-25 17:12:18.905350,599620861587164144,-29.00
2025-12-25 17:12:18.905350,599620861587164144,-34.00
2025-12-25 17:12:18.905350,599620861587164144,-29.00
2025-12-25 17:12:18.905350,599620861587164144,-27.00
2025-12-25 17:12:18.905350,599620861587164144,-18.00
2025-12-25 17:12:18.905350,599620861587164144,-11.00
2025-12-25 17:12:18.905350,599620861587164144,-16.00
2025-12-25 17:12:18.905350,599620861587164144,-20.00
2025-12-25 17:12:18.905350,599620861587164144,-20.00
2025-12-25 17:12:18.905350,599620861587164144,-22.00
2025-12-25 17:12:18.905350,599620861587164144,-22.00
2025-12-25 17:12:18.905350,599620861587164144,-27.00
2025-12-25 17:12:18.905350,599620861587164144,-29.00
2025-12-25 17:12:18.905350,599620861587164144,-34.00
2025-12-25 17:12:18.905350,599620861587164144,-34.00
2025-12-25 17:12:18.905350,599620861587164144,-32.00
2025-12-25 17:12:18.905350,599620861587164144,-32.00
2025-12-25 17:12:18.905350,599620861587164144,-39.00
2025-12-25 17:12:18.905350,599620861587164144,-43.00
2025-12-25 17:12:18.905350,599620861587164144,-32.00
2025-12-25 17:12:18.905350,599620861587164144,-16.00
2025-12-25 17:12:18.905350,599620861587164144,-4.00
2025-12-25 17:12:18.905350,599620861587164144,6.00
2025-12-25 17:12:18.905350,599620861587164144,2.00
2025-12-25 17:12:18.905350,599620861587164144,-29.00
2025-12-25 17:12:18.905350,599620861587164144,-48.00
2025-12-25 17:12:18.905350,599620861587164144,-41.00
2025-12-25 17:12:18.905350,599620861587164144,-34.00
2025-12-25 17:12:18.905350,599620861587164144,-32.00
2025-12-25 17:12:18.905350,599620861587164144,-41.00
2025-12-25 17:12:18.905350,599620861587164144,-50.00
2025-12-25 17:12:18.905350,599620861587164144,-48.00
2025-12-25 17:12:18.905350,599620861587164144,-45.00
2025-12-25 17:12:18.905350,599620861587164144,-39.00
2025-12-25 17:12:18.905350,599620861587164144,22.00
2025-12-25 17:12:18.905350,599620861587164144,236.00
2025-12-25 17:12:18.905350,599620861587164144,535.00
2025-12-25 17:12:18.905350,599620861587164144,487.00
2025-12-25 17:12:18.905350,599620861587164144,-285.00
2025-12-25 17:12:18.905350,599620861587164144,-1034.00
2025-12-25 17:12:18.905350,599620861587164144,-788.00
2025-12-25 17:12:18.905350,599620861587164144,-170.00
2025-12-25 17:12:18.905350,599620861587164144,-36.00
2025-12-25 17:12:18.905350,599620861587164144,-66.00
2025-12-25 17:12:18.905350,599620861587164144,6.00
2025-12-25 17:12:18.905350,599620861587164144,18.00
2025-12-25 17:12:18.905350,599620861587164144,-4.00
2025-12-25 17:12:18.905350,599620861587164144,11.00
2025-12-25 17:12:18.905350,599620861587164144,20.00
2025-12-25 17:12:18.905350,599620861587164144,11.00
2025-12-25 17:12:18.905350,599620861587164144,20.00
2025-12-25 17:12:18.905350,599620861587164144,36.00
2025-12-25 17:12:18.905350,599620861587164144,39.00
2025-12-25 17:12:18.905350,599620861587164144,34.00
2025-12-25 17:12:18.905350,599620861587164144,34.00
2025-12-25 17:12:18.905350,599620861587164144,39.00
2025-12-25 17:12:18.905350,599620861587164144,43.00
2025-12-25 17:12:18.905350,599620861587164144,48.00
2025-12-25 17:12:18.905350,599620861587164144,55.00
2025-12-25 17:12:18.905350,599620861587164144,62.00
2025-12-25 17:12:18.905350,599620861587164144,66.00
2025-12-25 17:12:18.905350,599620861587164144,71.00
2025-12-25 17:12:18.905350,599620861587164144,85.00
2025-12-25 17:12:18.905350,599620861587164144,101.00
2025-12-25 17:12:18.905350,599620861587164144,105.00
2025-12-25 17:12:18.905350,599620861587164144,105.00
2025-12-25 17:12:19.637937,599620862148044297,112.00
2025-12-25 17:12:19.637937,599620862148044297,117.00
2025-12-25 17:12:19.637937,599620862148044297,117.00
2025-12-25 17:12:19.637937,599620862148044297,105.00
2025-12-25 17:12:19.637937,599620862148044297,85.00
2025-12-25 17:12:19.637937,599620862148044297,52.00
2025-12-25 17:12:19.637937,599620862148044297,11.00
2025-12-25 17:12:19.637937,599620862148044297,-27.00
2025-12-25 17:12:19.637937,599620862148044297,-45.00
2025-12-25 17:12:19.637937,599620862148044297,-57.00
2025-12-25 17:12:19.637937,599620862148044297,-78.00
2025-12-25 17:12:19.637937,599620862148044297,-94.00
2025-12-25 17:12:19.637937,599620862148044297,-89.00
2025-12-25 17:12:19.637937,599620862148044297,-89.00
2025-12-25 17:12:19.637937,599620862148044297,-91.00
2025-12-25 17:12:19.637937,599620862148044297,-85.00
2025-12-25 17:12:19.637937,599620862148044297,-78.00
2025-12-25 17:12:19.637937,599620862148044297,-71.00
2025-12-25 17:12:19.637937,599620862148044297,-62.00
2025-12-25 17:12:19.637937,599620862148044297,-62.00
2025-12-25 17:12:19.637937,599620862148044297,-57.00
2025-12-25 17:12:19.637937,599620862148044297,-50.00
2025-12-25 17:12:19.637937,599620862148044297,-48.00
2025-12-25 17:12:19.637937,599620862148044297,-50.00
2025-12-25 17:12:19.637937,599620862148044297,-52.00
2025-12-25 17:12:19.637937,599620862148044297,-50.00
2025-12-25 17:12:19.637937,599620862148044297,-36.00
2025-12-25 17:12:19.637937,599620862148044297,-27.00
2025-12-25 17:12:19.637937,599620862148044297,-34.00
2025-12-25 17:12:19.637937,599620862148044297,-41.00
2025-12-25 17:12:19.637937,599620862148044297,-39.00
2025-12-25 17:12:19.637937,599620862148044297,-36.00
2025-12-25 17:12:19.637937,599620862148044297,-41.00
2025-12-25 17:12:19.637937,599620862148044297,-43.00
2025-12-25 17:12:19.637937,599620862148044297,-41.00
2025-12-25 17:12:19.637937,599620862148044297,-45.00
2025-12-25 17:12:19.637937,599620862148044297,-52.00
2025-12-25 17:12:19.637937,599620862148044297,-50.00
2025-12-25 17:12:19.637937,599620862148044297,-48.00
2025-12-25 17:12:19.637937,599620862148044297,-52.00
2025-12-25 17:12:19.637937,599620862148044297,-57.00
2025-12-25 17:12:19.637937,599620862148044297,-57.00
2025-12-25 17:12:19.637937,599620862148044297,-57.00
2025-12-25 17:12:19.637937,599620862148044297,-57.00
2025-12-25 17:12:19.637937,599620862148044297,-59.00
2025-12-25 17:12:19.637937,599620862148044297,-59.00
2025-12-25 17:12:19.637937,599620862148044297,-59.00
2025-12-25 17:12:19.637937,599620862148044297,-62.00
2025-12-25 17:12:19.637937,599620862148044297,-62.00
2025-12-25 17:12:19.637937,599620862148044297,-59.00
2025-12-25 17:12:19.637937,599620862148044297,-52.00
2025-12-25 17:12:19.637937,599620862148044297,-52.00
2025-12-25 17:12:19.637937,599620862148044297,-59.00
2025-12-25 17:12:19.637937,599620862148044297,-62.00
2025-12-25 17:12:19.637937,599620862148044297,-64.00
2025-12-25 17:12:19.637937,599620862148044297,-68.00
2025-12-25 17:12:19.637937,599620862148044297,-64.00
2025-12-25 17:12:19.637937,599620862148044297,-50.00
2025-12-25 17:12:19.637937,599620862148044297,-41.00
2025-12-25 17:12:19.637937,599620862148044297,-32.00
2025-12-25 17:12:19.637937,599620862148044297,-18.00
2025-12-25 17:12:19.637937,599620862148044297,-29.00
2025-12-25 17:12:19.637937,599620862148044297,-62.00
2025-12-25 17:12:19.637937,599620862148044297,-68.00
2025-12-25 17:12:19.637937,599620862148044297,-62.00
2025-12-25 17:12:19.637937,599620862148044297,-71.00
2025-12-25 17:12:19.637937,599620862148044297,-73.00
2025-12-25 17:12:19.637937,599620862148044297,-66.00
2025-12-25 17:12:19.637937,599620862148044297,-64.00
2025-12-25 17:12:19.637937,599620862148044297,-71.00
2025-12-25 17:12:19.637937,599620862148044297,-71.00
2025-12-25 17:12:19.637937,599620862148044297,-55.00
2025-12-25 17:12:19.637937,599620862148044297,45.00
2025-12-25 17:12:20.067865,599620862708904100,310.00
2025-12-25 17:12:20.067865,599620862708904100,570.00
2025-12-25 17:12:20.067865,599620862708904100,308.00
2025-12-25 17:12:20.067865,599620862708904100,-586.00
2025-12-25 17:12:20.067865,599620862708904100,-1092.00
2025-12-25 17:12:20.067865,599620862708904100,-609.00
2025-12-25 17:12:20.067865,599620862708904100,-87.00
2025-12-25 17:12:20.067865,599620862708904100,-55.00
2025-12-25 17:12:20.067865,599620862708904100,-48.00
2025-12-25 17:12:20.067865,599620862708904100,27.00
2025-12-25 17:12:20.067865,599620862708904100,13.00
2025-12-25 17:12:20.067865,599620862708904100,9.00
2025-12-25 17:12:20.067865,599620862708904100,48.00
2025-12-25 17:12:20.067865,599620862708904100,48.00
2025-12-25 17:12:20.067865,599620862708904100,36.00
2025-12-25 17:12:20.067865,599620862708904100,48.00
2025-12-25 17:12:20.067865,599620862708904100,52.00
2025-12-25 17:12:20.067865,599620862708904100,52.00
2025-12-25 17:12:20.067865,599620862708904100,62.00
2025-12-25 17:12:20.067865,599620862708904100,73.00
2025-12-25 17:12:20.067865,599620862708904100,73.00
2025-12-25 17:12:20.067865,599620862708904100,75.00
2025-12-25 17:12:20.067865,599620862708904100,89.00
2025-12-25 17:12:20.067865,599620862708904100,110.00
2025-12-25 17:12:20.067865,599620862708904100,121.00
2025-12-25 17:12:20.067865,599620862708904100,126.00
2025-12-25 17:12:20.067865,599620862708904100,133.00
2025-12-25 17:12:20.067865,599620862708904100,137.00
2025-12-25 17:12:20.067865,599620862708904100,147.00
2025-12-25 17:12:20.067865,599620862708904100,167.00
2025-12-25 17:12:20.067865,599620862708904100,181.00
2025-12-25 17:12:20.067865,599620862708904100,177.00
2025-12-25 17:12:20.067865,599620862708904100,172.00
2025-12-25 17:12:20.067865,599620862708904100,167.00
2025-12-25 17:12:20.067865,599620862708904100,149.00
2025-12-25 17:12:20.067865,599620862708904100,119.00
2025-12-25 17:12:20.067865,599620862708904100,80.00
2025-12-25 17:12:20.067865,599620862708904100,39.00
2025-12-25 17:12:20.067865,599620862708904100,2.00
2025-12-25 17:12:20.067865,599620862708904100,-27.00
2025-12-25 17:12:20.067865,599620862708904100,-39.00
2025-12-25 17:12:20.067865,599620862708904100,-45.00
2025-12-25 17:12:20.067865,599620862708904100,-55.00
2025-12-25 17:12:20.067865,599620862708904100,-62.00
2025-12-25 17:12:20.067865,599620862708904100,-59.00
2025-12-25 17:12:20.067865,599620862708904100,-59.00
2025-12-25 17:12:20.067865,599620862708904100,-59.00
2025-12-25 17:12:20.067865,599620862708904100,-57.00
2025-12-25 17:12:20.067865,599620862708904100,-55.00
2025-12-25 17:12:20.067865,599620862708904100,-55.00
2025-12-25 17:12:20.067865,599620862708904100,-55.00
2025-12-25 17:12:20.067865,599620862708904100,-52.00
2025-12-25 17:12:20.067865,599620862708904100,-52.00
2025-12-25 17:12:20.067865,599620862708904100,-50.00
2025-12-25 17:12:20.067865,599620862708904100,-45.00
2025-12-25 17:12:20.067865,599620862708904100,-45.00
2025-12-25 17:12:20.067865,599620862708904100,-48.00
2025-12-25 17:12:20.067865,599620862708904100,-50.00
2025-12-25 17:12:20.067865,599620862708904100,-45.00
2025-12-25 17:12:20.067865,599620862708904100,-45.00
2025-12-25 17:12:20.067865,599620862708904100,-50.00
2025-12-25 17:12:20.067865,599620862708904100,-52.00
2025-12-25 17:12:20.067865,599620862708904100,-48.00
2025-12-25 17:12:20.067865,599620862708904100,-48.00
2025-12-25 17:12:20.067865,599620862708904100,-55.00
2025-12-25 17:12:20.067865,599620862708904100,-57.00
2025-12-25 17:12:20.067865,599620862708904100,-57.00
2025-12-25 17:12:20.067865,599620862708904100,-59.00
2025-12-25 17:12:20.067865,599620862708904100,-64.00
2025-12-25 17:12:20.067865,599620862708904100,-62.00
2025-12-25 17:12:20.067865,599620862708904100,-62.00
2025-12-25 17:12:20.067865,599620862708904100,-62.00
2025-12-25 17:12:20.067865,599620862708904100,-62.00
2025-12-25 17:12:20.648081,599620863269789335,-57.00
2025-12-25 17:12:20.648081,599620863269789335,-55.00
2025-12-25 17:12:20.648081,599620863269789335,-59.00
2025-12-25 17:12:20.648081,599620863269789335,-57.00
2025-12-25 17:12:20.648081,599620863269789335,-55.00
2025-12-25 17:12:20.648081,599620863269789335,-59.00
2025-12-25 17:12:20.648081,599620863269789335,-64.00
2025-12-25 17:12:20.648081,599620863269789335,-59.00
2025-12-25 17:12:20.648081,599620863269789335,-52.00
2025-12-25 17:12:20.648081,599620863269789335,-41.00
2025-12-25 17:12:20.648081,599620863269789335,-34.00
2025-12-25 17:12:20.648081,599620863269789335,-29.00
2025-12-25 17:12:20.648081,599620863269789335,-32.00
2025-12-25 17:12:20.648081,599620863269789335,-32.00
2025-12-25 17:12:20.648081,599620863269789335,-29.00
2025-12-25 17:12:20.648081,599620863269789335,-18.00
2025-12-25 17:12:20.648081,599620863269789335,-16.00
2025-12-25 17:12:20.648081,599620863269789335,-16.00
2025-12-25 17:12:20.648081,599620863269789335,-4.00
2025-12-25 17:12:20.648081,599620863269789335,13.00
2025-12-25 17:12:20.648081,599620863269789335,16.00
2025-12-25 17:12:20.648081,599620863269789335,-13.00
2025-12-25 17:12:20.648081,599620863269789335,-32.00
2025-12-25 17:12:20.648081,599620863269789335,-34.00
2025-12-25 17:12:20.648081,599620863269789335,-43.00
2025-12-25 17:12:20.648081,599620863269789335,-48.00
2025-12-25 17:12:20.648081,599620863269789335,-41.00
2025-12-25 17:12:20.648081,599620863269789335,-43.00
2025-12-25 17:12:20.648081,599620863269789335,-55.00
2025-12-25 17:12:20.648081,599620863269789335,-55.00
2025-12-25 17:12:20.648081,599620863269789335,-50.00
2025-12-25 17:12:20.648081,599620863269789335,2.00
2025-12-25 17:12:20.648081,599620863269789335,202.00
2025-12-25 17:12:20.648081,599620863269789335,512.00
2025-12-25 17:12:20.648081,599620863269789335,544.00
2025-12-25 17:12:20.648081,599620863269789335,-147.00
2025-12-25 17:12:20.648081,599620863269789335,-974.00
2025-12-25 17:12:20.648081,599620863269789335,-871.00
2025-12-25 17:12:20.648081,599620863269789335,-236.00
2025-12-25 17:12:20.648081,599620863269789335,-29.00
2025-12-25 17:12:20.648081,599620863269789335,-62.00
2025-12-25 17:12:20.648081,599620863269789335,0.00
2025-12-25 17:12:20.648081,599620863269789335,27.00
2025-12-25 17:12:20.648081,599620863269789335,6.00
2025-12-25 17:12:20.648081,599620863269789335,20.00
2025-12-25 17:12:20.648081,599620863269789335,34.00
2025-12-25 17:12:20.648081,599620863269789335,27.00
2025-12-25 17:12:20.648081,599620863269789335,34.00
2025-12-25 17:12:20.648081,599620863269789335,43.00
2025-12-25 17:12:20.648081,599620863269789335,45.00
2025-12-25 17:12:20.648081,599620863269789335,48.00
2025-12-25 17:12:20.648081,599620863269789335,52.00
2025-12-25 17:12:20.648081,599620863269789335,59.00
2025-12-25 17:12:20.648081,599620863269789335,62.00
2025-12-25 17:12:20.648081,599620863269789335,62.00
2025-12-25 17:12:20.648081,599620863269789335,71.00
2025-12-25 17:12:20.648081,599620863269789335,78.00
2025-12-25 17:12:20.648081,599620863269789335,80.00
2025-12-25 17:12:20.648081,599620863269789335,85.00
2025-12-25 17:12:20.648081,599620863269789335,94.00
2025-12-25 17:12:20.648081,599620863269789335,103.00
2025-12-25 17:12:20.648081,599620863269789335,117.00
2025-12-25 17:12:20.648081,599620863269789335,126.00
2025-12-25 17:12:20.648081,599620863269789335,133.00
2025-12-25 17:12:20.648081,599620863269789335,140.00
2025-12-25 17:12:20.648081,599620863269789335,142.00
2025-12-25 17:12:20.648081,599620863269789335,137.00
2025-12-25 17:12:20.648081,599620863269789335,119.00
2025-12-25 17:12:20.648081,599620863269789335,87.00
2025-12-25 17:12:20.648081,599620863269789335,45.00
2025-12-25 17:12:20.648081,599620863269789335,4.00
2025-12-25 17:12:20.648081,599620863269789335,-29.00
2025-12-25 17:12:20.648081,599620863269789335,-52.00
2025-12-25 17:12:21.153146,599620863830654226,-62.00
2025-12-25 17:12:21.153146,599620863830654226,-71.00
2025-12-25 17:12:21.153146,599620863830654226,-82.00
2025-12-25 17:12:21.153146,599620863830654226,-80.00
2025-12-25 17:12:21.153146,599620863830654226,-73.00
2025-12-25 17:12:21.153146,599620863830654226,-62.00
2025-12-25 17:12:21.153146,599620863830654226,-48.00
2025-12-25 17:12:21.153146,599620863830654226,-39.00
2025-12-25 17:12:21.153146,599620863830654226,-41.00
2025-12-25 17:12:21.153146,599620863830654226,-43.00
2025-12-25 17:12:21.153146,599620863830654226,-43.00
2025-12-25 17:12:21.153146,599620863830654226,-36.00
2025-12-25 17:12:21.153146,599620863830654226,-18.00
2025-12-25 17:12:21.153146,599620863830654226,-13.00
2025-12-25 17:12:21.153146,599620863830654226,-20.00
2025-12-25 17:12:21.153146,599620863830654226,-22.00
2025-12-25 17:12:21.153146,599620863830654226,-22.00
2025-12-25 17:12:21.153146,599620863830654226,-25.00
2025-12-25 17:12:21.153146,599620863830654226,-20.00
2025-12-25 17:12:21.153146,599620863830654226,-18.00
2025-12-25 17:12:21.153146,599620863830654226,-27.00
2025-12-25 17:12:21.153146,599620863830654226,-32.00
2025-12-25 17:12:21.153146,599620863830654226,-29.00
2025-12-25 17:12:21.153146,599620863830654226,-25.00
2025-12-25 17:12:21.153146,599620863830654226,-22.00
2025-12-25 17:12:21.153146,599620863830654226,-25.00
2025-12-25 17:12:21.153146,599620863830654226,-34.00
2025-12-25 17:12:21.153146,599620863830654226,-39.00
2025-12-25 17:12:21.153146,599620863830654226,-41.00
2025-12-25 17:12:21.153146,599620863830654226,-39.00
2025-12-25 17:12:21.153146,599620863830654226,-39.00
2025-12-25 17:12:21.153146,599620863830654226,-43.00
2025-12-25 17:12:21.153146,599620863830654226,-48.00
2025-12-25 17:12:21.153146,599620863830654226,-50.00
2025-12-25 17:12:21.153146,599620863830654226,-50.00
2025-12-25 17:12:21.153146,599620863830654226,-50.00
2025-12-25 17:12:21.153146,599620863830654226,-50.00
2025-12-25 17:12:21.153146,599620863830654226,-52.00
2025-12-25 17:12:21.153146,599620863830654226,-52.00
2025-12-25 17:12:21.153146,599620863830654226,-55.00
2025-12-25 17:12:21.153146,599620863830654226,-57.00
2025-12-25 17:12:21.153146,599620863830654226,-57.00
2025-12-25 17:12:21.153146,599620863830654226,-55.00
2025-12-25 17:12:21.153146,599620863830654226,-57.00
2025-12-25 17:12:21.153146,599620863830654226,-64.00
2025-12-25 17:12:21.153146,599620863830654226,-66.00
2025-12-25 17:12:21.153146,599620863830654226,-57.00
2025-12-25 17:12:21.153146,599620863830654226,-43.00
2025-12-25 17:12:21.153146,599620863830654226,-32.00
2025-12-25 17:12:21.153146,599620863830654226,-18.00
2025-12-25 17:12:21.153146,599620863830654226,-29.00
2025-12-25 17:12:21.153146,599620863830654226,-64.00
2025-12-25 17:12:21.153146,599620863830654226,-73.00
2025-12-25 17:12:21.153146,599620863830654226,-64.00
2025-12-25 17:12:21.153146,599620863830654226,-64.00
2025-12-25 17:12:21.153146,599620863830654226,-66.00
2025-12-25 17:12:21.153146,599620863830654226,-71.00
2025-12-25 17:12:21.153146,599620863830654226,-75.00
2025-12-25 17:12:21.153146,599620863830654226,-73.00
2025-12-25 17:12:21.153146,599620863830654226,-71.00
2025-12-25 17:12:21.153146,599620863830654226,-57.00
2025-12-25 17:12:21.153146,599620863830654226,39.00
2025-12-25 17:12:21.153146,599620863830654226,298.00
2025-12-25 17:12:21.153146,599620863830654226,563.00
2025-12-25 17:12:21.153146,599620863830654226,328.00
2025-12-25 17:12:21.153146,599620863830654226,-551.00
2025-12-25 17:12:21.153146,599620863830654226,-1087.00
2025-12-25 17:12:21.153146,599620863830654226,-634.00
2025-12-25 17:12:21.153146,599620863830654226,-110.00
2025-12-25 17:12:21.153146,599620863830654226,-62.00
2025-12-25 17:12:21.153146,599620863830654226,-43.00
2025-12-25 17:12:21.153146,599620863830654226,32.00
2025-12-25 17:12:21.153146,599620863830654226,13.00
2025-12-25 17:12:21.666126,599620864391534375,2.00
2025-12-25 17:12:21.666126,599620864391534375,34.00
2025-12-25 17:12:21.666126,599620864391534375,34.00
2025-12-25 17:12:21.666126,599620864391534375,27.00
2025-12-25 17:12:21.666126,599620864391534375,39.00
2025-12-25 17:12:21.666126,599620864391534375,45.00
2025-12-25 17:12:21.666126,599620864391534375,41.00
2025-12-25 17:12:21.666126,599620864391534375,43.00
2025-12-25 17:12:21.666126,599620864391534375,57.00
2025-12-25 17:12:21.666126,599620864391534375,73.00
2025-12-25 17:12:21.666126,599620864391534375,85.00
2025-12-25 17:12:21.666126,599620864391534375,87.00
2025-12-25 17:12:21.666126,599620864391534375,87.00
2025-12-25 17:12:21.666126,599620864391534375,94.00
2025-12-25 17:12:21.666126,599620864391534375,108.00
2025-12-25 17:12:21.666126,599620864391534375,119.00
2025-12-25 17:12:21.666126,599620864391534375,124.00
2025-12-25 17:12:21.666126,599620864391534375,133.00
2025-12-25 17:12:21.666126,599620864391534375,147.00
2025-12-25 17:12:21.666126,599620864391534375,154.00
2025-12-25 17:12:21.666126,599620864391534375,156.00
2025-12-25 17:12:21.666126,599620864391534375,158.00
2025-12-25 17:12:21.666126,599620864391534375,154.00
2025-12-25 17:12:21.666126,599620864391534375,137.00
2025-12-25 17:12:21.666126,599620864391534375,112.00
2025-12-25 17:12:21.666126,599620864391534375,73.00
2025-12-25 17:12:21.666126,599620864391534375,29.00
2025-12-25 17:12:21.666126,599620864391534375,-4.00
2025-12-25 17:12:21.666126,599620864391534375,-32.00
2025-12-25 17:12:21.666126,599620864391534375,-55.00
2025-12-25 17:12:21.666126,599620864391534375,-68.00
2025-12-25 17:12:21.666126,599620864391534375,-80.00
2025-12-25 17:12:21.666126,599620864391534375,-82.00
2025-12-25 17:12:21.666126,599620864391534375,-82.00
2025-12-25 17:12:21.666126,599620864391534375,-85.00
2025-12-25 17:12:21.666126,599620864391534375,-82.00
2025-12-25 17:12:21.666126,599620864391534375,-80.00
2025-12-25 17:12:21.666126,599620864391534375,-80.00
2025-12-25 17:12:21.666126,599620864391534375,-78.00
2025-12-25 17:12:21.666126,599620864391534375,-71.00
2025-12-25 17:12:21.666126,599620864391534375,-68.00
2025-12-25 17:12:21.666126,599620864391534375,-68.00
2025-12-25 17:12:21.666126,599620864391534375,-68.00
2025-12-25 17:12:21.666126,599620864391534375,-66.00
2025-12-25 17:12:21.666126,599620864391534375,-64.00
2025-12-25 17:12:21.666126,599620864391534375,-59.00
2025-12-25 17:12:21.666126,599620864391534375,-52.00
2025-12-25 17:12:21.666126,599620864391534375,-55.00
2025-12-25 17:12:21.666126,599620864391534375,-57.00
2025-12-25 17:12:21.666126,599620864391534375,-55.00
2025-12-25 17:12:21.666126,599620864391534375,-48.00
2025-12-25 17:12:21.666126,599620864391534375,-48.00
2025-12-25 17:12:21.666126,599620864391534375,-57.00
2025-12-25 17:12:21.666126,599620864391534375,-62.00
2025-12-25 17:12:21.666126,599620864391534375,-62.00
2025-12-25 17:12:21.666126,599620864391534375,-62.00
2025-12-25 17:12:21.666126,599620864391534375,-62.00
2025-12-25 17:12:21.666126,599620864391534375,-64.00
2025-12-25 17:12:21.666126,599620864391534375,-66.00
2025-12-25 17:12:21.666126,599620864391534375,-66.00
2025-12-25 17:12:21.666126,599620864391534375,-64.00
2025-12-25 17:12:21.666126,599620864391534375,-66.00
2025-12-25 17:12:21.666126,599620864391534375,-62.00
2025-12-25 17:12:21.666126,599620864391534375,-55.00
2025-12-25 17:12:21.666126,599620864391534375,-59.00
2025-12-25 17:12:21.666126,599620864391534375,-62.00
2025-12-25 17:12:21.666126,599620864391534375,-57.00
2025-12-25 17:12:21.666126,599620864391534375,-62.00
2025-12-25 17:12:21.666126,599620864391534375,-64.00
2025-12-25 17:12:21.666126,599620864391534375,-62.00
2025-12-25 17:12:21.666126,599620864391534375,-66.00
2025-12-25 17:12:21.666126,599620864391534375,-71.00
2025-12-25 17:12:21.666126,599620864391534375,-62.00
2025-12-25 17:12:22.209528,599620864952414524,-45.00
2025-12-25 17:12:22.209528,599620864952414524,-34.00
2025-12-25 17:12:22.209528,599620864952414524,-25.00
2025-12-25 17:12:22.209528,599620864952414524,-36.00
2025-12-25 17:12:22.209528,599620864952414524,-55.00
2025-12-25 17:12:22.209528,599620864952414524,-55.00
2025-12-25 17:12:22.209528,599620864952414524,-50.00
2025-12-25 17:12:22.209528,599620864952414524,-43.00
2025-12-25 17:12:22.209528,599620864952414524,-43.00
2025-12-25 17:12:22.209528,599620864952414524,-48.00
2025-12-25 17:12:22.209528,599620864952414524,-50.00
2025-12-25 17:12:22.209528,599620864952414524,-48.00
2025-12-25 17:12:22.209528,599620864952414524,-45.00
2025-12-25 17:12:22.209528,599620864952414524,-25.00
2025-12-25 17:12:22.209528,599620864952414524,96.00
2025-12-25 17:12:22.209528,599620864952414524,386.00
2025-12-25 17:12:22.209528,599620864952414524,616.00
2025-12-25 17:12:22.209528,599620864952414524,250.00
2025-12-25 17:12:22.209528,599620864952414524,-652.00
2025-12-25 17:12:22.209528,599620864952414524,-1032.00
2025-12-25 17:12:22.209528,599620864952414524,-528.00
2025-12-25 17:12:22.209528,599620864952414524,-89.00
2025-12-25 17:12:22.209528,599620864952414524,-62.00
2025-12-25 17:12:22.209528,599620864952414524,-34.00
2025-12-25 17:12:22.209528,599620864952414524,18.00
2025-12-25 17:12:22.209528,599620864952414524,0.00
2025-12-25 17:12:22.209528,599620864952414524,2.00
2025-12-25 17:12:22.209528,599620864952414524,34.00
2025-12-25 17:12:22.209528,599620864952414524,27.00
2025-12-25 17:12:22.209528,599620864952414524,11.00
2025-12-25 17:12:22.209528,599620864952414524,25.00
2025-12-25 17:12:22.209528,599620864952414524,34.00
2025-12-25 17:12:22.209528,599620864952414524,32.00
2025-12-25 17:12:22.209528,599620864952414524,32.00
2025-12-25 17:12:22.209528,599620864952414524,34.00
2025-12-25 17:12:22.209528,599620864952414524,39.00
2025-12-25 17:12:22.209528,599620864952414524,48.00
2025-12-25 17:12:22.209528,599620864952414524,64.00
2025-12-25 17:12:22.209528,599620864952414524,71.00
2025-12-25 17:12:22.209528,599620864952414524,75.00
2025-12-25 17:12:22.209528,599620864952414524,85.00
2025-12-25 17:12:22.209528,599620864952414524,98.00
2025-12-25 17:12:22.209528,599620864952414524,114.00
2025-12-25 17:12:22.209528,599620864952414524,121.00
2025-12-25 17:12:22.209528,599620864952414524,121.00
2025-12-25 17:12:22.209528,599620864952414524,126.00
2025-12-25 17:12:22.209528,599620864952414524,137.00
2025-12-25 17:12:22.209528,599620864952414524,140.00
2025-12-25 17:12:22.209528,599620864952414524,137.00
2025-12-25 17:12:22.209528,599620864952414524,117.00
2025-12-25 17:12:22.209528,599620864952414524,80.00
2025-12-25 17:12:22.209528,599620864952414524,41.00
2025-12-25 17:12:22.209528,599620864952414524,-4.00
2025-12-25 17:12:22.209528,599620864952414524,-45.00
2025-12-25 17:12:22.209528,599620864952414524,-66.00
2025-12-25 17:12:22.209528,599620864952414524,-71.00
2025-12-25 17:12:22.209528,599620864952414524,-78.00
2025-12-25 17:12:22.209528,599620864952414524,-87.00
2025-12-25 17:12:22.209528,599620864952414524,-87.00
2025-12-25 17:12:22.209528,599620864952414524,-85.00
2025-12-25 17:12:22.209528,599620864952414524,-87.00
2025-12-25 17:12:22.209528,599620864952414524,-89.00
2025-12-25 17:12:22.209528,599620864952414524,-85.00
2025-12-25 17:12:22.209528,599620864952414524,-73.00
2025-12-25 17:12:22.209528,599620864952414524,-68.00
2025-12-25 17:12:22.209528,599620864952414524,-73.00
2025-12-25 17:12:22.209528,599620864952414524,-73.00
2025-12-25 17:12:22.209528,599620864952414524,-68.00
2025-12-25 17:12:22.209528,599620864952414524,-66.00
2025-12-25 17:12:22.209528,599620864952414524,-57.00
2025-12-25 17:12:22.209528,599620864952414524,-50.00
2025-12-25 17:12:22.209528,599620864952414524,-50.00
2025-12-25 17:12:22.209528,599620864952414524,-50.00
2025-12-25 17:12:22.888852,599620865513299761,-50.00
2025-12-25 17:12:22.888852,599620865513299761,-52.00
2025-12-25 17:12:22.888852,599620865513299761,-50.00
2025-12-25 17:12:22.888852,599620865513299761,-41.00
2025-12-25 17:12:22.888852,599620865513299761,-32.00
2025-12-25 17:12:22.888852,599620865513299761,-36.00
2025-12-25 17:12:22.888852,599620865513299761,-39.00
2025-12-25 17:12:22.888852,599620865513299761,-34.00
2025-12-25 17:12:22.888852,599620865513299761,-34.00
2025-12-25 17:12:22.888852,599620865513299761,-48.00
2025-12-25 17:12:22.888852,599620865513299761,-50.00
2025-12-25 17:12:22.888852,599620865513299761,-45.00
2025-12-25 17:12:22.888852,599620865513299761,-50.00
2025-12-25 17:12:22.888852,599620865513299761,-59.00
2025-12-25 17:12:22.888852,599620865513299761,-55.00
2025-12-25 17:12:22.888852,599620865513299761,-50.00
2025-12-25 17:12:22.888852,599620865513299761,-45.00
2025-12-25 17:12:22.888852,599620865513299761,-45.00
2025-12-25 17:12:22.888852,599620865513299761,-62.00
2025-12-25 17:12:22.888852,599620865513299761,-71.00
2025-12-25 17:12:22.888852,599620865513299761,-55.00
2025-12-25 17:12:22.888852,599620865513299761,-39.00
2025-12-25 17:12:22.888852,599620865513299761,-22.00
2025-12-25 17:12:22.888852,599620865513299761,-16.00
2025-12-25 17:12:22.888852,599620865513299761,-34.00
2025-12-25 17:12:22.888852,599620865513299761,-55.00
2025-12-25 17:12:22.888852,599620865513299761,-59.00
2025-12-25 17:12:22.888852,599620865513299761,-55.00
2025-12-25 17:12:22.888852,599620865513299761,-55.00
2025-12-25 17:12:22.888852,599620865513299761,-57.00
2025-12-25 17:12:22.888852,599620865513299761,-68.00
2025-12-25 17:12:22.888852,599620865513299761,-75.00
2025-12-25 17:12:22.888852,599620865513299761,-66.00
2025-12-25 17:12:22.888852,599620865513299761,-48.00
2025-12-25 17:12:22.888852,599620865513299761,9.00
2025-12-25 17:12:22.888852,599620865513299761,202.00
2025-12-25 17:12:22.888852,599620865513299761,544.00
2025-12-25 17:12:22.888852,599620865513299761,629.00
2025-12-25 17:12:22.888852,599620865513299761,-73.00
2025-12-25 17:12:22.888852,599620865513299761,-1002.00
2025-12-25 17:12:22.888852,599620865513299761,-974.00
2025-12-25 17:12:22.888852,599620865513299761,-328.00
2025-12-25 17:12:22.888852,599620865513299761,-85.00
2025-12-25 17:12:22.888852,599620865513299761,-89.00
2025-12-25 17:12:22.888852,599620865513299761,0.00
2025-12-25 17:12:22.888852,599620865513299761,25.00
2025-12-25 17:12:22.888852,599620865513299761,-4.00
2025-12-25 17:12:22.888852,599620865513299761,27.00
2025-12-25 17:12:22.888852,599620865513299761,52.00
2025-12-25 17:12:22.888852,599620865513299761,34.00
2025-12-25 17:12:22.888852,599620865513299761,36.00
2025-12-25 17:12:22.888852,599620865513299761,52.00
2025-12-25 17:12:22.888852,599620865513299761,52.00
2025-12-25 17:12:22.888852,599620865513299761,48.00
2025-12-25 17:12:22.888852,599620865513299761,52.00
2025-12-25 17:12:22.888852,599620865513299761,55.00
2025-12-25 17:12:22.888852,599620865513299761,52.00
2025-12-25 17:12:22.888852,599620865513299761,62.00
2025-12-25 17:12:22.888852,599620865513299761,80.00
2025-12-25 17:12:22.888852,599620865513299761,89.00
2025-12-25 17:12:22.888852,599620865513299761,94.00
2025-12-25 17:12:22.888852,599620865513299761,105.00
2025-12-25 17:12:22.888852,599620865513299761,117.00
2025-12-25 17:12:22.888852,599620865513299761,128.00
2025-12-25 17:12:22.888852,599620865513299761,140.00
2025-12-25 17:12:22.888852,599620865513299761,142.00
2025-12-25 17:12:22.888852,599620865513299761,154.00
2025-12-25 17:12:22.888852,599620865513299761,172.00
2025-12-25 17:12:22.888852,599620865513299761,165.00
2025-12-25 17:12:22.888852,599620865513299761,137.00
2025-12-25 17:12:22.888852,599620865513299761,110.00
2025-12-25 17:12:22.888852,599620865513299761,68.00
2025-12-25 17:12:22.888852,599620865513299761,16.00
2025-12-25 17:12:23.512523,599620866074184996,-27.00
2025-12-25 17:12:23.512523,599620866074184996,-64.00
2025-12-25 17:12:23.512523,599620866074184996,-91.00
2025-12-25 17:12:23.512523,599620866074184996,-103.00
2025-12-25 17:12:23.512523,599620866074184996,-119.00
2025-12-25 17:12:23.512523,599620866074184996,-131.00
2025-12-25 17:12:23.512523,599620866074184996,-119.00
2025-12-25 17:12:23.512523,599620866074184996,-110.00
2025-12-25 17:12:23.512523,599620866074184996,-117.00
2025-12-25 17:12:23.512523,599620866074184996,-119.00
2025-12-25 17:12:23.512523,599620866074184996,-105.00
2025-12-25 17:12:23.512523,599620866074184996,-94.00
2025-12-25 17:12:23.512523,599620866074184996,-94.00
2025-12-25 17:12:23.512523,599620866074184996,-73.00
2025-12-25 17:12:23.512523,599620866074184996,-48.00
2025-12-25 17:12:23.512523,599620866074184996,-52.00
2025-12-25 17:12:23.512523,599620866074184996,-59.00
2025-12-25 17:12:23.512523,599620866074184996,-50.00
2025-12-25 17:12:23.512523,599620866074184996,-45.00
2025-12-25 17:12:23.512523,599620866074184996,-39.00
2025-12-25 17:12:23.512523,599620866074184996,-32.00
2025-12-25 17:12:23.512523,599620866074184996,-36.00
2025-12-25 17:12:23.512523,599620866074184996,-39.00
2025-12-25 17:12:23.512523,599620866074184996,-39.00
2025-12-25 17:12:23.512523,599620866074184996,-36.00
2025-12-25 17:12:23.512523,599620866074184996,-32.00
2025-12-25 17:12:23.512523,599620866074184996,-29.00
2025-12-25 17:12:23.512523,599620866074184996,-39.00
2025-12-25 17:12:23.512523,599620866074184996,-43.00
2025-12-25 17:12:23.512523,599620866074184996,-43.00
2025-12-25 17:12:23.512523,599620866074184996,-39.00
2025-12-25 17:12:23.512523,599620866074184996,-41.00
2025-12-25 17:12:23.512523,599620866074184996,-45.00
2025-12-25 17:12:23.512523,599620866074184996,-48.00
2025-12-25 17:12:23.512523,599620866074184996,-45.00
2025-12-25 17:12:23.512523,599620866074184996,-48.00
2025-12-25 17:12:23.512523,599620866074184996,-52.00
2025-12-25 17:12:23.512523,599620866074184996,-55.00
2025-12-25 17:12:23.512523,599620866074184996,-52.00
2025-12-25 17:12:23.512523,599620866074184996,-41.00
2025-12-25 17:12:23.512523,599620866074184996,-13.00
2025-12-25 17:12:23.512523,599620866074184996,6.00
2025-12-25 17:12:23.512523,599620866074184996,-9.00
2025-12-25 17:12:23.512523,599620866074184996,-36.00
2025-12-25 17:12:23.512523,599620866074184996,-36.00
2025-12-25 17:12:23.512523,599620866074184996,-32.00
2025-12-25 17:12:23.512523,599620866074184996,-41.00
2025-12-25 17:12:23.512523,599620866074184996,-45.00
2025-12-25 17:12:23.512523,599620866074184996,-45.00
2025-12-25 17:12:23.512523,599620866074184996,-45.00
2025-12-25 17:12:23.512523,599620866074184996,-41.00
2025-12-25 17:12:23.512523,599620866074184996,-36.00
2025-12-25 17:12:23.512523,599620866074184996,-9.00
2025-12-25 17:12:23.512523,599620866074184996,133.00
2025-12-25 17:12:23.512523,599620866074184996,464.00
2025-12-25 17:12:23.512523,599620866074184996,714.00
2025-12-25 17:12:23.512523,599620866074184996,259.00
2025-12-25 17:12:23.512523,599620866074184996,-770.00
2025-12-25 17:12:23.512523,599620866074184996,-1126.00
2025-12-25 17:12:23.512523,599620866074184996,-521.00
2025-12-25 17:12:23.512523,599620866074184996,-89.00
2025-12-25 17:12:23.512523,599620866074184996,-85.00
2025-12-25 17:12:23.512523,599620866074184996,-11.00
2025-12-25 17:12:23.512523,599620866074184996,57.00
2025-12-25 17:12:23.512523,599620866074184996,16.00
2025-12-25 17:12:23.512523,599620866074184996,18.00
2025-12-25 17:12:23.512523,599620866074184996,48.00
2025-12-25 17:12:23.512523,599620866074184996,41.00
2025-12-25 17:12:23.512523,599620866074184996,41.00
2025-12-25 17:12:23.512523,599620866074184996,48.00
2025-12-25 17:12:23.512523,599620866074184996,48.00
2025-12-25 17:12:23.512523,599620866074184996,52.00
2025-12-25 17:12:23.512523,599620866074184996,55.00
2025-12-25 17:12:23.921652,599620866635054973,55.00
2025-12-25 17:12:23.921652,599620866635054973,64.00
2025-12-25 17:12:23.921652,599620866635054973,68.00
2025-12-25 17:12:23.921652,599620866635054973,68.00
2025-12-25 17:12:23.921652,599620866635054973,80.00
2025-12-25 17:12:23.921652,599620866635054973,94.00
2025-12-25 17:12:23.921652,599620866635054973,101.00
2025-12-25 17:12:23.921652,599620866635054973,108.00
2025-12-25 17:12:23.921652,599620866635054973,119.00
2025-12-25 17:12:23.921652,599620866635054973,131.00
2025-12-25 17:12:23.921652,599620866635054973,140.00
2025-12-25 17:12:23.921652,599620866635054973,151.00
2025-12-25 17:12:23.921652,599620866635054973,154.00
2025-12-25 17:12:23.921652,599620866635054973,142.00
2025-12-25 17:12:23.921652,599620866635054973,128.00
2025-12-25 17:12:23.921652,599620866635054973,112.00
2025-12-25 17:12:23.921652,599620866635054973,85.00
2025-12-25 17:12:23.921652,599620866635054973,39.00
2025-12-25 17:12:23.921652,599620866635054973,-18.00
2025-12-25 17:12:23.921652,599620866635054973,-62.00
2025-12-25 17:12:23.921652,599620866635054973,-82.00
2025-12-25 17:12:23.921652,599620866635054973,-96.00
2025-12-25 17:12:23.921652,599620866635054973,-94.00
2025-12-25 17:12:23.921652,599620866635054973,-89.00
2025-12-25 17:12:23.921652,599620866635054973,-96.00
2025-12-25 17:12:23.921652,599620866635054973,-101.00
2025-12-25 17:12:23.921652,599620866635054973,-91.00
2025-12-25 17:12:23.921652,599620866635054973,-85.00
2025-12-25 17:12:23.921652,599620866635054973,-85.00
2025-12-25 17:12:23.921652,599620866635054973,-87.00
2025-12-25 17:12:23.921652,599620866635054973,-80.00
2025-12-25 17:12:23.921652,599620866635054973,-66.00
2025-12-25 17:12:23.921652,599620866635054973,-57.00
2025-12-25 17:12:23.921652,599620866635054973,-52.00
2025-12-25 17:12:23.921652,599620866635054973,-48.00
2025-12-25 17:12:23.921652,599620866635054973,-55.00
2025-12-25 17:12:23.921652,599620866635054973,-52.00
2025-12-25 17:12:23.921652,599620866635054973,-45.00
2025-12-25 17:12:23.921652,599620866635054973,-52.00
2025-12-25 17:12:23.921652,599620866635054973,-50.00
2025-12-25 17:12:23.921652,599620866635054973,-39.00
2025-12-25 17:12:23.921652,599620866635054973,-48.00
2025-12-25 17:12:23.921652,599620866635054973,-43.00
2025-12-25 17:12:23.921652,599620866635054973,-20.00
2025-12-25 17:12:23.921652,599620866635054973,-32.00
2025-12-25 17:12:23.921652,599620866635054973,-43.00
2025-12-25 17:12:23.921652,599620866635054973,-25.00
2025-12-25 17:12:23.921652,599620866635054973,-22.00
2025-12-25 17:12:23.921652,599620866635054973,-39.00
2025-12-25 17:12:23.921652,599620866635054973,-43.00
2025-12-25 17:12:23.921652,599620866635054973,-36.00
2025-12-25 17:12:23.921652,599620866635054973,-34.00
2025-12-25 17:12:23.921652,599620866635054973,-34.00
2025-12-25 17:12:23.921652,599620866635054973,-41.00
2025-12-25 17:12:23.921652,599620866635054973,-41.00
2025-12-25 17:12:23.921652,599620866635054973,-43.00
2025-12-25 17:12:23.921652,599620866635054973,-48.00
2025-12-25 17:12:23.921652,599620866635054973,-41.00
2025-12-25 17:12:23.921652,599620866635054973,-34.00
2025-12-25 17:12:23.921652,599620866635054973,-22.00
2025-12-25 17:12:23.921652,599620866635054973,-2.00
2025-12-25 17:12:23.921652,599620866635054973,-9.00
2025-12-25 17:12:23.921652,599620866635054973,-41.00
2025-12-25 17:12:23.921652,599620866635054973,-48.00
2025-12-25 17:12:23.921652,599620866635054973,-41.00
2025-12-25 17:12:23.921652,599620866635054973,-50.00
2025-12-25 17:12:23.921652,599620866635054973,-50.00
2025-12-25 17:12:23.921652,599620866635054973,-43.00
2025-12-25 17:12:23.921652,599620866635054973,-48.00
2025-12-25 17:12:23.921652,599620866635054973,-50.00
2025-12-25 17:12:23.921652,599620866635054973,-45.00
2025-12-25 17:12:23.921652,599620866635054973,-6.00
2025-12-25 17:12:23.921652,599620866635054973,167.00
2025-12-25 17:12:24.549921,599620867195935122,533.00
2025-12-25 17:12:24.549921,599620867195935122,721.00
2025-12-25 17:12:24.549921,599620867195935122,103.00
2025-12-25 17:12:24.549921,599620867195935122,-931.00
2025-12-25 17:12:24.549921,599620867195935122,-1073.00
2025-12-25 17:12:24.549921,599620867195935122,-400.00
2025-12-25 17:12:24.549921,599620867195935122,-64.00
2025-12-25 17:12:24.549921,599620867195935122,-73.00
2025-12-25 17:12:24.549921,599620867195935122,20.00
2025-12-25 17:12:24.549921,599620867195935122,66.00
2025-12-25 17:12:24.549921,599620867195935122,20.00
2025-12-25 17:12:24.549921,599620867195935122,32.00
2025-12-25 17:12:24.549921,599620867195935122,62.00
2025-12-25 17:12:24.549921,599620867195935122,52.00
2025-12-25 17:12:24.549921,599620867195935122,50.00
2025-12-25 17:12:24.549921,599620867195935122,57.00
2025-12-25 17:12:24.549921,599620867195935122,55.00
2025-12-25 17:12:24.549921,599620867195935122,57.00
2025-12-25 17:12:24.549921,599620867195935122,68.00
2025-12-25 17:12:24.549921,599620867195935122,71.00
2025-12-25 17:12:24.549921,599620867195935122,71.00
2025-12-25 17:12:24.549921,599620867195935122,78.00
2025-12-25 17:12:24.549921,599620867195935122,80.00
2025-12-25 17:12:24.549921,599620867195935122,85.00
2025-12-25 17:12:24.549921,599620867195935122,103.00
2025-12-25 17:12:24.549921,599620867195935122,119.00
2025-12-25 17:12:24.549921,599620867195935122,126.00
2025-12-25 17:12:24.549921,599620867195935122,135.00
2025-12-25 17:12:24.549921,599620867195935122,144.00
2025-12-25 17:12:24.549921,599620867195935122,149.00
2025-12-25 17:12:24.549921,599620867195935122,156.00
2025-12-25 17:12:24.549921,599620867195935122,158.00
2025-12-25 17:12:24.549921,599620867195935122,149.00
2025-12-25 17:12:24.549921,599620867195935122,131.00
2025-12-25 17:12:24.549921,599620867195935122,103.00
2025-12-25 17:12:24.549921,599620867195935122,62.00
2025-12-25 17:12:24.549921,599620867195935122,18.00
2025-12-25 17:12:24.549921,599620867195935122,-34.00
2025-12-25 17:12:24.549921,599620867195935122,-75.00
2025-12-25 17:12:24.549921,599620867195935122,-91.00
2025-12-25 17:12:24.549921,599620867195935122,-110.00
2025-12-25 17:12:24.549921,599620867195935122,-126.00
2025-12-25 17:12:24.549921,599620867195935122,-124.00
2025-12-25 17:12:24.549921,599620867195935122,-119.00
2025-12-25 17:12:24.549921,599620867195935122,-119.00
2025-12-25 17:12:24.549921,599620867195935122,-119.00
2025-12-25 17:12:24.549921,599620867195935122,-124.00
2025-12-25 17:12:24.549921,599620867195935122,-121.00
2025-12-25 17:12:24.549921,599620867195935122,-112.00
2025-12-25 17:12:24.549921,599620867195935122,-105.00
2025-12-25 17:12:24.549921,599620867195935122,-110.00
2025-12-25 17:12:24.549921,599620867195935122,-110.00
2025-12-25 17:12:24.549921,599620867195935122,-101.00
2025-12-25 17:12:24.549921,599620867195935122,-98.00
2025-12-25 17:12:24.549921,599620867195935122,-96.00
2025-12-25 17:12:24.549921,599620867195935122,-87.00
2025-12-25 17:12:24.549921,599620867195935122,-78.00
2025-12-25 17:12:24.549921,599620867195935122,-73.00
2025-12-25 17:12:24.549921,599620867195935122,-73.00
2025-12-25 17:12:24.549921,599620867195935122,-73.00
2025-12-25 17:12:24.549921,599620867195935122,-64.00
2025-12-25 17:12:24.549921,599620867195935122,-59.00
2025-12-25 17:12:24.549921,599620867195935122,-66.00
2025-12-25 17:12:24.549921,599620867195935122,-73.00
2025-12-25 17:12:24.549921,599620867195935122,-68.00
2025-12-25 17:12:24.549921,599620867195935122,-62.00
2025-12-25 17:12:24.549921,599620867195935122,-57.00
2025-12-25 17:12:24.549921,599620867195935122,-55.00
2025-12-25 17:12:24.549921,599620867195935122,-57.00
2025-12-25 17:12:24.549921,599620867195935122,-62.00
2025-12-25 17:12:24.549921,599620867195935122,-62.00
2025-12-25 17:12:24.549921,599620867195935122,-57.00
2025-12-25 17:12:24.549921,599620867195935122,-52.00
2025-12-25 17:12:25.233292,599620867756815271,-55.00
2025-12-25 17:12:25.233292,599620867756815271,-57.00
2025-12-25 17:12:25.233292,599620867756815271,-50.00
2025-12-25 17:12:25.233292,599620867756815271,-41.00
2025-12-25 17:12:25.233292,599620867756815271,-43.00
2025-12-25 17:12:25.233292,599620867756815271,-48.00
2025-12-25 17:12:25.233292,599620867756815271,-41.00
2025-12-25 17:12:25.233292,599620867756815271,-32.00
2025-12-25 17:12:25.233292,599620867756815271,-18.00
2025-12-25 17:12:25.233292,599620867756815271,2.00
2025-12-25 17:12:25.233292,599620867756815271,2.00
2025-12-25 17:12:25.233292,599620867756815271,-4.00
2025-12-25 17:12:25.233292,599620867756815271,-11.00
2025-12-25 17:12:25.233292,599620867756815271,-22.00
2025-12-25 17:12:25.233292,599620867756815271,-34.00
2025-12-25 17:12:25.233292,599620867756815271,-27.00
2025-12-25 17:12:25.233292,599620867756815271,-6.00
2025-12-25 17:12:25.233292,599620867756815271,6.00
2025-12-25 17:12:25.233292,599620867756815271,4.00
2025-12-25 17:12:25.233292,599620867756815271,0.00
2025-12-25 17:12:25.233292,599620867756815271,22.00
2025-12-25 17:12:25.233292,599620867756815271,172.00
2025-12-25 17:12:25.233292,599620867756815271,526.00
2025-12-25 17:12:25.233292,599620867756815271,788.00
2025-12-25 17:12:25.233292,599620867756815271,298.00
2025-12-25 17:12:25.233292,599620867756815271,-788.00
2025-12-25 17:12:25.233292,599620867756815271,-1110.00
2025-12-25 17:12:25.233292,599620867756815271,-402.00
2025-12-25 17:12:25.233292,599620867756815271,39.00
2025-12-25 17:12:25.233292,599620867756815271,-34.00
2025-12-25 17:12:25.233292,599620867756815271,6.00
2025-12-25 17:12:25.233292,599620867756815271,87.00
2025-12-25 17:12:25.233292,599620867756815271,43.00
2025-12-25 17:12:25.233292,599620867756815271,39.00
2025-12-25 17:12:25.233292,599620867756815271,80.00
2025-12-25 17:12:25.233292,599620867756815271,75.00
2025-12-25 17:12:25.233292,599620867756815271,57.00
2025-12-25 17:12:25.233292,599620867756815271,66.00
2025-12-25 17:12:25.233292,599620867756815271,68.00
2025-12-25 17:12:25.233292,599620867756815271,66.00
2025-12-25 17:12:25.233292,599620867756815271,71.00
2025-12-25 17:12:25.233292,599620867756815271,75.00
2025-12-25 17:12:25.233292,599620867756815271,75.00
2025-12-25 17:12:25.233292,599620867756815271,73.00
2025-12-25 17:12:25.233292,599620867756815271,75.00
2025-12-25 17:12:25.233292,599620867756815271,87.00
2025-12-25 17:12:25.233292,599620867756815271,98.00
2025-12-25 17:12:25.233292,599620867756815271,103.00
2025-12-25 17:12:25.233292,599620867756815271,110.00
2025-12-25 17:12:25.233292,599620867756815271,124.00
2025-12-25 17:12:25.233292,599620867756815271,131.00
2025-12-25 17:12:25.233292,599620867756815271,137.00
2025-12-25 17:12:25.233292,599620867756815271,144.00
2025-12-25 17:12:25.233292,599620867756815271,147.00
2025-12-25 17:12:25.233292,599620867756815271,137.00
2025-12-25 17:12:25.233292,599620867756815271,124.00
2025-12-25 17:12:25.233292,599620867756815271,98.00
2025-12-25 17:12:25.233292,599620867756815271,64.00
2025-12-25 17:12:25.233292,599620867756815271,18.00
2025-12-25 17:12:25.233292,599620867756815271,-29.00
2025-12-25 17:12:25.233292,599620867756815271,-66.00
2025-12-25 17:12:25.233292,599620867756815271,-91.00
2025-12-25 17:12:25.233292,599620867756815271,-119.00
2025-12-25 17:12:25.233292,599620867756815271,-133.00
2025-12-25 17:12:25.233292,599620867756815271,-124.00
2025-12-25 17:12:25.233292,599620867756815271,-117.00
2025-12-25 17:12:25.233292,599620867756815271,-121.00
2025-12-25 17:12:25.233292,599620867756815271,-124.00
2025-12-25 17:12:25.233292,599620867756815271,-124.00
2025-12-25 17:12:25.233292,599620867756815271,-119.00
2025-12-25 17:12:25.233292,599620867756815271,-108.00
2025-12-25 17:12:25.233292,599620867756815271,-108.00
2025-12-25 17:12:25.233292,599620867756815271,-114.00
2025-12-25 17:12:25.647055,599620868317695420,-108.00
2025-12-25 17:12:25.647055,599620868317695420,-103.00
2025-12-25 17:12:25.647055,599620868317695420,-94.00
2025-12-25 17:12:25.647055,599620868317695420,-82.00
2025-12-25 17:12:25.647055,599620868317695420,-85.00
2025-12-25 17:12:25.647055,599620868317695420,-89.00
2025-12-25 17:12:25.647055,599620868317695420,-87.00
2025-12-25 17:12:25.647055,599620868317695420,-75.00
2025-12-25 17:12:25.647055,599620868317695420,-57.00
2025-12-25 17:12:25.647055,599620868317695420,-48.00
2025-12-25 17:12:25.647055,599620868317695420,-41.00
2025-12-25 17:12:25.647055,599620868317695420,-34.00
2025-12-25 17:12:25.647055,599620868317695420,-36.00
2025-12-25 17:12:25.647055,599620868317695420,-32.00
2025-12-25 17:12:25.647055,599620868317695420,-16.00
2025-12-25 17:12:25.647055,599620868317695420,-16.00
2025-12-25 17:12:25.647055,599620868317695420,-20.00
2025-12-25 17:12:25.647055,599620868317695420,-18.00
2025-12-25 17:12:25.647055,599620868317695420,-16.00
2025-12-25 17:12:25.647055,599620868317695420,-11.00
2025-12-25 17:12:25.647055,599620868317695420,-6.00
2025-12-25 17:12:25.647055,599620868317695420,-9.00
2025-12-25 17:12:25.647055,599620868317695420,-16.00
2025-12-25 17:12:25.647055,599620868317695420,-16.00
2025-12-25 17:12:25.647055,599620868317695420,-16.00
2025-12-25 17:12:25.647055,599620868317695420,-11.00
2025-12-25 17:12:25.647055,599620868317695420,2.00
2025-12-25 17:12:25.647055,599620868317695420,2.00
2025-12-25 17:12:25.647055,599620868317695420,-2.00
2025-12-25 17:12:25.647055,599620868317695420,0.00
2025-12-25 17:12:25.647055,599620868317695420,-6.00
2025-12-25 17:12:25.647055,599620868317695420,-13.00
2025-12-25 17:12:25.647055,599620868317695420,-2.00
2025-12-25 17:12:25.647055,599620868317695420,9.00
2025-12-25 17:12:25.647055,599620868317695420,18.00
2025-12-25 17:12:25.647055,599620868317695420,27.00
2025-12-25 17:12:25.647055,599620868317695420,16.00
2025-12-25 17:12:25.647055,599620868317695420,-9.00
2025-12-25 17:12:25.647055,599620868317695420,-18.00
2025-12-25 17:12:25.647055,599620868317695420,-18.00
2025-12-25 17:12:25.647055,599620868317695420,-22.00
2025-12-25 17:12:25.647055,599620868317695420,-25.00
2025-12-25 17:12:25.647055,599620868317695420,-22.00
2025-12-25 17:12:25.647055,599620868317695420,-25.00
2025-12-25 17:12:25.647055,599620868317695420,-25.00
2025-12-25 17:12:25.647055,599620868317695420,-27.00
2025-12-25 17:12:25.647055,599620868317695420,0.00
2025-12-25 17:12:25.647055,599620868317695420,158.00
2025-12-25 17:12:25.647055,599620868317695420,510.00
2025-12-25 17:12:25.647055,599620868317695420,721.00
2025-12-25 17:12:25.647055,599620868317695420,167.00
2025-12-25 17:12:25.647055,599620868317695420,-869.00
2025-12-25 17:12:25.647055,599620868317695420,-1080.00
2025-12-25 17:12:25.647055,599620868317695420,-393.00
2025-12-25 17:12:25.647055,599620868317695420,-11.00
2025-12-25 17:12:25.647055,599620868317695420,-62.00
2025-12-25 17:12:25.647055,599620868317695420,-6.00
2025-12-25 17:12:25.647055,599620868317695420,55.00
2025-12-25 17:12:25.647055,599620868317695420,18.00
2025-12-25 17:12:25.647055,599620868317695420,20.00
2025-12-25 17:12:25.647055,599620868317695420,50.00
2025-12-25 17:12:25.647055,599620868317695420,39.00
2025-12-25 17:12:25.647055,599620868317695420,29.00
2025-12-25 17:12:25.647055,599620868317695420,41.00
2025-12-25 17:12:25.647055,599620868317695420,48.00
2025-12-25 17:12:25.647055,599620868317695420,50.00
2025-12-25 17:12:25.647055,599620868317695420,52.00
2025-12-25 17:12:25.647055,599620868317695420,52.00
2025-12-25 17:12:25.647055,599620868317695420,55.00
2025-12-25 17:12:25.647055,599620868317695420,57.00
2025-12-25 17:12:25.647055,599620868317695420,66.00
2025-12-25 17:12:25.647055,599620868317695420,75.00
2025-12-25 17:12:25.647055,599620868317695420,80.00
2025-12-25 17:12:26.216170,599620868878575571,89.00
2025-12-25 17:12:26.216170,599620868878575571,98.00
2025-12-25 17:12:26.216170,599620868878575571,108.00
2025-12-25 17:12:26.216170,599620868878575571,119.00
2025-12-25 17:12:26.216170,599620868878575571,144.00
2025-12-25 17:12:26.216170,599620868878575571,165.00
2025-12-25 17:12:26.216170,599620868878575571,177.00
2025-12-25 17:12:26.216170,599620868878575571,174.00
2025-12-25 17:12:26.216170,599620868878575571,156.00
2025-12-25 17:12:26.216170,599620868878575571,128.00
2025-12-25 17:12:26.216170,599620868878575571,96.00
2025-12-25 17:12:26.216170,599620868878575571,57.00
2025-12-25 17:12:26.216170,599620868878575571,13.00
2025-12-25 17:12:26.216170,599620868878575571,-29.00
2025-12-25 17:12:26.216170,599620868878575571,-62.00
2025-12-25 17:12:26.216170,599620868878575571,-85.00
2025-12-25 17:12:26.216170,599620868878575571,-101.00
2025-12-25 17:12:26.216170,599620868878575571,-98.00
2025-12-25 17:12:26.216170,599620868878575571,-94.00
2025-12-25 17:12:26.216170,599620868878575571,-101.00
2025-12-25 17:12:26.216170,599620868878575571,-105.00
2025-12-25 17:12:26.216170,599620868878575571,-103.00
2025-12-25 17:12:26.216170,599620868878575571,-98.00
2025-12-25 17:12:26.216170,599620868878575571,-96.00
2025-12-25 17:12:26.216170,599620868878575571,-96.00
2025-12-25 17:12:26.216170,599620868878575571,-98.00
2025-12-25 17:12:26.216170,599620868878575571,-98.00
2025-12-25 17:12:26.216170,599620868878575571,-94.00
2025-12-25 17:12:26.216170,599620868878575571,-87.00
2025-12-25 17:12:26.216170,599620868878575571,-82.00
2025-12-25 17:12:26.216170,599620868878575571,-75.00
2025-12-25 17:12:26.216170,599620868878575571,-75.00
2025-12-25 17:12:26.216170,599620868878575571,-80.00
2025-12-25 17:12:26.216170,599620868878575571,-75.00
2025-12-25 17:12:26.216170,599620868878575571,-66.00
2025-12-25 17:12:26.216170,599620868878575571,-68.00
2025-12-25 17:12:26.216170,599620868878575571,-78.00
2025-12-25 17:12:26.216170,599620868878575571,-78.00
2025-12-25 17:12:26.216170,599620868878575571,-73.00
2025-12-25 17:12:26.216170,599620868878575571,-68.00
2025-12-25 17:12:26.216170,599620868878575571,-68.00
2025-12-25 17:12:26.216170,599620868878575571,-73.00
2025-12-25 17:12:26.216170,599620868878575571,-73.00
2025-12-25 17:12:26.216170,599620868878575571,-73.00
2025-12-25 17:12:26.216170,599620868878575571,-73.00
2025-12-25 17:12:26.216170,599620868878575571,-71.00
2025-12-25 17:12:26.216170,599620868878575571,-71.00
2025-12-25 17:12:26.216170,599620868878575571,-68.00
2025-12-25 17:12:26.216170,599620868878575571,-64.00
2025-12-25 17:12:26.216170,599620868878575571,-66.00
2025-12-25 17:12:26.216170,599620868878575571,-66.00
2025-12-25 17:12:26.216170,599620868878575571,-55.00
2025-12-25 17:12:26.216170,599620868878575571,-50.00
2025-12-25 17:12:26.216170,599620868878575571,-57.00
2025-12-25 17:12:26.216170,599620868878575571,-57.00
2025-12-25 17:12:26.216170,599620868878575571,-57.00
2025-12-25 17:12:26.216170,599620868878575571,-64.00
2025-12-25 17:12:26.216170,599620868878575571,-59.00
2025-12-25 17:12:26.216170,599620868878575571,-52.00
2025-12-25 17:12:26.216170,599620868878575571,-55.00
2025-12-25 17:12:26.216170,599620868878575571,-59.00
2025-12-25 17:12:26.216170,599620868878575571,-62.00
2025-12-25 17:12:26.216170,599620868878575571,-66.00
2025-12-25 17:12:26.216170,599620868878575571,-64.00
2025-12-25 17:12:26.216170,599620868878575571,-55.00
2025-12-25 17:12:26.216170,599620868878575571,-45.00
2025-12-25 17:12:26.216170,599620868878575571,-27.00
2025-12-25 17:12:26.216170,599620868878575571,-13.00
2025-12-25 17:12:26.216170,599620868878575571,-34.00
2025-12-25 17:12:26.216170,599620868878575571,-59.00
2025-12-25 17:12:26.216170,599620868878575571,-50.00
2025-12-25 17:12:26.216170,599620868878575571,-41.00
2025-12-25 17:12:26.216170,599620868878575571,-52.00
2025-12-25 17:12:26.842969,599620869439455720,-55.00
2025-12-25 17:12:26.842969,599620869439455720,-45.00
2025-12-25 17:12:26.842969,599620869439455720,-48.00
2025-12-25 17:12:26.842969,599620869439455720,-55.00
2025-12-25 17:12:26.842969,599620869439455720,-55.00
2025-12-25 17:12:26.842969,599620869439455720,-25.00
2025-12-25 17:12:26.842969,599620869439455720,119.00
2025-12-25 17:12:26.842969,599620869439455720,457.00
2025-12-25 17:12:26.842969,599620869439455720,694.00
2025-12-25 17:12:26.842969,599620869439455720,218.00
2025-12-25 17:12:26.842969,599620869439455720,-793.00
2025-12-25 17:12:26.842969,599620869439455720,-1098.00
2025-12-25 17:12:26.842969,599620869439455720,-480.00
2025-12-25 17:12:26.842969,599620869439455720,-59.00
2025-12-25 17:12:26.842969,599620869439455720,-71.00
2025-12-25 17:12:26.842969,599620869439455720,-22.00
2025-12-25 17:12:26.842969,599620869439455720,39.00
2025-12-25 17:12:26.842969,599620869439455720,4.00
2025-12-25 17:12:26.842969,599620869439455720,4.00
2025-12-25 17:12:26.842969,599620869439455720,36.00
2025-12-25 17:12:26.842969,599620869439455720,32.00
2025-12-25 17:12:26.842969,599620869439455720,22.00
2025-12-25 17:12:26.842969,599620869439455720,34.00
2025-12-25 17:12:26.842969,599620869439455720,34.00
2025-12-25 17:12:26.842969,599620869439455720,29.00
2025-12-25 17:12:26.842969,599620869439455720,39.00
2025-12-25 17:12:26.842969,599620869439455720,43.00
2025-12-25 17:12:26.842969,599620869439455720,41.00
2025-12-25 17:12:26.842969,599620869439455720,43.00
2025-12-25 17:12:26.842969,599620869439455720,52.00
2025-12-25 17:12:26.842969,599620869439455720,64.00
2025-12-25 17:12:26.842969,599620869439455720,73.00
2025-12-25 17:12:26.842969,599620869439455720,82.00
2025-12-25 17:12:26.842969,599620869439455720,91.00
2025-12-25 17:12:26.842969,599620869439455720,94.00
2025-12-25 17:12:26.842969,599620869439455720,98.00
2025-12-25 17:12:26.842969,599620869439455720,112.00
2025-12-25 17:12:26.842969,599620869439455720,119.00
2025-12-25 17:12:26.842969,599620869439455720,121.00
2025-12-25 17:12:26.842969,599620869439455720,124.00
2025-12-25 17:12:26.842969,599620869439455720,112.00
2025-12-25 17:12:26.842969,599620869439455720,89.00
2025-12-25 17:12:26.842969,599620869439455720,55.00
2025-12-25 17:12:26.842969,599620869439455720,13.00
2025-12-25 17:12:26.842969,599620869439455720,-34.00
2025-12-25 17:12:26.842969,599620869439455720,-78.00
2025-12-25 17:12:26.842969,599620869439455720,-112.00
2025-12-25 17:12:26.842969,599620869439455720,-133.00
2025-12-25 17:12:26.842969,599620869439455720,-140.00
2025-12-25 17:12:26.842969,599620869439455720,-133.00
2025-12-25 17:12:26.842969,599620869439455720,-126.00
2025-12-25 17:12:26.842969,599620869439455720,-133.00
2025-12-25 17:12:26.842969,599620869439455720,-137.00
2025-12-25 17:12:26.842969,599620869439455720,-133.00
2025-12-25 17:12:26.842969,599620869439455720,-128.00
2025-12-25 17:12:26.842969,599620869439455720,-126.00
2025-12-25 17:12:26.842969,599620869439455720,-119.00
2025-12-25 17:12:26.842969,599620869439455720,-117.00
2025-12-25 17:12:26.842969,599620869439455720,-117.00
2025-12-25 17:12:26.842969,599620869439455720,-121.00
2025-12-25 17:12:26.842969,599620869439455720,-117.00
2025-12-25 17:12:26.842969,599620869439455720,-101.00
2025-12-25 17:12:26.842969,599620869439455720,-89.00
2025-12-25 17:12:26.842969,599620869439455720,-89.00
2025-12-25 17:12:26.842969,599620869439455720,-91.00
2025-12-25 17:12:26.842969,599620869439455720,-87.00
2025-12-25 17:12:26.842969,599620869439455720,-78.00
2025-12-25 17:12:26.842969,599620869439455720,-71.00
2025-12-25 17:12:26.842969,599620869439455720,-66.00
2025-12-25 17:12:26.842969,599620869439455720,-68.00
2025-12-25 17:12:26.842969,599620869439455720,-71.00
2025-12-25 17:12:26.842969,599620869439455720,-71.00
2025-12-25 17:12:26.842969,599620869439455720,-71.00
2025-12-25 17:12:27.372823,599620870000320609,-71.00
2025-12-25 17:12:27.372823,599620870000320609,-71.00
2025-12-25 17:12:27.372823,599620870000320609,-73.00
2025-12-25 17:12:27.372823,599620870000320609,-75.00
2025-12-25 17:12:27.372823,599620870000320609,-75.00
2025-12-25 17:12:27.372823,599620870000320609,-73.00
2025-12-25 17:12:27.372823,599620870000320609,-68.00
2025-12-25 17:12:27.372823,599620870000320609,-73.00
2025-12-25 17:12:27.372823,599620870000320609,-75.00
2025-12-25 17:12:27.372823,599620870000320609,-75.00
2025-12-25 17:12:27.372823,599620870000320609,-73.00
2025-12-25 17:12:27.372823,599620870000320609,-62.00
2025-12-25 17:12:27.372823,599620870000320609,-50.00
2025-12-25 17:12:27.372823,599620870000320609,-55.00
2025-12-25 17:12:27.372823,599620870000320609,-59.00
2025-12-25 17:12:27.372823,599620870000320609,-59.00
2025-12-25 17:12:27.372823,599620870000320609,-52.00
2025-12-25 17:12:27.372823,599620870000320609,-41.00
2025-12-25 17:12:27.372823,599620870000320609,-34.00
2025-12-25 17:12:27.372823,599620870000320609,-39.00
2025-12-25 17:12:27.372823,599620870000320609,-43.00
2025-12-25 17:12:27.372823,599620870000320609,-39.00
2025-12-25 17:12:27.372823,599620870000320609,-41.00
2025-12-25 17:12:27.372823,599620870000320609,-45.00
2025-12-25 17:12:27.372823,599620870000320609,-45.00
2025-12-25 17:12:27.372823,599620870000320609,-43.00
2025-12-25 17:12:27.372823,599620870000320609,-34.00
2025-12-25 17:12:27.372823,599620870000320609,-13.00
2025-12-25 17:12:27.372823,599620870000320609,-2.00
2025-12-25 17:12:27.372823,599620870000320609,-20.00
2025-12-25 17:12:27.372823,599620870000320609,-50.00
2025-12-25 17:12:27.372823,599620870000320609,-55.00
2025-12-25 17:12:27.372823,599620870000320609,-55.00
2025-12-25 17:12:27.372823,599620870000320609,-64.00
2025-12-25 17:12:27.372823,599620870000320609,-64.00
2025-12-25 17:12:27.372823,599620870000320609,-62.00
2025-12-25 17:12:27.372823,599620870000320609,-64.00
2025-12-25 17:12:27.372823,599620870000320609,-66.00
2025-12-25 17:12:27.372823,599620870000320609,-68.00
2025-12-25 17:12:27.372823,599620870000320609,-45.00
2025-12-25 17:12:27.372823,599620870000320609,75.00
2025-12-25 17:12:27.372823,599620870000320609,372.00
2025-12-25 17:12:27.372823,599620870000320609,627.00
2025-12-25 17:12:27.372823,599620870000320609,271.00
2025-12-25 17:12:27.372823,599620870000320609,-701.00
2025-12-25 17:12:27.372823,599620870000320609,-1154.00
2025-12-25 17:12:27.372823,599620870000320609,-593.00
2025-12-25 17:12:27.372823,599620870000320609,-80.00
2025-12-25 17:12:27.372823,599620870000320609,-75.00
2025-12-25 17:12:27.372823,599620870000320609,-62.00
2025-12-25 17:12:27.372823,599620870000320609,11.00
2025-12-25 17:12:27.372823,599620870000320609,-4.00
2025-12-25 17:12:27.372823,599620870000320609,-9.00
2025-12-25 17:12:27.372823,599620870000320609,25.00
2025-12-25 17:12:27.372823,599620870000320609,32.00
2025-12-25 17:12:27.372823,599620870000320609,32.00
2025-12-25 17:12:27.372823,599620870000320609,36.00
2025-12-25 17:12:27.372823,599620870000320609,39.00
2025-12-25 17:12:27.372823,599620870000320609,39.00
2025-12-25 17:12:27.372823,599620870000320609,39.00
2025-12-25 17:12:27.372823,599620870000320609,43.00
2025-12-25 17:12:27.372823,599620870000320609,50.00
2025-12-25 17:12:27.372823,599620870000320609,52.00
2025-12-25 17:12:27.372823,599620870000320609,52.00
2025-12-25 17:12:27.372823,599620870000320609,62.00
2025-12-25 17:12:27.372823,599620870000320609,71.00
2025-12-25 17:12:27.372823,599620870000320609,78.00
2025-12-25 17:12:27.372823,599620870000320609,91.00
2025-12-25 17:12:27.372823,599620870000320609,103.00
2025-12-25 17:12:27.372823,599620870000320609,108.00
2025-12-25 17:12:27.372823,599620870000320609,119.00
2025-12-25 17:12:27.372823,599620870000320609,131.00
2025-12-25 17:12:27.372823,599620870000320609,135.00
2025-12-25 17:12:27.876757,599620870561205844,128.00
2025-12-25 17:12:27.876757,599620870561205844,114.00
2025-12-25 17:12:27.876757,599620870561205844,101.00
2025-12-25 17:12:27.876757,599620870561205844,75.00
2025-12-25 17:12:27.876757,599620870561205844,34.00
2025-12-25 17:12:27.876757,599620870561205844,-13.00
2025-12-25 17:12:27.876757,599620870561205844,-52.00
2025-12-25 17:12:27.876757,599620870561205844,-82.00
2025-12-25 17:12:27.876757,599620870561205844,-98.00
2025-12-25 17:12:27.876757,599620870561205844,-96.00
2025-12-25 17:12:27.876757,599620870561205844,-96.00
2025-12-25 17:12:27.876757,599620870561205844,-98.00
2025-12-25 17:12:27.876757,599620870561205844,-85.00
2025-12-25 17:12:27.876757,599620870561205844,-73.00
2025-12-25 17:12:27.876757,599620870561205844,-66.00
2025-12-25 17:12:27.876757,599620870561205844,-52.00
2025-12-25 17:12:27.876757,599620870561205844,-48.00
2025-12-25 17:12:27.876757,599620870561205844,-52.00
2025-12-25 17:12:27.876757,599620870561205844,-55.00
2025-12-25 17:12:27.876757,599620870561205844,-50.00
2025-12-25 17:12:27.876757,599620870561205844,-48.00
2025-12-25 17:12:27.876757,599620870561205844,-45.00
2025-12-25 17:12:27.876757,599620870561205844,-43.00
2025-12-25 17:12:27.876757,599620870561205844,-43.00
2025-12-25 17:12:27.876757,599620870561205844,-43.00
2025-12-25 17:12:27.876757,599620870561205844,-43.00
2025-12-25 17:12:27.876757,599620870561205844,-45.00
2025-12-25 17:12:27.876757,599620870561205844,-45.00
2025-12-25 17:12:27.876757,599620870561205844,-43.00
2025-12-25 17:12:27.876757,599620870561205844,-45.00
2025-12-25 17:12:27.876757,599620870561205844,-48.00
2025-12-25 17:12:27.876757,599620870561205844,-48.00
2025-12-25 17:12:27.876757,599620870561205844,-48.00
2025-12-25 17:12:27.876757,599620870561205844,-52.00
2025-12-25 17:12:27.876757,599620870561205844,-55.00
2025-12-25 17:12:27.876757,599620870561205844,-57.00
2025-12-25 17:12:27.876757,599620870561205844,-59.00
2025-12-25 17:12:27.876757,599620870561205844,-62.00
2025-12-25 17:12:27.876757,599620870561205844,-62.00
2025-12-25 17:12:27.876757,599620870561205844,-62.00
2025-12-25 17:12:27.876757,599620870561205844,-62.00
2025-12-25 17:12:27.876757,599620870561205844,-66.00
2025-12-25 17:12:27.876757,599620870561205844,-66.00
2025-12-25 17:12:27.876757,599620870561205844,-64.00
2025-12-25 17:12:27.876757,599620870561205844,-62.00
2025-12-25 17:12:27.876757,599620870561205844,-59.00
2025-12-25 17:12:27.876757,599620870561205844,-59.00
2025-12-25 17:12:27.876757,599620870561205844,-55.00
2025-12-25 17:12:27.876757,599620870561205844,-50.00
2025-12-25 17:12:27.876757,599620870561205844,-50.00
2025-12-25 17:12:27.876757,599620870561205844,-50.00
2025-12-25 17:12:27.876757,599620870561205844,-52.00
2025-12-25 17:12:27.876757,599620870561205844,-55.00
2025-12-25 17:12:27.876757,599620870561205844,-55.00
2025-12-25 17:12:27.876757,599620870561205844,-57.00
2025-12-25 17:12:27.876757,599620870561205844,-55.00
2025-12-25 17:12:27.876757,599620870561205844,-55.00
2025-12-25 17:12:27.876757,599620870561205844,-57.00
2025-12-25 17:12:27.876757,599620870561205844,-62.00
2025-12-25 17:12:27.876757,599620870561205844,-64.00
2025-12-25 17:12:27.876757,599620870561205844,-66.00
2025-12-25 17:12:27.876757,599620870561205844,-59.00
2025-12-25 17:12:27.876757,599620870561205844,-43.00
2025-12-25 17:12:27.876757,599620870561205844,-25.00
2025-12-25 17:12:27.876757,599620870561205844,-16.00
2025-12-25 17:12:27.876757,599620870561205844,-34.00
2025-12-25 17:12:27.876757,599620870561205844,-59.00
2025-12-25 17:12:27.876757,599620870561205844,-62.00
2025-12-25 17:12:27.876757,599620870561205844,-64.00
2025-12-25 17:12:27.876757,599620870561205844,-71.00
2025-12-25 17:12:27.876757,599620870561205844,-71.00
2025-12-25 17:12:27.876757,599620870561205844,-73.00
2025-12-25 17:12:27.876757,599620870561205844,-73.00
2025-12-25 17:12:28.461137,599620871122091079,-68.00
2025-12-25 17:12:28.461137,599620871122091079,-71.00
2025-12-25 17:12:28.461137,599620871122091079,-55.00
2025-12-25 17:12:28.461137,599620871122091079,59.00
2025-12-25 17:12:28.461137,599620871122091079,347.00
2025-12-25 17:12:28.461137,599620871122091079,632.00
2025-12-25 17:12:28.461137,599620871122091079,365.00
2025-12-25 17:12:28.461137,599620871122091079,-574.00
2025-12-25 17:12:28.461137,599620871122091079,-1103.00
2025-12-25 17:12:28.461137,599620871122091079,-590.00
2025-12-25 17:12:28.461137,599620871122091079,-57.00
2025-12-25 17:12:28.461137,599620871122091079,-34.00
2025-12-25 17:12:28.461137,599620871122091079,-20.00
2025-12-25 17:12:28.461137,599620871122091079,57.00
2025-12-25 17:12:28.461137,599620871122091079,34.00
2025-12-25 17:12:28.461137,599620871122091079,25.00
2025-12-25 17:12:28.461137,599620871122091079,55.00
2025-12-25 17:12:28.461137,599620871122091079,59.00
2025-12-25 17:12:28.461137,599620871122091079,55.00
2025-12-25 17:12:28.461137,599620871122091079,62.00
2025-12-25 17:12:28.461137,599620871122091079,64.00
2025-12-25 17:12:28.461137,599620871122091079,62.00
2025-12-25 17:12:28.461137,599620871122091079,64.00
2025-12-25 17:12:28.461137,599620871122091079,68.00
2025-12-25 17:12:28.461137,599620871122091079,73.00
2025-12-25 17:12:28.461137,599620871122091079,73.00
2025-12-25 17:12:28.461137,599620871122091079,75.00
2025-12-25 17:12:28.461137,599620871122091079,78.00
2025-12-25 17:12:28.461137,599620871122091079,87.00
2025-12-25 17:12:28.461137,599620871122091079,98.00
2025-12-25 17:12:28.461137,599620871122091079,105.00
2025-12-25 17:12:28.461137,599620871122091079,110.00
2025-12-25 17:12:28.461137,599620871122091079,119.00
2025-12-25 17:12:28.461137,599620871122091079,133.00
2025-12-25 17:12:28.461137,599620871122091079,144.00
2025-12-25 17:12:28.461137,599620871122091079,154.00
2025-12-25 17:12:28.461137,599620871122091079,156.00
2025-12-25 17:12:28.461137,599620871122091079,147.00
2025-12-25 17:12:28.461137,599620871122091079,128.00
2025-12-25 17:12:28.461137,599620871122091079,105.00
2025-12-25 17:12:28.461137,599620871122091079,80.00
2025-12-25 17:12:28.461137,599620871122091079,43.00
2025-12-25 17:12:28.461137,599620871122091079,-2.00
2025-12-25 17:12:28.461137,599620871122091079,-36.00
2025-12-25 17:12:28.461137,599620871122091079,-55.00
2025-12-25 17:12:28.461137,599620871122091079,-73.00
2025-12-25 17:12:28.461137,599620871122091079,-82.00
2025-12-25 17:12:28.461137,599620871122091079,-82.00
2025-12-25 17:12:28.461137,599620871122091079,-82.00
2025-12-25 17:12:28.461137,599620871122091079,-85.00
2025-12-25 17:12:28.461137,599620871122091079,-82.00
2025-12-25 17:12:28.461137,599620871122091079,-80.00
2025-12-25 17:12:28.461137,599620871122091079,-80.00
2025-12-25 17:12:28.461137,599620871122091079,-78.00
2025-12-25 17:12:28.461137,599620871122091079,-78.00
2025-12-25 17:12:28.461137,599620871122091079,-78.00
2025-12-25 17:12:28.461137,599620871122091079,-78.00
2025-12-25 17:12:28.461137,599620871122091079,-73.00
2025-12-25 17:12:28.461137,599620871122091079,-64.00
2025-12-25 17:12:28.461137,599620871122091079,-62.00
2025-12-25 17:12:28.461137,599620871122091079,-66.00
2025-12-25 17:12:28.461137,599620871122091079,-68.00
2025-12-25 17:12:28.461137,599620871122091079,-66.00
2025-12-25 17:12:28.461137,599620871122091079,-68.00
2025-12-25 17:12:28.461137,599620871122091079,-66.00
2025-12-25 17:12:28.461137,599620871122091079,-62.00
2025-12-25 17:12:28.461137,599620871122091079,-62.00
2025-12-25 17:12:28.461137,599620871122091079,-64.00
2025-12-25 17:12:28.461137,599620871122091079,-59.00
2025-12-25 17:12:28.461137,599620871122091079,-62.00
2025-12-25 17:12:28.461137,599620871122091079,-62.00
2025-12-25 17:12:28.461137,599620871122091079,-57.00
2025-12-25 17:12:28.461137,599620871122091079,-59.00
2025-12-25 17:12:29.010849,599620871682945798,-66.00
2025-12-25 17:12:29.010849,599620871682945798,-66.00
2025-12-25 17:12:29.010849,599620871682945798,-66.00
2025-12-25 17:12:29.010849,599620871682945798,-66.00
2025-12-25 17:12:29.010849,599620871682945798,-66.00
2025-12-25 17:12:29.010849,599620871682945798,-66.00
2025-12-25 17:12:29.010849,599620871682945798,-66.00
2025-12-25 17:12:29.010849,599620871682945798,-66.00
2025-12-25 17:12:29.010849,599620871682945798,-66.00
2025-12-25 17:12:29.010849,599620871682945798,-52.00
2025-12-25 17:12:29.010849,599620871682945798,-43.00
2025-12-25 17:12:29.010849,599620871682945798,-48.00
2025-12-25 17:12:29.010849,599620871682945798,-50.00
2025-12-25 17:12:29.010849,599620871682945798,-52.00
2025-12-25 17:12:29.010849,599620871682945798,-57.00
2025-12-25 17:12:29.010849,599620871682945798,-55.00
2025-12-25 17:12:29.010849,599620871682945798,-50.00
2025-12-25 17:12:29.010849,599620871682945798,-50.00
2025-12-25 17:12:29.010849,599620871682945798,-55.00
2025-12-25 17:12:29.010849,599620871682945798,-57.00
2025-12-25 17:12:29.010849,599620871682945798,-57.00
2025-12-25 17:12:29.010849,599620871682945798,-55.00
2025-12-25 17:12:29.010849,599620871682945798,-55.00
2025-12-25 17:12:29.010849,599620871682945798,-55.00
2025-12-25 17:12:29.010849,599620871682945798,-55.00
2025-12-25 17:12:29.010849,599620871682945798,-57.00
2025-12-25 17:12:29.010849,599620871682945798,-57.00
2025-12-25 17:12:29.010849,599620871682945798,-55.00
2025-12-25 17:12:29.010849,599620871682945798,-43.00
2025-12-25 17:12:29.010849,599620871682945798,-29.00
2025-12-25 17:12:29.010849,599620871682945798,-20.00
2025-12-25 17:12:29.010849,599620871682945798,-13.00
2025-12-25 17:12:29.010849,599620871682945798,-25.00
2025-12-25 17:12:29.010849,599620871682945798,-43.00
2025-12-25 17:12:29.010849,599620871682945798,-43.00
2025-12-25 17:12:29.010849,599620871682945798,-43.00
2025-12-25 17:12:29.010849,599620871682945798,-52.00
2025-12-25 17:12:29.010849,599620871682945798,-55.00
2025-12-25 17:12:29.010849,599620871682945798,-50.00
2025-12-25 17:12:29.010849,599620871682945798,-52.00
2025-12-25 17:12:29.010849,599620871682945798,-57.00
2025-12-25 17:12:29.010849,599620871682945798,-55.00
2025-12-25 17:12:29.010849,599620871682945798,-20.00
2025-12-25 17:12:29.010849,599620871682945798,126.00
2025-12-25 17:12:29.010849,599620871682945798,439.00
2025-12-25 17:12:29.010849,599620871682945798,627.00
2025-12-25 17:12:29.010849,599620871682945798,142.00
2025-12-25 17:12:29.010849,599620871682945798,-802.00
2025-12-25 17:12:29.010849,599620871682945798,-1023.00
2025-12-25 17:12:29.010849,599620871682945798,-393.00
2025-12-25 17:12:29.010849,599620871682945798,-11.00
2025-12-25 17:12:29.010849,599620871682945798,-52.00
2025-12-25 17:12:29.010849,599620871682945798,-20.00
2025-12-25 17:12:29.010849,599620871682945798,36.00
2025-12-25 17:12:29.010849,599620871682945798,9.00
2025-12-25 17:12:29.010849,599620871682945798,11.00
2025-12-25 17:12:29.010849,599620871682945798,39.00
2025-12-25 17:12:29.010849,599620871682945798,36.00
2025-12-25 17:12:29.010849,599620871682945798,39.00
2025-12-25 17:12:29.010849,599620871682945798,55.00
2025-12-25 17:12:29.010849,599620871682945798,59.00
2025-12-25 17:12:29.010849,599620871682945798,62.00
2025-12-25 17:12:29.010849,599620871682945798,68.00
2025-12-25 17:12:29.010849,599620871682945798,71.00
2025-12-25 17:12:29.010849,599620871682945798,73.00
2025-12-25 17:12:29.010849,599620871682945798,82.00
2025-12-25 17:12:29.010849,599620871682945798,89.00
2025-12-25 17:12:29.010849,599620871682945798,91.00
2025-12-25 17:12:29.010849,599620871682945798,96.00
2025-12-25 17:12:29.010849,599620871682945798,105.00
2025-12-25 17:12:29.010849,599620871682945798,117.00
2025-12-25 17:12:29.010849,599620871682945798,121.00
2025-12-25 17:12:29.010849,599620871682945798,126.00
2025-12-25 17:12:29.605169,599620872243825949,137.00
2025-12-25 17:12:29.605169,599620872243825949,144.00
2025-12-25 17:12:29.605169,599620872243825949,142.00
2025-12-25 17:12:29.605169,599620872243825949,144.00
2025-12-25 17:12:29.605169,599620872243825949,137.00
2025-12-25 17:12:29.605169,599620872243825949,117.00
2025-12-25 17:12:29.605169,599620872243825949,98.00
2025-12-25 17:12:29.605169,599620872243825949,75.00
2025-12-25 17:12:29.605169,599620872243825949,32.00
2025-12-25 17:12:29.605169,599620872243825949,-11.00
2025-12-25 17:12:29.605169,599620872243825949,-39.00
2025-12-25 17:12:29.605169,599620872243825949,-59.00
2025-12-25 17:12:29.605169,599620872243825949,-73.00
2025-12-25 17:12:29.605169,599620872243825949,-80.00
2025-12-25 17:12:29.605169,599620872243825949,-82.00
2025-12-25 17:12:29.605169,599620872243825949,-85.00
2025-12-25 17:12:29.605169,599620872243825949,-85.00
2025-12-25 17:12:29.605169,599620872243825949,-78.00
2025-12-25 17:12:29.605169,599620872243825949,-68.00
2025-12-25 17:12:29.605169,599620872243825949,-66.00
2025-12-25 17:12:29.605169,599620872243825949,-71.00
2025-12-25 17:12:29.605169,599620872243825949,-68.00
2025-12-25 17:12:29.605169,599620872243825949,-66.00
2025-12-25 17:12:29.605169,599620872243825949,-68.00
2025-12-25 17:12:29.605169,599620872243825949,-64.00
2025-12-25 17:12:29.605169,599620872243825949,-52.00
2025-12-25 17:12:29.605169,599620872243825949,-43.00
2025-12-25 17:12:29.605169,599620872243825949,-43.00
2025-12-25 17:12:29.605169,599620872243825949,-45.00
2025-12-25 17:12:29.605169,599620872243825949,-45.00
2025-12-25 17:12:29.605169,599620872243825949,-48.00
2025-12-25 17:12:29.605169,599620872243825949,-50.00
2025-12-25 17:12:29.605169,599620872243825949,-50.00
2025-12-25 17:12:29.605169,599620872243825949,-48.00
2025-12-25 17:12:29.605169,599620872243825949,-50.00
2025-12-25 17:12:29.605169,599620872243825949,-52.00
2025-12-25 17:12:29.605169,599620872243825949,-52.00
2025-12-25 17:12:29.605169,599620872243825949,-55.00
2025-12-25 17:12:29.605169,599620872243825949,-59.00
2025-12-25 17:12:29.605169,599620872243825949,-59.00
2025-12-25 17:12:29.605169,599620872243825949,-59.00
2025-12-25 17:12:29.605169,599620872243825949,-62.00
2025-12-25 17:12:29.605169,599620872243825949,-64.00
2025-12-25 17:12:29.605169,599620872243825949,-66.00
2025-12-25 17:12:29.605169,599620872243825949,-66.00
2025-12-25 17:12:29.605169,599620872243825949,-66.00
2025-12-25 17:12:29.605169,599620872243825949,-64.00
2025-12-25 17:12:29.605169,599620872243825949,-64.00
2025-12-25 17:12:29.605169,599620872243825949,-64.00
2025-12-25 17:12:29.605169,599620872243825949,-64.00
2025-12-25 17:12:29.605169,599620872243825949,-57.00
2025-12-25 17:12:29.605169,599620872243825949,-55.00
2025-12-25 17:12:29.605169,599620872243825949,-55.00
2025-12-25 17:12:29.605169,599620872243825949,-55.00
2025-12-25 17:12:29.605169,599620872243825949,-55.00
2025-12-25 17:12:29.605169,599620872243825949,-57.00
2025-12-25 17:12:29.605169,599620872243825949,-59.00
2025-12-25 17:12:29.605169,599620872243825949,-59.00
2025-12-25 17:12:29.605169,599620872243825949,-59.00
2025-12-25 17:12:29.605169,599620872243825949,-59.00
2025-12-25 17:12:29.605169,599620872243825949,-57.00
2025-12-25 17:12:29.605169,599620872243825949,-57.00
2025-12-25 17:12:29.605169,599620872243825949,-59.00
2025-12-25 17:12:29.605169,599620872243825949,-59.00
2025-12-25 17:12:29.605169,599620872243825949,-62.00
2025-12-25 17:12:29.605169,599620872243825949,-59.00
2025-12-25 17:12:29.605169,599620872243825949,-52.00
2025-12-25 17:12:29.605169,599620872243825949,-48.00
2025-12-25 17:12:29.605169,599620872243825949,-29.00
2025-12-25 17:12:29.605169,599620872243825949,-13.00
2025-12-25 17:12:29.605169,599620872243825949,-29.00
2025-12-25 17:12:29.605169,599620872243825949,-55.00
2025-12-25 17:12:29.605169,599620872243825949,-57.00
2025-12-25 17:12:30.210765,599620872804685752,-57.00
2025-12-25 17:12:30.210765,599620872804685752,-57.00
2025-12-25 17:12:30.210765,599620872804685752,-52.00
2025-12-25 17:12:30.210765,599620872804685752,-52.00
2025-12-25 17:12:30.210765,599620872804685752,-55.00
2025-12-25 17:12:30.210765,599620872804685752,-52.00
2025-12-25 17:12:30.210765,599620872804685752,-52.00
2025-12-25 17:12:30.210765,599620872804685752,-25.00
2025-12-25 17:12:30.210765,599620872804685752,124.00
2025-12-25 17:12:30.210765,599620872804685752,443.00
2025-12-25 17:12:30.210765,599620872804685752,648.00
2025-12-25 17:12:30.210765,599620872804685752,188.00
2025-12-25 17:12:30.210765,599620872804685752,-751.00
2025-12-25 17:12:30.210765,599620872804685752,-1009.00
2025-12-25 17:12:30.210765,599620872804685752,-400.00
2025-12-25 17:12:30.210765,599620872804685752,6.00
2025-12-25 17:12:30.210765,599620872804685752,-9.00
2025-12-25 17:12:30.210765,599620872804685752,27.00
2025-12-25 17:12:30.210765,599620872804685752,89.00
2025-12-25 17:12:30.210765,599620872804685752,73.00
2025-12-25 17:12:30.210765,599620872804685752,78.00
2025-12-25 17:12:30.210765,599620872804685752,103.00
2025-12-25 17:12:30.210765,599620872804685752,98.00
2025-12-25 17:12:30.210765,599620872804685752,91.00
2025-12-25 17:12:30.210765,599620872804685752,98.00
2025-12-25 17:12:30.210765,599620872804685752,98.00
2025-12-25 17:12:30.210765,599620872804685752,98.00
2025-12-25 17:12:30.210765,599620872804685752,103.00
2025-12-25 17:12:30.210765,599620872804685752,103.00
2025-12-25 17:12:30.210765,599620872804685752,103.00
2025-12-25 17:12:30.210765,599620872804685752,103.00
2025-12-25 17:12:30.210765,599620872804685752,108.00
2025-12-25 17:12:30.210765,599620872804685752,114.00
2025-12-25 17:12:30.210765,599620872804685752,121.00
2025-12-25 17:12:30.210765,599620872804685752,124.00
2025-12-25 17:12:30.210765,599620872804685752,128.00
2025-12-25 17:12:30.210765,599620872804685752,135.00
2025-12-25 17:12:30.210765,599620872804685752,142.00
2025-12-25 17:12:30.210765,599620872804685752,151.00
2025-12-25 17:12:30.210765,599620872804685752,160.00
2025-12-25 17:12:30.210765,599620872804685752,165.00
2025-12-25 17:12:30.210765,599620872804685752,160.00
2025-12-25 17:12:30.210765,599620872804685752,147.00
2025-12-25 17:12:30.210765,599620872804685752,131.00
2025-12-25 17:12:30.210765,599620872804685752,105.00
2025-12-25 17:12:30.210765,599620872804685752,66.00
2025-12-25 17:12:30.210765,599620872804685752,20.00
2025-12-25 17:12:30.210765,599620872804685752,-16.00
2025-12-25 17:12:30.210765,599620872804685752,-48.00
2025-12-25 17:12:30.210765,599620872804685752,-71.00
2025-12-25 17:12:30.210765,599620872804685752,-85.00
2025-12-25 17:12:30.210765,599620872804685752,-85.00
2025-12-25 17:12:30.210765,599620872804685752,-87.00
2025-12-25 17:12:30.210765,599620872804685752,-91.00
2025-12-25 17:12:30.210765,599620872804685752,-96.00
2025-12-25 17:12:30.210765,599620872804685752,-96.00
2025-12-25 17:12:30.210765,599620872804685752,-89.00
2025-12-25 17:12:30.210765,599620872804685752,-85.00
2025-12-25 17:12:30.210765,599620872804685752,-87.00
2025-12-25 17:12:30.210765,599620872804685752,-89.00
2025-12-25 17:12:30.210765,599620872804685752,-85.00
2025-12-25 17:12:30.210765,599620872804685752,-82.00
2025-12-25 17:12:30.210765,599620872804685752,-80.00
2025-12-25 17:12:30.210765,599620872804685752,-75.00
2025-12-25 17:12:30.210765,599620872804685752,-73.00
2025-12-25 17:12:30.210765,599620872804685752,-78.00
2025-12-25 17:12:30.210765,599620872804685752,-78.00
2025-12-25 17:12:30.210765,599620872804685752,-73.00
2025-12-25 17:12:30.210765,599620872804685752,-68.00
2025-12-25 17:12:30.210765,599620872804685752,-71.00
2025-12-25 17:12:30.210765,599620872804685752,-73.00
2025-12-25 17:12:30.210765,599620872804685752,-75.00
2025-12-25 17:12:30.210765,599620872804685752,-73.00
2025-12-25 17:12:30.704816,599620873365570987,-66.00
2025-12-25 17:12:30.704816,599620873365570987,-66.00
2025-12-25 17:12:30.704816,599620873365570987,-66.00
2025-12-25 17:12:30.704816,599620873365570987,-68.00
2025-12-25 17:12:30.704816,599620873365570987,-71.00
2025-12-25 17:12:30.704816,599620873365570987,-73.00
2025-12-25 17:12:30.704816,599620873365570987,-73.00
2025-12-25 17:12:30.704816,599620873365570987,-71.00
2025-12-25 17:12:30.704816,599620873365570987,-68.00
2025-12-25 17:12:30.704816,599620873365570987,-71.00
2025-12-25 17:12:30.704816,599620873365570987,-71.00
2025-12-25 17:12:30.704816,599620873365570987,-64.00
2025-12-25 17:12:30.704816,599620873365570987,-48.00
2025-12-25 17:12:30.704816,599620873365570987,-34.00
2025-12-25 17:12:30.704816,599620873365570987,-36.00
2025-12-25 17:12:30.704816,599620873365570987,-43.00
2025-12-25 17:12:30.704816,599620873365570987,-43.00
2025-12-25 17:12:30.704816,599620873365570987,-43.00
2025-12-25 17:12:30.704816,599620873365570987,-43.00
2025-12-25 17:12:30.704816,599620873365570987,-41.00
2025-12-25 17:12:30.704816,599620873365570987,-41.00
2025-12-25 17:12:30.704816,599620873365570987,-45.00
2025-12-25 17:12:30.704816,599620873365570987,-50.00
2025-12-25 17:12:30.704816,599620873365570987,-50.00
2025-12-25 17:12:30.704816,599620873365570987,-50.00
2025-12-25 17:12:30.704816,599620873365570987,-50.00
2025-12-25 17:12:30.704816,599620873365570987,-48.00
2025-12-25 17:12:30.704816,599620873365570987,-50.00
2025-12-25 17:12:30.704816,599620873365570987,-55.00
2025-12-25 17:12:30.704816,599620873365570987,-57.00
2025-12-25 17:12:30.704816,599620873365570987,-48.00
2025-12-25 17:12:30.704816,599620873365570987,-32.00
2025-12-25 17:12:30.704816,599620873365570987,-20.00
2025-12-25 17:12:30.704816,599620873365570987,-4.00
2025-12-25 17:12:30.704816,599620873365570987,0.00
2025-12-25 17:12:30.704816,599620873365570987,-20.00
2025-12-25 17:12:30.704816,599620873365570987,-36.00
2025-12-25 17:12:30.704816,599620873365570987,-36.00
2025-12-25 17:12:30.704816,599620873365570987,-39.00
2025-12-25 17:12:30.704816,599620873365570987,-43.00
2025-12-25 17:12:30.704816,599620873365570987,-43.00
2025-12-25 17:12:30.704816,599620873365570987,-45.00
2025-12-25 17:12:30.704816,599620873365570987,-45.00
2025-12-25 17:12:30.704816,599620873365570987,-43.00
2025-12-25 17:12:30.704816,599620873365570987,-32.00
2025-12-25 17:12:30.704816,599620873365570987,45.00
2025-12-25 17:12:30.704816,599620873365570987,282.00
2025-12-25 17:12:30.704816,599620873365570987,577.00
2025-12-25 17:12:30.704816,599620873365570987,457.00
2025-12-25 17:12:30.704816,599620873365570987,-374.00
2025-12-25 17:12:30.704816,599620873365570987,-1055.00
2025-12-25 17:12:30.704816,599620873365570987,-712.00
2025-12-25 17:12:30.704816,599620873365570987,-117.00
2025-12-25 17:12:30.704816,599620873365570987,-22.00
2025-12-25 17:12:30.704816,599620873365570987,-29.00
2025-12-25 17:12:30.704816,599620873365570987,50.00
2025-12-25 17:12:30.704816,599620873365570987,45.00
2025-12-25 17:12:30.704816,599620873365570987,22.00
2025-12-25 17:12:30.704816,599620873365570987,50.00
2025-12-25 17:12:30.704816,599620873365570987,59.00
2025-12-25 17:12:30.704816,599620873365570987,52.00
2025-12-25 17:12:30.704816,599620873365570987,62.00
2025-12-25 17:12:30.704816,599620873365570987,64.00
2025-12-25 17:12:30.704816,599620873365570987,62.00
2025-12-25 17:12:30.704816,599620873365570987,73.00
2025-12-25 17:12:30.704816,599620873365570987,80.00
2025-12-25 17:12:30.704816,599620873365570987,78.00
2025-12-25 17:12:30.704816,599620873365570987,82.00
2025-12-25 17:12:30.704816,599620873365570987,91.00
2025-12-25 17:12:30.704816,599620873365570987,91.00
2025-12-25 17:12:30.704816,599620873365570987,91.00
2025-12-25 17:12:30.704816,599620873365570987,101.00
2025-12-25 17:12:30.704816,599620873365570987,110.00
2025-12-25 17:12:31.264294,599620873926435878,117.00
2025-12-25 17:12:31.264294,599620873926435878,124.00
2025-12-25 17:12:31.264294,599620873926435878,126.00
2025-12-25 17:12:31.264294,599620873926435878,133.00
2025-12-25 17:12:31.264294,599620873926435878,149.00
2025-12-25 17:12:31.264294,599620873926435878,156.00
2025-12-25 17:12:31.264294,599620873926435878,144.00
2025-12-25 17:12:31.264294,599620873926435878,128.00
2025-12-25 17:12:31.264294,599620873926435878,108.00
2025-12-25 17:12:31.264294,599620873926435878,78.00
2025-12-25 17:12:31.264294,599620873926435878,48.00
2025-12-25 17:12:31.264294,599620873926435878,16.00
2025-12-25 17:12:31.264294,599620873926435878,-20.00
2025-12-25 17:12:31.264294,599620873926435878,-48.00
2025-12-25 17:12:31.264294,599620873926435878,-66.00
2025-12-25 17:12:31.264294,599620873926435878,-75.00
2025-12-25 17:12:31.264294,599620873926435878,-78.00
2025-12-25 17:12:31.264294,599620873926435878,-82.00
2025-12-25 17:12:31.264294,599620873926435878,-85.00
2025-12-25 17:12:31.264294,599620873926435878,-80.00
2025-12-25 17:12:31.264294,599620873926435878,-82.00
2025-12-25 17:12:31.264294,599620873926435878,-85.00
2025-12-25 17:12:31.264294,599620873926435878,-80.00
2025-12-25 17:12:31.264294,599620873926435878,-71.00
2025-12-25 17:12:31.264294,599620873926435878,-66.00
2025-12-25 17:12:31.264294,599620873926435878,-71.00
2025-12-25 17:12:31.264294,599620873926435878,-71.00
2025-12-25 17:12:31.264294,599620873926435878,-64.00
2025-12-25 17:12:31.264294,599620873926435878,-66.00
2025-12-25 17:12:31.264294,599620873926435878,-68.00
2025-12-25 17:12:31.264294,599620873926435878,-64.00
2025-12-25 17:12:31.264294,599620873926435878,-59.00
2025-12-25 17:12:31.264294,599620873926435878,-62.00
2025-12-25 17:12:31.264294,599620873926435878,-64.00
2025-12-25 17:12:31.264294,599620873926435878,-62.00
2025-12-25 17:12:31.264294,599620873926435878,-62.00
2025-12-25 17:12:31.264294,599620873926435878,-64.00
2025-12-25 17:12:31.264294,599620873926435878,-66.00
2025-12-25 17:12:31.264294,599620873926435878,-71.00
2025-12-25 17:12:31.264294,599620873926435878,-68.00
2025-12-25 17:12:31.264294,599620873926435878,-68.00
2025-12-25 17:12:31.264294,599620873926435878,-71.00
2025-12-25 17:12:31.264294,599620873926435878,-73.00
2025-12-25 17:12:31.264294,599620873926435878,-73.00
2025-12-25 17:12:31.264294,599620873926435878,-73.00
2025-12-25 17:12:31.264294,599620873926435878,-73.00
2025-12-25 17:12:31.264294,599620873926435878,-73.00
2025-12-25 17:12:31.264294,599620873926435878,-75.00
2025-12-25 17:12:31.264294,599620873926435878,-73.00
2025-12-25 17:12:31.264294,599620873926435878,-71.00
2025-12-25 17:12:31.264294,599620873926435878,-73.00
2025-12-25 17:12:31.264294,599620873926435878,-73.00
2025-12-25 17:12:31.264294,599620873926435878,-68.00
2025-12-25 17:12:31.264294,599620873926435878,-71.00
2025-12-25 17:12:31.264294,599620873926435878,-71.00
2025-12-25 17:12:31.264294,599620873926435878,-66.00
2025-12-25 17:12:31.264294,599620873926435878,-64.00
2025-12-25 17:12:31.264294,599620873926435878,-59.00
2025-12-25 17:12:31.264294,599620873926435878,-59.00
2025-12-25 17:12:31.264294,599620873926435878,-64.00
2025-12-25 17:12:31.264294,599620873926435878,-66.00
2025-12-25 17:12:31.264294,599620873926435878,-71.00
2025-12-25 17:12:31.264294,599620873926435878,-66.00
2025-12-25 17:12:31.264294,599620873926435878,-50.00
2025-12-25 17:12:31.264294,599620873926435878,-39.00
2025-12-25 17:12:31.264294,599620873926435878,-27.00
2025-12-25 17:12:31.264294,599620873926435878,-22.00
2025-12-25 17:12:31.264294,599620873926435878,-43.00
2025-12-25 17:12:31.264294,599620873926435878,-64.00
2025-12-25 17:12:31.264294,599620873926435878,-62.00
2025-12-25 17:12:31.264294,599620873926435878,-50.00
2025-12-25 17:12:31.264294,599620873926435878,-43.00
2025-12-25 17:12:31.264294,599620873926435878,-45.00
2025-12-25 17:12:31.964822,599620874487310939,-50.00
2025-12-25 17:12:31.964822,599620874487310939,-48.00
2025-12-25 17:12:31.964822,599620874487310939,-43.00
2025-12-25 17:12:31.964822,599620874487310939,-43.00
2025-12-25 17:12:31.964822,599620874487310939,2.00
2025-12-25 17:12:31.964822,599620874487310939,190.00
2025-12-25 17:12:31.964822,599620874487310939,512.00
2025-12-25 17:12:31.964822,599620874487310939,593.00
2025-12-25 17:12:31.964822,599620874487310939,-68.00
2025-12-25 17:12:31.964822,599620874487310939,-940.00
2025-12-25 17:12:31.964822,599620874487310939,-885.00
2025-12-25 17:12:31.964822,599620874487310939,-239.00
2025-12-25 17:12:31.964822,599620874487310939,-9.00
2025-12-25 17:12:31.964822,599620874487310939,-41.00
2025-12-25 17:12:31.964822,599620874487310939,32.00
2025-12-25 17:12:31.964822,599620874487310939,66.00
2025-12-25 17:12:31.964822,599620874487310939,39.00
2025-12-25 17:12:31.964822,599620874487310939,55.00
2025-12-25 17:12:31.964822,599620874487310939,75.00
2025-12-25 17:12:31.964822,599620874487310939,71.00
2025-12-25 17:12:31.964822,599620874487310939,71.00
2025-12-25 17:12:31.964822,599620874487310939,75.00
2025-12-25 17:12:31.964822,599620874487310939,75.00
2025-12-25 17:12:31.964822,599620874487310939,78.00
2025-12-25 17:12:31.964822,599620874487310939,87.00
2025-12-25 17:12:31.964822,599620874487310939,87.00
2025-12-25 17:12:31.964822,599620874487310939,87.00
2025-12-25 17:12:31.964822,599620874487310939,91.00
2025-12-25 17:12:31.964822,599620874487310939,96.00
2025-12-25 17:12:31.964822,599620874487310939,98.00
2025-12-25 17:12:31.964822,599620874487310939,108.00
2025-12-25 17:12:31.964822,599620874487310939,114.00
2025-12-25 17:12:31.964822,599620874487310939,121.00
2025-12-25 17:12:31.964822,599620874487310939,126.00
2025-12-25 17:12:31.964822,599620874487310939,133.00
2025-12-25 17:12:31.964822,599620874487310939,140.00
2025-12-25 17:12:31.964822,599620874487310939,147.00
2025-12-25 17:12:31.964822,599620874487310939,147.00
2025-12-25 17:12:31.964822,599620874487310939,140.00
2025-12-25 17:12:31.964822,599620874487310939,126.00
2025-12-25 17:12:31.964822,599620874487310939,103.00
2025-12-25 17:12:31.964822,599620874487310939,75.00
2025-12-25 17:12:31.964822,599620874487310939,39.00
2025-12-25 17:12:31.964822,599620874487310939,-2.00
2025-12-25 17:12:31.964822,599620874487310939,-43.00
2025-12-25 17:12:31.964822,599620874487310939,-71.00
2025-12-25 17:12:31.964822,599620874487310939,-80.00
2025-12-25 17:12:31.964822,599620874487310939,-82.00
2025-12-25 17:12:31.964822,599620874487310939,-91.00
2025-12-25 17:12:31.964822,599620874487310939,-96.00
2025-12-25 17:12:31.964822,599620874487310939,-94.00
2025-12-25 17:12:31.964822,599620874487310939,-98.00
2025-12-25 17:12:31.964822,599620874487310939,-96.00
2025-12-25 17:12:31.964822,599620874487310939,-87.00
2025-12-25 17:12:31.964822,599620874487310939,-85.00
2025-12-25 17:12:31.964822,599620874487310939,-87.00
2025-12-25 17:12:31.964822,599620874487310939,-89.00
2025-12-25 17:12:31.964822,599620874487310939,-87.00
2025-12-25 17:12:31.964822,599620874487310939,-85.00
2025-12-25 17:12:31.964822,599620874487310939,-78.00
2025-12-25 17:12:31.964822,599620874487310939,-73.00
2025-12-25 17:12:31.964822,599620874487310939,-73.00
2025-12-25 17:12:31.964822,599620874487310939,-73.00
2025-12-25 17:12:31.964822,599620874487310939,-64.00
2025-12-25 17:12:31.964822,599620874487310939,-57.00
2025-12-25 17:12:31.964822,599620874487310939,-57.00
2025-12-25 17:12:31.964822,599620874487310939,-55.00
2025-12-25 17:12:31.964822,599620874487310939,-55.00
2025-12-25 17:12:31.964822,599620874487310939,-59.00
2025-12-25 17:12:31.964822,599620874487310939,-62.00
2025-12-25 17:12:31.964822,599620874487310939,-64.00
2025-12-25 17:12:31.964822,599620874487310939,-62.00
2025-12-25 17:12:31.964822,599620874487310939,-59.00
2025-12-25 17:12:32.389499,599620875048196174,-59.00
2025-12-25 17:12:32.389499,599620875048196174,-66.00
2025-12-25 17:12:32.389499,599620875048196174,-68.00
2025-12-25 17:12:32.389499,599620875048196174,-68.00
2025-12-25 17:12:32.389499,599620875048196174,-68.00
2025-12-25 17:12:32.389499,599620875048196174,-64.00
2025-12-25 17:12:32.389499,599620875048196174,-62.00
2025-12-25 17:12:32.389499,599620875048196174,-64.00
2025-12-25 17:12:32.389499,599620875048196174,-68.00
2025-12-25 17:12:32.389499,599620875048196174,-66.00
2025-12-25 17:12:32.389499,599620875048196174,-50.00
2025-12-25 17:12:32.389499,599620875048196174,-41.00
2025-12-25 17:12:32.389499,599620875048196174,-45.00
2025-12-25 17:12:32.389499,599620875048196174,-50.00
2025-12-25 17:12:32.389499,599620875048196174,-50.00
2025-12-25 17:12:32.389499,599620875048196174,-55.00
2025-12-25 17:12:32.389499,599620875048196174,-45.00
2025-12-25 17:12:32.389499,599620875048196174,-22.00
2025-12-25 17:12:32.389499,599620875048196174,-16.00
2025-12-25 17:12:32.389499,599620875048196174,-16.00
2025-12-25 17:12:32.389499,599620875048196174,2.00
2025-12-25 17:12:32.389499,599620875048196174,4.00
2025-12-25 17:12:32.389499,599620875048196174,-16.00
2025-12-25 17:12:32.389499,599620875048196174,-25.00
2025-12-25 17:12:32.389499,599620875048196174,-27.00
2025-12-25 17:12:32.389499,599620875048196174,-36.00
2025-12-25 17:12:32.389499,599620875048196174,-41.00
2025-12-25 17:12:32.389499,599620875048196174,-36.00
2025-12-25 17:12:32.389499,599620875048196174,-25.00
2025-12-25 17:12:32.389499,599620875048196174,-22.00
2025-12-25 17:12:32.389499,599620875048196174,-32.00
2025-12-25 17:12:32.389499,599620875048196174,-25.00
2025-12-25 17:12:32.389499,599620875048196174,62.00
2025-12-25 17:12:32.389499,599620875048196174,310.00
2025-12-25 17:12:32.389499,599620875048196174,600.00
2025-12-25 17:12:32.389499,599620875048196174,420.00
2025-12-25 17:12:32.389499,599620875048196174,-448.00
2025-12-25 17:12:32.389499,599620875048196174,-1062.00
2025-12-25 17:12:32.389499,599620875048196174,-652.00
2025-12-25 17:12:32.389499,599620875048196174,-89.00
2025-12-25 17:12:32.389499,599620875048196174,-18.00
2025-12-25 17:12:32.389499,599620875048196174,-22.00
2025-12-25 17:12:32.389499,599620875048196174,43.00
2025-12-25 17:12:32.389499,599620875048196174,36.00
2025-12-25 17:12:32.389499,599620875048196174,20.00
2025-12-25 17:12:32.389499,599620875048196174,43.00
2025-12-25 17:12:32.389499,599620875048196174,52.00
2025-12-25 17:12:32.389499,599620875048196174,45.00
2025-12-25 17:12:32.389499,599620875048196174,48.00
2025-12-25 17:12:32.389499,599620875048196174,50.00
2025-12-25 17:12:32.389499,599620875048196174,48.00
2025-12-25 17:12:32.389499,599620875048196174,52.00
2025-12-25 17:12:32.389499,599620875048196174,57.00
2025-12-25 17:12:32.389499,599620875048196174,59.00
2025-12-25 17:12:32.389499,599620875048196174,62.00
2025-12-25 17:12:32.389499,599620875048196174,73.00
2025-12-25 17:12:32.389499,599620875048196174,96.00
2025-12-25 17:12:32.389499,599620875048196174,114.00
2025-12-25 17:12:32.389499,599620875048196174,119.00
2025-12-25 17:12:32.389499,599620875048196174,124.00
2025-12-25 17:12:32.389499,599620875048196174,133.00
2025-12-25 17:12:32.389499,599620875048196174,137.00
2025-12-25 17:12:32.389499,599620875048196174,144.00
2025-12-25 17:12:32.389499,599620875048196174,151.00
2025-12-25 17:12:32.389499,599620875048196174,154.00
2025-12-25 17:12:32.389499,599620875048196174,154.00
2025-12-25 17:12:32.389499,599620875048196174,149.00
2025-12-25 17:12:32.389499,599620875048196174,131.00
2025-12-25 17:12:32.389499,599620875048196174,101.00
2025-12-25 17:12:32.389499,599620875048196174,68.00
2025-12-25 17:12:32.389499,599620875048196174,29.00
2025-12-25 17:12:32.389499,599620875048196174,-11.00
2025-12-25 17:12:32.389499,599620875048196174,-50.00
2025-12-25 17:12:32.939300,599620875609050895,-73.00
2025-12-25 17:12:32.939300,599620875609050895,-82.00
2025-12-25 17:12:32.939300,599620875609050895,-89.00
2025-12-25 17:12:32.939300,599620875609050895,-91.00
2025-12-25 17:12:32.939300,599620875609050895,-94.00
2025-12-25 17:12:32.939300,599620875609050895,-96.00
2025-12-25 17:12:32.939300,599620875609050895,-98.00
2025-12-25 17:12:32.939300,599620875609050895,-87.00
2025-12-25 17:12:32.939300,599620875609050895,-68.00
2025-12-25 17:12:32.939300,599620875609050895,-64.00
2025-12-25 17:12:32.939300,599620875609050895,-68.00
2025-12-25 17:12:32.939300,599620875609050895,-66.00
2025-12-25 17:12:32.939300,599620875609050895,-64.00
2025-12-25 17:12:32.939300,599620875609050895,-55.00
2025-12-25 17:12:32.939300,599620875609050895,-43.00
2025-12-25 17:12:32.939300,599620875609050895,-41.00
2025-12-25 17:12:32.939300,599620875609050895,-45.00
2025-12-25 17:12:32.939300,599620875609050895,-45.00
2025-12-25 17:12:32.939300,599620875609050895,-48.00
2025-12-25 17:12:32.939300,599620875609050895,-52.00
2025-12-25 17:12:32.939300,599620875609050895,-52.00
2025-12-25 17:12:32.939300,599620875609050895,-45.00
2025-12-25 17:12:32.939300,599620875609050895,-43.00
2025-12-25 17:12:32.939300,599620875609050895,-50.00
2025-12-25 17:12:32.939300,599620875609050895,-59.00
2025-12-25 17:12:32.939300,599620875609050895,-59.00
2025-12-25 17:12:32.939300,599620875609050895,-57.00
2025-12-25 17:12:32.939300,599620875609050895,-55.00
2025-12-25 17:12:32.939300,599620875609050895,-55.00
2025-12-25 17:12:32.939300,599620875609050895,-52.00
2025-12-25 17:12:32.939300,599620875609050895,-57.00
2025-12-25 17:12:32.939300,599620875609050895,-59.00
2025-12-25 17:12:32.939300,599620875609050895,-59.00
2025-12-25 17:12:32.939300,599620875609050895,-62.00
2025-12-25 17:12:32.939300,599620875609050895,-62.00
2025-12-25 17:12:32.939300,599620875609050895,-64.00
2025-12-25 17:12:32.939300,599620875609050895,-66.00
2025-12-25 17:12:32.939300,599620875609050895,-59.00
2025-12-25 17:12:32.939300,599620875609050895,-64.00
2025-12-25 17:12:32.939300,599620875609050895,-68.00
2025-12-25 17:12:32.939300,599620875609050895,-71.00
2025-12-25 17:12:32.939300,599620875609050895,-75.00
2025-12-25 17:12:32.939300,599620875609050895,-75.00
2025-12-25 17:12:32.939300,599620875609050895,-62.00
2025-12-25 17:12:32.939300,599620875609050895,-45.00
2025-12-25 17:12:32.939300,599620875609050895,-32.00
2025-12-25 17:12:32.939300,599620875609050895,-25.00
2025-12-25 17:12:32.939300,599620875609050895,-45.00
2025-12-25 17:12:32.939300,599620875609050895,-62.00
2025-12-25 17:12:32.939300,599620875609050895,-55.00
2025-12-25 17:12:32.939300,599620875609050895,-62.00
2025-12-25 17:12:32.939300,599620875609050895,-68.00
2025-12-25 17:12:32.939300,599620875609050895,-59.00
2025-12-25 17:12:32.939300,599620875609050895,-59.00
2025-12-25 17:12:32.939300,599620875609050895,-68.00
2025-12-25 17:12:32.939300,599620875609050895,-68.00
2025-12-25 17:12:32.939300,599620875609050895,-57.00
2025-12-25 17:12:32.939300,599620875609050895,-4.00
2025-12-25 17:12:32.939300,599620875609050895,186.00
2025-12-25 17:12:32.939300,599620875609050895,505.00
2025-12-25 17:12:32.939300,599620875609050895,563.00
2025-12-25 17:12:32.939300,599620875609050895,-108.00
2025-12-25 17:12:32.939300,599620875609050895,-958.00
2025-12-25 17:12:32.939300,599620875609050895,-912.00
2025-12-25 17:12:32.939300,599620875609050895,-319.00
2025-12-25 17:12:32.939300,599620875609050895,-87.00
2025-12-25 17:12:32.939300,599620875609050895,-75.00
2025-12-25 17:12:32.939300,599620875609050895,0.00
2025-12-25 17:12:32.939300,599620875609050895,11.00
2025-12-25 17:12:32.939300,599620875609050895,-13.00
2025-12-25 17:12:32.939300,599620875609050895,9.00
2025-12-25 17:12:32.939300,599620875609050895,22.00
2025-12-25 17:12:32.939300,599620875609050895,13.00
2025-12-25 17:12:33.498992,599620876169925958,16.00
2025-12-25 17:12:33.498992,599620876169925958,27.00
2025-12-25 17:12:33.498992,599620876169925958,32.00
2025-12-25 17:12:33.498992,599620876169925958,34.00
2025-12-25 17:12:33.498992,599620876169925958,39.00
2025-12-25 17:12:33.498992,599620876169925958,48.00
2025-12-25 17:12:33.498992,599620876169925958,52.00
2025-12-25 17:12:33.498992,599620876169925958,55.00
2025-12-25 17:12:33.498992,599620876169925958,59.00
2025-12-25 17:12:33.498992,599620876169925958,66.00
2025-12-25 17:12:33.498992,599620876169925958,82.00
2025-12-25 17:12:33.498992,599620876169925958,105.00
2025-12-25 17:12:33.498992,599620876169925958,117.00
2025-12-25 17:12:33.498992,599620876169925958,121.00
2025-12-25 17:12:33.498992,599620876169925958,128.00
2025-12-25 17:12:33.498992,599620876169925958,135.00
2025-12-25 17:12:33.498992,599620876169925958,137.00
2025-12-25 17:12:33.498992,599620876169925958,137.00
2025-12-25 17:12:33.498992,599620876169925958,135.00
2025-12-25 17:12:33.498992,599620876169925958,133.00
2025-12-25 17:12:33.498992,599620876169925958,117.00
2025-12-25 17:12:33.498992,599620876169925958,78.00
2025-12-25 17:12:33.498992,599620876169925958,41.00
2025-12-25 17:12:33.498992,599620876169925958,9.00
2025-12-25 17:12:33.498992,599620876169925958,-29.00
2025-12-25 17:12:33.498992,599620876169925958,-64.00
2025-12-25 17:12:33.498992,599620876169925958,-78.00
2025-12-25 17:12:33.498992,599620876169925958,-80.00
2025-12-25 17:12:33.498992,599620876169925958,-80.00
2025-12-25 17:12:33.498992,599620876169925958,-82.00
2025-12-25 17:12:33.498992,599620876169925958,-85.00
2025-12-25 17:12:33.498992,599620876169925958,-85.00
2025-12-25 17:12:33.498992,599620876169925958,-85.00
2025-12-25 17:12:33.498992,599620876169925958,-82.00
2025-12-25 17:12:33.498992,599620876169925958,-78.00
2025-12-25 17:12:33.498992,599620876169925958,-73.00
2025-12-25 17:12:33.498992,599620876169925958,-73.00
2025-12-25 17:12:33.498992,599620876169925958,-71.00
2025-12-25 17:12:33.498992,599620876169925958,-66.00
2025-12-25 17:12:33.498992,599620876169925958,-62.00
2025-12-25 17:12:33.498992,599620876169925958,-62.00
2025-12-25 17:12:33.498992,599620876169925958,-55.00
2025-12-25 17:12:33.498992,599620876169925958,-48.00
2025-12-25 17:12:33.498992,599620876169925958,-48.00
2025-12-25 17:12:33.498992,599620876169925958,-48.00
2025-12-25 17:12:33.498992,599620876169925958,-48.00
2025-12-25 17:12:33.498992,599620876169925958,-48.00
2025-12-25 17:12:33.498992,599620876169925958,-48.00
2025-12-25 17:12:33.498992,599620876169925958,-50.00
2025-12-25 17:12:33.498992,599620876169925958,-55.00
2025-12-25 17:12:33.498992,599620876169925958,-50.00
2025-12-25 17:12:33.498992,599620876169925958,-50.00
2025-12-25 17:12:33.498992,599620876169925958,-52.00
2025-12-25 17:12:33.498992,599620876169925958,-55.00
2025-12-25 17:12:33.498992,599620876169925958,-59.00
2025-12-25 17:12:33.498992,599620876169925958,-66.00
2025-12-25 17:12:33.498992,599620876169925958,-64.00
2025-12-25 17:12:33.498992,599620876169925958,-55.00
2025-12-25 17:12:33.498992,599620876169925958,-52.00
2025-12-25 17:12:33.498992,599620876169925958,-59.00
2025-12-25 17:12:33.498992,599620876169925958,-62.00
2025-12-25 17:12:33.498992,599620876169925958,-59.00
2025-12-25 17:12:33.498992,599620876169925958,-62.00
2025-12-25 17:12:33.498992,599620876169925958,-62.00
2025-12-25 17:12:33.498992,599620876169925958,-57.00
2025-12-25 17:12:33.498992,599620876169925958,-59.00
2025-12-25 17:12:33.498992,599620876169925958,-64.00
2025-12-25 17:12:33.498992,599620876169925958,-66.00
2025-12-25 17:12:33.498992,599620876169925958,-66.00
2025-12-25 17:12:33.498992,599620876169925958,-68.00
2025-12-25 17:12:33.498992,599620876169925958,-64.00
2025-12-25 17:12:33.498992,599620876169925958,-55.00
2025-12-25 17:12:33.498992,599620876169925958,-41.00
2025-12-25 17:12:34.141343,599620876730806107,-22.00
2025-12-25 17:12:34.141343,599620876730806107,-27.00
2025-12-25 17:12:34.141343,599620876730806107,-52.00
2025-12-25 17:12:34.141343,599620876730806107,-66.00
2025-12-25 17:12:34.141343,599620876730806107,-66.00
2025-12-25 17:12:34.141343,599620876730806107,-71.00
2025-12-25 17:12:34.141343,599620876730806107,-73.00
2025-12-25 17:12:34.141343,599620876730806107,-64.00
2025-12-25 17:12:34.141343,599620876730806107,-52.00
2025-12-25 17:12:34.141343,599620876730806107,-48.00
2025-12-25 17:12:34.141343,599620876730806107,-50.00
2025-12-25 17:12:34.141343,599620876730806107,-34.00
2025-12-25 17:12:34.141343,599620876730806107,62.00
2025-12-25 17:12:34.141343,599620876730806107,321.00
2025-12-25 17:12:34.141343,599620876730806107,604.00
2025-12-25 17:12:34.141343,599620876730806107,388.00
2025-12-25 17:12:34.141343,599620876730806107,-510.00
2025-12-25 17:12:34.141343,599620876730806107,-1085.00
2025-12-25 17:12:34.141343,599620876730806107,-634.00
2025-12-25 17:12:34.141343,599620876730806107,-89.00
2025-12-25 17:12:34.141343,599620876730806107,-48.00
2025-12-25 17:12:34.141343,599620876730806107,-45.00
2025-12-25 17:12:34.141343,599620876730806107,29.00
2025-12-25 17:12:34.141343,599620876730806107,16.00
2025-12-25 17:12:34.141343,599620876730806107,0.00
2025-12-25 17:12:34.141343,599620876730806107,29.00
2025-12-25 17:12:34.141343,599620876730806107,32.00
2025-12-25 17:12:34.141343,599620876730806107,22.00
2025-12-25 17:12:34.141343,599620876730806107,32.00
2025-12-25 17:12:34.141343,599620876730806107,34.00
2025-12-25 17:12:34.141343,599620876730806107,32.00
2025-12-25 17:12:34.141343,599620876730806107,39.00
2025-12-25 17:12:34.141343,599620876730806107,45.00
2025-12-25 17:12:34.141343,599620876730806107,50.00
2025-12-25 17:12:34.141343,599620876730806107,59.00
2025-12-25 17:12:34.141343,599620876730806107,66.00
2025-12-25 17:12:34.141343,599620876730806107,71.00
2025-12-25 17:12:34.141343,599620876730806107,82.00
2025-12-25 17:12:34.141343,599620876730806107,91.00
2025-12-25 17:12:34.141343,599620876730806107,96.00
2025-12-25 17:12:34.141343,599620876730806107,108.00
2025-12-25 17:12:34.141343,599620876730806107,119.00
2025-12-25 17:12:34.141343,599620876730806107,131.00
2025-12-25 17:12:34.141343,599620876730806107,144.00
2025-12-25 17:12:34.141343,599620876730806107,147.00
2025-12-25 17:12:34.141343,599620876730806107,140.00
2025-12-25 17:12:34.141343,599620876730806107,133.00
2025-12-25 17:12:34.141343,599620876730806107,114.00
2025-12-25 17:12:34.141343,599620876730806107,87.00
2025-12-25 17:12:34.141343,599620876730806107,52.00
2025-12-25 17:12:34.141343,599620876730806107,11.00
2025-12-25 17:12:34.141343,599620876730806107,-32.00
2025-12-25 17:12:34.141343,599620876730806107,-64.00
2025-12-25 17:12:34.141343,599620876730806107,-82.00
2025-12-25 17:12:34.141343,599620876730806107,-94.00
2025-12-25 17:12:34.141343,599620876730806107,-96.00
2025-12-25 17:12:34.141343,599620876730806107,-98.00
2025-12-25 17:12:34.141343,599620876730806107,-96.00
2025-12-25 17:12:34.141343,599620876730806107,-94.00
2025-12-25 17:12:34.141343,599620876730806107,-94.00
2025-12-25 17:12:34.141343,599620876730806107,-82.00
2025-12-25 17:12:34.141343,599620876730806107,-71.00
2025-12-25 17:12:34.141343,599620876730806107,-71.00
2025-12-25 17:12:34.141343,599620876730806107,-73.00
2025-12-25 17:12:34.141343,599620876730806107,-68.00
2025-12-25 17:12:34.141343,599620876730806107,-64.00
2025-12-25 17:12:34.141343,599620876730806107,-59.00
2025-12-25 17:12:34.141343,599620876730806107,-55.00
2025-12-25 17:12:34.141343,599620876730806107,-55.00
2025-12-25 17:12:34.141343,599620876730806107,-57.00
2025-12-25 17:12:34.141343,599620876730806107,-59.00
2025-12-25 17:12:34.141343,599620876730806107,-62.00
2025-12-25 17:12:34.141343,599620876730806107,-52.00
2025-12-25 17:12:34.639756,599620877291676082,-41.00
2025-12-25 17:12:34.639756,599620877291676082,-39.00
2025-12-25 17:12:34.639756,599620877291676082,-43.00
2025-12-25 17:12:34.639756,599620877291676082,-43.00
2025-12-25 17:12:34.639756,599620877291676082,-48.00
2025-12-25 17:12:34.639756,599620877291676082,-50.00
2025-12-25 17:12:34.639756,599620877291676082,-45.00
2025-12-25 17:12:34.639756,599620877291676082,-45.00
2025-12-25 17:12:34.639756,599620877291676082,-50.00
2025-12-25 17:12:34.639756,599620877291676082,-55.00
2025-12-25 17:12:34.639756,599620877291676082,-52.00
2025-12-25 17:12:34.639756,599620877291676082,-41.00
2025-12-25 17:12:34.639756,599620877291676082,-29.00
2025-12-25 17:12:34.639756,599620877291676082,-36.00
2025-12-25 17:12:34.639756,599620877291676082,-43.00
2025-12-25 17:12:34.639756,599620877291676082,-41.00
2025-12-25 17:12:34.639756,599620877291676082,-36.00
2025-12-25 17:12:34.639756,599620877291676082,-27.00
2025-12-25 17:12:34.639756,599620877291676082,-20.00
2025-12-25 17:12:34.639756,599620877291676082,-25.00
2025-12-25 17:12:34.639756,599620877291676082,-29.00
2025-12-25 17:12:34.639756,599620877291676082,-32.00
2025-12-25 17:12:34.639756,599620877291676082,-39.00
2025-12-25 17:12:34.639756,599620877291676082,-43.00
2025-12-25 17:12:34.639756,599620877291676082,-34.00
2025-12-25 17:12:34.639756,599620877291676082,-22.00
2025-12-25 17:12:34.639756,599620877291676082,-11.00
2025-12-25 17:12:34.639756,599620877291676082,9.00
2025-12-25 17:12:34.639756,599620877291676082,11.00
2025-12-25 17:12:34.639756,599620877291676082,-16.00
2025-12-25 17:12:34.639756,599620877291676082,-29.00
2025-12-25 17:12:34.639756,599620877291676082,-34.00
2025-12-25 17:12:34.639756,599620877291676082,-41.00
2025-12-25 17:12:34.639756,599620877291676082,-41.00
2025-12-25 17:12:34.639756,599620877291676082,-36.00
2025-12-25 17:12:34.639756,599620877291676082,-36.00
2025-12-25 17:12:34.639756,599620877291676082,-39.00
2025-12-25 17:12:34.639756,599620877291676082,-43.00
