Timestamp,Device Timestamp (ns),ECG Value (uV)
2025-12-25 17:24:49.377935,599621611490302067,149.00
2025-12-25 17:24:49.377935,599621611490302067,110.00
2025-12-25 17:24:49.377935,599621611490302067,80.00
2025-12-25 17:24:49.377935,599621611490302067,66.00
2025-12-25 17:24:49.377935,599621611490302067,11.00
2025-12-25 17:24:49.377935,599621611490302067,-34.00
2025-12-25 17:24:49.377935,599621611490302067,-22.00
2025-12-25 17:24:49.377935,599621611490302067,-22.00
2025-12-25 17:24:49.377935,599621611490302067,-66.00
2025-12-25 17:24:49.377935,599621611490302067,-94.00
2025-12-25 17:24:49.377935,599621611490302067,-80.00
2025-12-25 17:24:49.377935,599621611490302067,-59.00
2025-12-25 17:24:49.377935,599621611490302067,-52.00
2025-12-25 17:24:49.377935,599621611490302067,-62.00
2025-12-25 17:24:49.377935,599621611490302067,-68.00
2025-12-25 17:24:49.377935,599621611490302067,-59.00
2025-12-25 17:24:49.377935,599621611490302067,-52.00
2025-12-25 17:24:49.377935,599621611490302067,-45.00
2025-12-25 17:24:49.377935,599621611490302067,-36.00
2025-12-25 17:24:49.377935,599621611490302067,-41.00
2025-12-25 17:24:49.377935,599621611490302067,-50.00
2025-12-25 17:24:49.377935,599621611490302067,-43.00
2025-12-25 17:24:49.377935,599621611490302067,-29.00
2025-12-25 17:24:49.377935,599621611490302067,-20.00
2025-12-25 17:24:49.377935,599621611490302067,-13.00
2025-12-25 17:24:49.377935,599621611490302067,-11.00
2025-12-25 17:24:49.377935,599621611490302067,-32.00
2025-12-25 17:24:49.377935,599621611490302067,-52.00
2025-12-25 17:24:49.377935,599621611490302067,-48.00
2025-12-25 17:24:49.377935,599621611490302067,-25.00
2025-12-25 17:24:49.377935,599621611490302067,-22.00
2025-12-25 17:24:49.377935,599621611490302067,-43.00
2025-12-25 17:24:49.377935,599621611490302067,-45.00
2025-12-25 17:24:49.377935,599621611490302067,-32.00
2025-12-25 17:24:49.377935,599621611490302067,-39.00
2025-12-25 17:24:49.377935,599621611490302067,-48.00
2025-12-25 17:24:49.377935,599621611490302067,-48.00
2025-12-25 17:24:49.377935,599621611490302067,-48.00
2025-12-25 17:24:49.377935,599621611490302067,-50.00
2025-12-25 17:24:49.377935,599621611490302067,-50.00
2025-12-25 17:24:49.377935,599621611490302067,-50.00
2025-12-25 17:24:49.377935,599621611490302067,-55.00
2025-12-25 17:24:49.377935,599621611490302067,-59.00
2025-12-25 17:24:49.377935,599621611490302067,-66.00
2025-12-25 17:24:49.377935,599621611490302067,-78.00
2025-12-25 17:24:49.377935,599621611490302067,-68.00
2025-12-25 17:24:49.377935,599621611490302067,-41.00
2025-12-25 17:24:49.377935,599621611490302067,-25.00
2025-12-25 17:24:49.377935,599621611490302067,-18.00
2025-12-25 17:24:49.377935,599621611490302067,-13.00
2025-12-25 17:24:49.377935,599621611490302067,-43.00
2025-12-25 17:24:49.377935,599621611490302067,-80.00
2025-12-25 17:24:49.377935,599621611490302067,-78.00
2025-12-25 17:24:49.377935,599621611490302067,-62.00
2025-12-25 17:24:49.377935,599621611490302067,-66.00
2025-12-25 17:24:49.377935,599621611490302067,-82.00
2025-12-25 17:24:49.377935,599621611490302067,-85.00
2025-12-25 17:24:49.377935,599621611490302067,-75.00
2025-12-25 17:24:49.377935,599621611490302067,-73.00
2025-12-25 17:24:49.377935,599621611490302067,-68.00
2025-12-25 17:24:49.377935,599621611490302067,-13.00
2025-12-25 17:24:49.377935,599621611490302067,147.00
2025-12-25 17:24:49.377935,599621611490302067,411.00
2025-12-25 17:24:49.377935,599621611490302067,521.00
2025-12-25 17:24:49.377935,599621611490302067,20.00
2025-12-25 17:24:49.377935,599621611490302067,-802.00
2025-12-25 17:24:49.377935,599621611490302067,-910.00
2025-12-25 17:24:49.377935,599621611490302067,-356.00
2025-12-25 17:24:49.377935,599621611490302067,-64.00
2025-12-25 17:24:49.377935,599621611490302067,-57.00
2025-12-25 17:24:49.377935,599621611490302067,-4.00
2025-12-25 17:24:49.377935,599621611490302067,16.00
2025-12-25 17:24:49.377935,599621611490302067,-11.00
2025-12-25 17:24:49.455548,599621612051212732,-6.00
2025-12-25 17:24:49.455548,599621612051212732,2.00
2025-12-25 17:24:49.455548,599621612051212732,11.00
2025-12-25 17:24:49.455548,599621612051212732,27.00
2025-12-25 17:24:49.455548,599621612051212732,20.00
2025-12-25 17:24:49.455548,599621612051212732,16.00
2025-12-25 17:24:49.455548,599621612051212732,25.00
2025-12-25 17:24:49.455548,599621612051212732,22.00
2025-12-25 17:24:49.455548,599621612051212732,43.00
2025-12-25 17:24:49.455548,599621612051212732,75.00
2025-12-25 17:24:49.455548,599621612051212732,71.00
2025-12-25 17:24:49.455548,599621612051212732,62.00
2025-12-25 17:24:49.455548,599621612051212732,62.00
2025-12-25 17:24:49.455548,599621612051212732,64.00
2025-12-25 17:24:49.455548,599621612051212732,80.00
2025-12-25 17:24:49.455548,599621612051212732,101.00
2025-12-25 17:24:49.455548,599621612051212732,108.00
2025-12-25 17:24:49.455548,599621612051212732,112.00
2025-12-25 17:24:49.455548,599621612051212732,110.00
2025-12-25 17:24:49.455548,599621612051212732,108.00
2025-12-25 17:24:49.455548,599621612051212732,121.00
2025-12-25 17:24:49.455548,599621612051212732,121.00
2025-12-25 17:24:49.455548,599621612051212732,101.00
2025-12-25 17:24:49.455548,599621612051212732,103.00
2025-12-25 17:24:49.455548,599621612051212732,103.00
2025-12-25 17:24:49.455548,599621612051212732,43.00
2025-12-25 17:24:49.455548,599621612051212732,-22.00
2025-12-25 17:24:49.455548,599621612051212732,-48.00
2025-12-25 17:24:49.455548,599621612051212732,-59.00
2025-12-25 17:24:49.455548,599621612051212732,-73.00
2025-12-25 17:24:49.455548,599621612051212732,-85.00
2025-12-25 17:24:49.455548,599621612051212732,-103.00
2025-12-25 17:24:49.455548,599621612051212732,-114.00
2025-12-25 17:24:49.455548,599621612051212732,-105.00
2025-12-25 17:24:49.455548,599621612051212732,-87.00
2025-12-25 17:24:49.455548,599621612051212732,-82.00
2025-12-25 17:24:49.455548,599621612051212732,-89.00
2025-12-25 17:24:49.455548,599621612051212732,-91.00
2025-12-25 17:24:49.455548,599621612051212732,-94.00
2025-12-25 17:24:49.455548,599621612051212732,-105.00
2025-12-25 17:24:49.455548,599621612051212732,-98.00
2025-12-25 17:24:49.455548,599621612051212732,-71.00
2025-12-25 17:24:49.455548,599621612051212732,-55.00
2025-12-25 17:24:49.455548,599621612051212732,-59.00
2025-12-25 17:24:49.455548,599621612051212732,-62.00
2025-12-25 17:24:49.455548,599621612051212732,-50.00
2025-12-25 17:24:49.455548,599621612051212732,-39.00
2025-12-25 17:24:49.455548,599621612051212732,-39.00
2025-12-25 17:24:49.455548,599621612051212732,-52.00
2025-12-25 17:24:49.455548,599621612051212732,-64.00
2025-12-25 17:24:49.455548,599621612051212732,-50.00
2025-12-25 17:24:49.455548,599621612051212732,-32.00
2025-12-25 17:24:49.455548,599621612051212732,-27.00
2025-12-25 17:24:49.455548,599621612051212732,-27.00
2025-12-25 17:24:49.455548,599621612051212732,-32.00
2025-12-25 17:24:49.455548,599621612051212732,-52.00
2025-12-25 17:24:49.455548,599621612051212732,-66.00
2025-12-25 17:24:49.455548,599621612051212732,-55.00
2025-12-25 17:24:49.455548,599621612051212732,-45.00
2025-12-25 17:24:49.455548,599621612051212732,-36.00
2025-12-25 17:24:49.455548,599621612051212732,-34.00
2025-12-25 17:24:49.455548,599621612051212732,-64.00
2025-12-25 17:24:49.455548,599621612051212732,-71.00
2025-12-25 17:24:49.455548,599621612051212732,-45.00
2025-12-25 17:24:49.455548,599621612051212732,-59.00
2025-12-25 17:24:49.455548,599621612051212732,-75.00
2025-12-25 17:24:49.455548,599621612051212732,-52.00
2025-12-25 17:24:49.455548,599621612051212732,-43.00
2025-12-25 17:24:49.455548,599621612051212732,-48.00
2025-12-25 17:24:49.455548,599621612051212732,-16.00
2025-12-25 17:24:49.455548,599621612051212732,-2.00
2025-12-25 17:24:49.455548,599621612051212732,-62.00
2025-12-25 17:24:49.455548,599621612051212732,-91.00
2025-12-25 17:24:49.988947,599621612612097971,-68.00
2025-12-25 17:24:49.988947,599621612612097971,-71.00
2025-12-25 17:24:49.988947,599621612612097971,-91.00
2025-12-25 17:24:49.988947,599621612612097971,-87.00
2025-12-25 17:24:49.988947,599621612612097971,-82.00
2025-12-25 17:24:49.988947,599621612612097971,-85.00
2025-12-25 17:24:49.988947,599621612612097971,-80.00
2025-12-25 17:24:49.988947,599621612612097971,-52.00
2025-12-25 17:24:49.988947,599621612612097971,32.00
2025-12-25 17:24:49.988947,599621612612097971,225.00
2025-12-25 17:24:49.988947,599621612612097971,498.00
2025-12-25 17:24:49.988947,599621612612097971,429.00
2025-12-25 17:24:49.988947,599621612612097971,-319.00
2025-12-25 17:24:49.988947,599621612612097971,-963.00
2025-12-25 17:24:49.988947,599621612612097971,-698.00
2025-12-25 17:24:49.988947,599621612612097971,-167.00
2025-12-25 17:24:49.988947,599621612612097971,-32.00
2025-12-25 17:24:49.988947,599621612612097971,-25.00
2025-12-25 17:24:49.988947,599621612612097971,13.00
2025-12-25 17:24:49.988947,599621612612097971,4.00
2025-12-25 17:24:49.988947,599621612612097971,-4.00
2025-12-25 17:24:49.988947,599621612612097971,11.00
2025-12-25 17:24:49.988947,599621612612097971,16.00
2025-12-25 17:24:49.988947,599621612612097971,6.00
2025-12-25 17:24:49.988947,599621612612097971,-6.00
2025-12-25 17:24:49.988947,599621612612097971,4.00
2025-12-25 17:24:49.988947,599621612612097971,39.00
2025-12-25 17:24:49.988947,599621612612097971,59.00
2025-12-25 17:24:49.988947,599621612612097971,50.00
2025-12-25 17:24:49.988947,599621612612097971,25.00
2025-12-25 17:24:49.988947,599621612612097971,20.00
2025-12-25 17:24:49.988947,599621612612097971,41.00
2025-12-25 17:24:49.988947,599621612612097971,36.00
2025-12-25 17:24:49.988947,599621612612097971,16.00
2025-12-25 17:24:49.988947,599621612612097971,32.00
2025-12-25 17:24:49.988947,599621612612097971,82.00
2025-12-25 17:24:49.988947,599621612612097971,82.00
2025-12-25 17:24:49.988947,599621612612097971,48.00
2025-12-25 17:24:49.988947,599621612612097971,71.00
2025-12-25 17:24:49.988947,599621612612097971,108.00
2025-12-25 17:24:49.988947,599621612612097971,89.00
2025-12-25 17:24:49.988947,599621612612097971,68.00
2025-12-25 17:24:49.988947,599621612612097971,85.00
2025-12-25 17:24:49.988947,599621612612097971,96.00
2025-12-25 17:24:49.988947,599621612612097971,73.00
2025-12-25 17:24:49.988947,599621612612097971,39.00
2025-12-25 17:24:49.988947,599621612612097971,9.00
2025-12-25 17:24:49.988947,599621612612097971,-34.00
2025-12-25 17:24:49.988947,599621612612097971,-75.00
2025-12-25 17:24:49.988947,599621612612097971,-98.00
2025-12-25 17:24:49.988947,599621612612097971,-119.00
2025-12-25 17:24:49.988947,599621612612097971,-140.00
2025-12-25 17:24:49.988947,599621612612097971,-144.00
2025-12-25 17:24:49.988947,599621612612097971,-126.00
2025-12-25 17:24:49.988947,599621612612097971,-119.00
2025-12-25 17:24:49.988947,599621612612097971,-119.00
2025-12-25 17:24:49.988947,599621612612097971,-98.00
2025-12-25 17:24:49.988947,599621612612097971,-101.00
2025-12-25 17:24:49.988947,599621612612097971,-117.00
2025-12-25 17:24:49.988947,599621612612097971,-103.00
2025-12-25 17:24:49.988947,599621612612097971,-103.00
2025-12-25 17:24:49.988947,599621612612097971,-121.00
2025-12-25 17:24:49.988947,599621612612097971,-96.00
2025-12-25 17:24:49.988947,599621612612097971,-82.00
2025-12-25 17:24:49.988947,599621612612097971,-105.00
2025-12-25 17:24:49.988947,599621612612097971,-98.00
2025-12-25 17:24:49.988947,599621612612097971,-87.00
2025-12-25 17:24:49.988947,599621612612097971,-105.00
2025-12-25 17:24:49.988947,599621612612097971,-110.00
2025-12-25 17:24:49.988947,599621612612097971,-82.00
2025-12-25 17:24:49.988947,599621612612097971,-68.00
2025-12-25 17:24:49.988947,599621612612097971,-80.00
2025-12-25 17:24:49.988947,599621612612097971,-91.00
2025-12-25 17:24:50.678109,599621613173003552,-91.00
2025-12-25 17:24:50.678109,599621613173003552,-80.00
2025-12-25 17:24:50.678109,599621613173003552,-68.00
2025-12-25 17:24:50.678109,599621613173003552,-75.00
2025-12-25 17:24:50.678109,599621613173003552,-85.00
2025-12-25 17:24:50.678109,599621613173003552,-68.00
2025-12-25 17:24:50.678109,599621613173003552,-68.00
2025-12-25 17:24:50.678109,599621613173003552,-87.00
2025-12-25 17:24:50.678109,599621613173003552,-75.00
2025-12-25 17:24:50.678109,599621613173003552,-45.00
2025-12-25 17:24:50.678109,599621613173003552,-43.00
2025-12-25 17:24:50.678109,599621613173003552,-55.00
2025-12-25 17:24:50.678109,599621613173003552,-39.00
2025-12-25 17:24:50.678109,599621613173003552,-22.00
2025-12-25 17:24:50.678109,599621613173003552,-20.00
2025-12-25 17:24:50.678109,599621613173003552,-25.00
2025-12-25 17:24:50.678109,599621613173003552,-50.00
2025-12-25 17:24:50.678109,599621613173003552,-78.00
2025-12-25 17:24:50.678109,599621613173003552,-71.00
2025-12-25 17:24:50.678109,599621613173003552,-71.00
2025-12-25 17:24:50.678109,599621613173003552,-91.00
2025-12-25 17:24:50.678109,599621613173003552,-94.00
2025-12-25 17:24:50.678109,599621613173003552,-71.00
2025-12-25 17:24:50.678109,599621613173003552,-71.00
2025-12-25 17:24:50.678109,599621613173003552,-62.00
2025-12-25 17:24:50.678109,599621613173003552,59.00
2025-12-25 17:24:50.678109,599621613173003552,310.00
2025-12-25 17:24:50.678109,599621613173003552,524.00
2025-12-25 17:24:50.678109,599621613173003552,245.00
2025-12-25 17:24:50.678109,599621613173003552,-595.00
2025-12-25 17:24:50.678109,599621613173003552,-1032.00
2025-12-25 17:24:50.678109,599621613173003552,-586.00
2025-12-25 17:24:50.678109,599621613173003552,-128.00
2025-12-25 17:24:50.678109,599621613173003552,-73.00
2025-12-25 17:24:50.678109,599621613173003552,-41.00
2025-12-25 17:24:50.678109,599621613173003552,18.00
2025-12-25 17:24:50.678109,599621613173003552,2.00
2025-12-25 17:24:50.678109,599621613173003552,-2.00
2025-12-25 17:24:50.678109,599621613173003552,25.00
2025-12-25 17:24:50.678109,599621613173003552,27.00
2025-12-25 17:24:50.678109,599621613173003552,16.00
2025-12-25 17:24:50.678109,599621613173003552,25.00
2025-12-25 17:24:50.678109,599621613173003552,34.00
2025-12-25 17:24:50.678109,599621613173003552,18.00
2025-12-25 17:24:50.678109,599621613173003552,13.00
2025-12-25 17:24:50.678109,599621613173003552,48.00
2025-12-25 17:24:50.678109,599621613173003552,68.00
2025-12-25 17:24:50.678109,599621613173003552,39.00
2025-12-25 17:24:50.678109,599621613173003552,22.00
2025-12-25 17:24:50.678109,599621613173003552,43.00
2025-12-25 17:24:50.678109,599621613173003552,64.00
2025-12-25 17:24:50.678109,599621613173003552,78.00
2025-12-25 17:24:50.678109,599621613173003552,75.00
2025-12-25 17:24:50.678109,599621613173003552,68.00
2025-12-25 17:24:50.678109,599621613173003552,73.00
2025-12-25 17:24:50.678109,599621613173003552,89.00
2025-12-25 17:24:50.678109,599621613173003552,96.00
2025-12-25 17:24:50.678109,599621613173003552,91.00
2025-12-25 17:24:50.678109,599621613173003552,98.00
2025-12-25 17:24:50.678109,599621613173003552,103.00
2025-12-25 17:24:50.678109,599621613173003552,82.00
2025-12-25 17:24:50.678109,599621613173003552,55.00
2025-12-25 17:24:50.678109,599621613173003552,27.00
2025-12-25 17:24:50.678109,599621613173003552,-16.00
2025-12-25 17:24:50.678109,599621613173003552,-62.00
2025-12-25 17:24:50.678109,599621613173003552,-94.00
2025-12-25 17:24:50.678109,599621613173003552,-117.00
2025-12-25 17:24:50.678109,599621613173003552,-117.00
2025-12-25 17:24:50.678109,599621613173003552,-101.00
2025-12-25 17:24:50.678109,599621613173003552,-108.00
2025-12-25 17:24:50.678109,599621613173003552,-131.00
2025-12-25 17:24:50.678109,599621613173003552,-133.00
2025-12-25 17:24:50.678109,599621613173003552,-119.00
2025-12-25 17:24:51.032951,599621613733898959,-94.00
2025-12-25 17:24:51.032951,599621613733898959,-85.00
2025-12-25 17:24:51.032951,599621613733898959,-105.00
2025-12-25 17:24:51.032951,599621613733898959,-110.00
2025-12-25 17:24:51.032951,599621613733898959,-89.00
2025-12-25 17:24:51.032951,599621613733898959,-87.00
2025-12-25 17:24:51.032951,599621613733898959,-91.00
2025-12-25 17:24:51.032951,599621613733898959,-82.00
2025-12-25 17:24:51.032951,599621613733898959,-66.00
2025-12-25 17:24:51.032951,599621613733898959,-59.00
2025-12-25 17:24:51.032951,599621613733898959,-75.00
2025-12-25 17:24:51.032951,599621613733898959,-82.00
2025-12-25 17:24:51.032951,599621613733898959,-62.00
2025-12-25 17:24:51.032951,599621613733898959,-55.00
2025-12-25 17:24:51.032951,599621613733898959,-73.00
2025-12-25 17:24:51.032951,599621613733898959,-73.00
2025-12-25 17:24:51.032951,599621613733898959,-62.00
2025-12-25 17:24:51.032951,599621613733898959,-64.00
2025-12-25 17:24:51.032951,599621613733898959,-59.00
2025-12-25 17:24:51.032951,599621613733898959,-39.00
2025-12-25 17:24:51.032951,599621613733898959,-43.00
2025-12-25 17:24:51.032951,599621613733898959,-71.00
2025-12-25 17:24:51.032951,599621613733898959,-75.00
2025-12-25 17:24:51.032951,599621613733898959,-52.00
2025-12-25 17:24:51.032951,599621613733898959,-36.00
2025-12-25 17:24:51.032951,599621613733898959,-27.00
2025-12-25 17:24:51.032951,599621613733898959,-16.00
2025-12-25 17:24:51.032951,599621613733898959,-4.00
2025-12-25 17:24:51.032951,599621613733898959,11.00
2025-12-25 17:24:51.032951,599621613733898959,27.00
2025-12-25 17:24:51.032951,599621613733898959,22.00
2025-12-25 17:24:51.032951,599621613733898959,-2.00
2025-12-25 17:24:51.032951,599621613733898959,-16.00
2025-12-25 17:24:51.032951,599621613733898959,-18.00
2025-12-25 17:24:51.032951,599621613733898959,-20.00
2025-12-25 17:24:51.032951,599621613733898959,-16.00
2025-12-25 17:24:51.032951,599621613733898959,-4.00
2025-12-25 17:24:51.032951,599621613733898959,-6.00
2025-12-25 17:24:51.032951,599621613733898959,-18.00
2025-12-25 17:24:51.032951,599621613733898959,-18.00
2025-12-25 17:24:51.032951,599621613733898959,18.00
2025-12-25 17:24:51.032951,599621613733898959,165.00
2025-12-25 17:24:51.032951,599621613733898959,450.00
2025-12-25 17:24:51.032951,599621613733898959,570.00
2025-12-25 17:24:51.032951,599621613733898959,36.00
2025-12-25 17:24:51.032951,599621613733898959,-800.00
2025-12-25 17:24:51.032951,599621613733898959,-894.00
2025-12-25 17:24:51.032951,599621613733898959,-335.00
2025-12-25 17:24:51.032951,599621613733898959,-36.00
2025-12-25 17:24:51.032951,599621613733898959,-32.00
2025-12-25 17:24:51.032951,599621613733898959,9.00
2025-12-25 17:24:51.032951,599621613733898959,36.00
2025-12-25 17:24:51.032951,599621613733898959,20.00
2025-12-25 17:24:51.032951,599621613733898959,27.00
2025-12-25 17:24:51.032951,599621613733898959,41.00
2025-12-25 17:24:51.032951,599621613733898959,45.00
2025-12-25 17:24:51.032951,599621613733898959,52.00
2025-12-25 17:24:51.032951,599621613733898959,57.00
2025-12-25 17:24:51.032951,599621613733898959,59.00
2025-12-25 17:24:51.032951,599621613733898959,59.00
2025-12-25 17:24:51.032951,599621613733898959,55.00
2025-12-25 17:24:51.032951,599621613733898959,55.00
2025-12-25 17:24:51.032951,599621613733898959,59.00
2025-12-25 17:24:51.032951,599621613733898959,71.00
2025-12-25 17:24:51.032951,599621613733898959,80.00
2025-12-25 17:24:51.032951,599621613733898959,73.00
2025-12-25 17:24:51.032951,599621613733898959,75.00
2025-12-25 17:24:51.032951,599621613733898959,98.00
2025-12-25 17:24:51.032951,599621613733898959,108.00
2025-12-25 17:24:51.032951,599621613733898959,96.00
2025-12-25 17:24:51.032951,599621613733898959,103.00
2025-12-25 17:24:51.032951,599621613733898959,124.00
2025-12-25 17:24:51.032951,599621613733898959,126.00
2025-12-25 17:24:51.671469,599621614294794368,121.00
2025-12-25 17:24:51.671469,599621614294794368,128.00
2025-12-25 17:24:51.671469,599621614294794368,124.00
2025-12-25 17:24:51.671469,599621614294794368,94.00
2025-12-25 17:24:51.671469,599621614294794368,57.00
2025-12-25 17:24:51.671469,599621614294794368,18.00
2025-12-25 17:24:51.671469,599621614294794368,-25.00
2025-12-25 17:24:51.671469,599621614294794368,-64.00
2025-12-25 17:24:51.671469,599621614294794368,-96.00
2025-12-25 17:24:51.671469,599621614294794368,-101.00
2025-12-25 17:24:51.671469,599621614294794368,-87.00
2025-12-25 17:24:51.671469,599621614294794368,-91.00
2025-12-25 17:24:51.671469,599621614294794368,-105.00
2025-12-25 17:24:51.671469,599621614294794368,-101.00
2025-12-25 17:24:51.671469,599621614294794368,-94.00
2025-12-25 17:24:51.671469,599621614294794368,-94.00
2025-12-25 17:24:51.671469,599621614294794368,-91.00
2025-12-25 17:24:51.671469,599621614294794368,-94.00
2025-12-25 17:24:51.671469,599621614294794368,-94.00
2025-12-25 17:24:51.671469,599621614294794368,-80.00
2025-12-25 17:24:51.671469,599621614294794368,-68.00
2025-12-25 17:24:51.671469,599621614294794368,-64.00
2025-12-25 17:24:51.671469,599621614294794368,-62.00
2025-12-25 17:24:51.671469,599621614294794368,-57.00
2025-12-25 17:24:51.671469,599621614294794368,-62.00
2025-12-25 17:24:51.671469,599621614294794368,-71.00
2025-12-25 17:24:51.671469,599621614294794368,-59.00
2025-12-25 17:24:51.671469,599621614294794368,-52.00
2025-12-25 17:24:51.671469,599621614294794368,-64.00
2025-12-25 17:24:51.671469,599621614294794368,-68.00
2025-12-25 17:24:51.671469,599621614294794368,-66.00
2025-12-25 17:24:51.671469,599621614294794368,-68.00
2025-12-25 17:24:51.671469,599621614294794368,-64.00
2025-12-25 17:24:51.671469,599621614294794368,-59.00
2025-12-25 17:24:51.671469,599621614294794368,-62.00
2025-12-25 17:24:51.671469,599621614294794368,-62.00
2025-12-25 17:24:51.671469,599621614294794368,-62.00
2025-12-25 17:24:51.671469,599621614294794368,-64.00
2025-12-25 17:24:51.671469,599621614294794368,-73.00
2025-12-25 17:24:51.671469,599621614294794368,-75.00
2025-12-25 17:24:51.671469,599621614294794368,-64.00
2025-12-25 17:24:51.671469,599621614294794368,-48.00
2025-12-25 17:24:51.671469,599621614294794368,-50.00
2025-12-25 17:24:51.671469,599621614294794368,-55.00
2025-12-25 17:24:51.671469,599621614294794368,-39.00
2025-12-25 17:24:51.671469,599621614294794368,-20.00
2025-12-25 17:24:51.671469,599621614294794368,-25.00
2025-12-25 17:24:51.671469,599621614294794368,-48.00
2025-12-25 17:24:51.671469,599621614294794368,-62.00
2025-12-25 17:24:51.671469,599621614294794368,-59.00
2025-12-25 17:24:51.671469,599621614294794368,-55.00
2025-12-25 17:24:51.671469,599621614294794368,-55.00
2025-12-25 17:24:51.671469,599621614294794368,-55.00
2025-12-25 17:24:51.671469,599621614294794368,-52.00
2025-12-25 17:24:51.671469,599621614294794368,-50.00
2025-12-25 17:24:51.671469,599621614294794368,-48.00
2025-12-25 17:24:51.671469,599621614294794368,-43.00
2025-12-25 17:24:51.671469,599621614294794368,-16.00
2025-12-25 17:24:51.671469,599621614294794368,101.00
2025-12-25 17:24:51.671469,599621614294794368,370.00
2025-12-25 17:24:51.671469,599621614294794368,558.00
2025-12-25 17:24:51.671469,599621614294794368,154.00
2025-12-25 17:24:51.671469,599621614294794368,-705.00
2025-12-25 17:24:51.671469,599621614294794368,-958.00
2025-12-25 17:24:51.671469,599621614294794368,-420.00
2025-12-25 17:24:51.671469,599621614294794368,-43.00
2025-12-25 17:24:51.671469,599621614294794368,-36.00
2025-12-25 17:24:51.671469,599621614294794368,-4.00
2025-12-25 17:24:51.671469,599621614294794368,41.00
2025-12-25 17:24:51.671469,599621614294794368,27.00
2025-12-25 17:24:51.671469,599621614294794368,34.00
2025-12-25 17:24:51.671469,599621614294794368,48.00
2025-12-25 17:24:51.671469,599621614294794368,45.00
2025-12-25 17:24:52.239240,599621614855699947,48.00
2025-12-25 17:24:52.239240,599621614855699947,57.00
2025-12-25 17:24:52.239240,599621614855699947,57.00
2025-12-25 17:24:52.239240,599621614855699947,55.00
2025-12-25 17:24:52.239240,599621614855699947,59.00
2025-12-25 17:24:52.239240,599621614855699947,66.00
2025-12-25 17:24:52.239240,599621614855699947,66.00
2025-12-25 17:24:52.239240,599621614855699947,71.00
2025-12-25 17:24:52.239240,599621614855699947,78.00
2025-12-25 17:24:52.239240,599621614855699947,82.00
2025-12-25 17:24:52.239240,599621614855699947,91.00
2025-12-25 17:24:52.239240,599621614855699947,98.00
2025-12-25 17:24:52.239240,599621614855699947,114.00
2025-12-25 17:24:52.239240,599621614855699947,142.00
2025-12-25 17:24:52.239240,599621614855699947,160.00
2025-12-25 17:24:52.239240,599621614855699947,167.00
2025-12-25 17:24:52.239240,599621614855699947,165.00
2025-12-25 17:24:52.239240,599621614855699947,167.00
2025-12-25 17:24:52.239240,599621614855699947,186.00
2025-12-25 17:24:52.239240,599621614855699947,188.00
2025-12-25 17:24:52.239240,599621614855699947,158.00
2025-12-25 17:24:52.239240,599621614855699947,114.00
2025-12-25 17:24:52.239240,599621614855699947,73.00
2025-12-25 17:24:52.239240,599621614855699947,36.00
2025-12-25 17:24:52.239240,599621614855699947,0.00
2025-12-25 17:24:52.239240,599621614855699947,-39.00
2025-12-25 17:24:52.239240,599621614855699947,-62.00
2025-12-25 17:24:52.239240,599621614855699947,-73.00
2025-12-25 17:24:52.239240,599621614855699947,-85.00
2025-12-25 17:24:52.239240,599621614855699947,-82.00
2025-12-25 17:24:52.239240,599621614855699947,-78.00
2025-12-25 17:24:52.239240,599621614855699947,-80.00
2025-12-25 17:24:52.239240,599621614855699947,-82.00
2025-12-25 17:24:52.239240,599621614855699947,-73.00
2025-12-25 17:24:52.239240,599621614855699947,-66.00
2025-12-25 17:24:52.239240,599621614855699947,-73.00
2025-12-25 17:24:52.239240,599621614855699947,-75.00
2025-12-25 17:24:52.239240,599621614855699947,-66.00
2025-12-25 17:24:52.239240,599621614855699947,-68.00
2025-12-25 17:24:52.239240,599621614855699947,-73.00
2025-12-25 17:24:52.239240,599621614855699947,-66.00
2025-12-25 17:24:52.239240,599621614855699947,-52.00
2025-12-25 17:24:52.239240,599621614855699947,-50.00
2025-12-25 17:24:52.239240,599621614855699947,-62.00
2025-12-25 17:24:52.239240,599621614855699947,-68.00
2025-12-25 17:24:52.239240,599621614855699947,-68.00
2025-12-25 17:24:52.239240,599621614855699947,-66.00
2025-12-25 17:24:52.239240,599621614855699947,-64.00
2025-12-25 17:24:52.239240,599621614855699947,-59.00
2025-12-25 17:24:52.239240,599621614855699947,-57.00
2025-12-25 17:24:52.239240,599621614855699947,-64.00
2025-12-25 17:24:52.239240,599621614855699947,-75.00
2025-12-25 17:24:52.239240,599621614855699947,-78.00
2025-12-25 17:24:52.239240,599621614855699947,-71.00
2025-12-25 17:24:52.239240,599621614855699947,-71.00
2025-12-25 17:24:52.239240,599621614855699947,-75.00
2025-12-25 17:24:52.239240,599621614855699947,-73.00
2025-12-25 17:24:52.239240,599621614855699947,-73.00
2025-12-25 17:24:52.239240,599621614855699947,-78.00
2025-12-25 17:24:52.239240,599621614855699947,-68.00
2025-12-25 17:24:52.239240,599621614855699947,-64.00
2025-12-25 17:24:52.239240,599621614855699947,-71.00
2025-12-25 17:24:52.239240,599621614855699947,-64.00
2025-12-25 17:24:52.239240,599621614855699947,-43.00
2025-12-25 17:24:52.239240,599621614855699947,-36.00
2025-12-25 17:24:52.239240,599621614855699947,-25.00
2025-12-25 17:24:52.239240,599621614855699947,-20.00
2025-12-25 17:24:52.239240,599621614855699947,-50.00
2025-12-25 17:24:52.239240,599621614855699947,-73.00
2025-12-25 17:24:52.239240,599621614855699947,-78.00
2025-12-25 17:24:52.239240,599621614855699947,-80.00
2025-12-25 17:24:52.239240,599621614855699947,-66.00
2025-12-25 17:24:52.239240,599621614855699947,-55.00
2025-12-25 17:24:52.747463,599621615416615700,-62.00
2025-12-25 17:24:52.747463,599621615416615700,-66.00
2025-12-25 17:24:52.747463,599621615416615700,-62.00
2025-12-25 17:24:52.747463,599621615416615700,-55.00
2025-12-25 17:24:52.747463,599621615416615700,-27.00
2025-12-25 17:24:52.747463,599621615416615700,80.00
2025-12-25 17:24:52.747463,599621615416615700,335.00
2025-12-25 17:24:52.747463,599621615416615700,563.00
2025-12-25 17:24:52.747463,599621615416615700,266.00
2025-12-25 17:24:52.747463,599621615416615700,-574.00
2025-12-25 17:24:52.747463,599621615416615700,-967.00
2025-12-25 17:24:52.747463,599621615416615700,-487.00
2025-12-25 17:24:52.747463,599621615416615700,-48.00
2025-12-25 17:24:52.747463,599621615416615700,-18.00
2025-12-25 17:24:52.747463,599621615416615700,11.00
2025-12-25 17:24:52.747463,599621615416615700,78.00
2025-12-25 17:24:52.747463,599621615416615700,75.00
2025-12-25 17:24:52.747463,599621615416615700,71.00
2025-12-25 17:24:52.747463,599621615416615700,82.00
2025-12-25 17:24:52.747463,599621615416615700,80.00
2025-12-25 17:24:52.747463,599621615416615700,78.00
2025-12-25 17:24:52.747463,599621615416615700,87.00
2025-12-25 17:24:52.747463,599621615416615700,91.00
2025-12-25 17:24:52.747463,599621615416615700,85.00
2025-12-25 17:24:52.747463,599621615416615700,85.00
2025-12-25 17:24:52.747463,599621615416615700,91.00
2025-12-25 17:24:52.747463,599621615416615700,94.00
2025-12-25 17:24:52.747463,599621615416615700,91.00
2025-12-25 17:24:52.747463,599621615416615700,91.00
2025-12-25 17:24:52.747463,599621615416615700,96.00
2025-12-25 17:24:52.747463,599621615416615700,110.00
2025-12-25 17:24:52.747463,599621615416615700,119.00
2025-12-25 17:24:52.747463,599621615416615700,124.00
2025-12-25 17:24:52.747463,599621615416615700,131.00
2025-12-25 17:24:52.747463,599621615416615700,137.00
2025-12-25 17:24:52.747463,599621615416615700,144.00
2025-12-25 17:24:52.747463,599621615416615700,151.00
2025-12-25 17:24:52.747463,599621615416615700,151.00
2025-12-25 17:24:52.747463,599621615416615700,149.00
2025-12-25 17:24:52.747463,599621615416615700,142.00
2025-12-25 17:24:52.747463,599621615416615700,126.00
2025-12-25 17:24:52.747463,599621615416615700,96.00
2025-12-25 17:24:52.747463,599621615416615700,55.00
2025-12-25 17:24:52.747463,599621615416615700,16.00
2025-12-25 17:24:52.747463,599621615416615700,-22.00
2025-12-25 17:24:52.747463,599621615416615700,-52.00
2025-12-25 17:24:52.747463,599621615416615700,-78.00
2025-12-25 17:24:52.747463,599621615416615700,-94.00
2025-12-25 17:24:52.747463,599621615416615700,-103.00
2025-12-25 17:24:52.747463,599621615416615700,-105.00
2025-12-25 17:24:52.747463,599621615416615700,-98.00
2025-12-25 17:24:52.747463,599621615416615700,-89.00
2025-12-25 17:24:52.747463,599621615416615700,-91.00
2025-12-25 17:24:52.747463,599621615416615700,-96.00
2025-12-25 17:24:52.747463,599621615416615700,-91.00
2025-12-25 17:24:52.747463,599621615416615700,-91.00
2025-12-25 17:24:52.747463,599621615416615700,-91.00
2025-12-25 17:24:52.747463,599621615416615700,-85.00
2025-12-25 17:24:52.747463,599621615416615700,-80.00
2025-12-25 17:24:52.747463,599621615416615700,-80.00
2025-12-25 17:24:52.747463,599621615416615700,-80.00
2025-12-25 17:24:52.747463,599621615416615700,-80.00
2025-12-25 17:24:52.747463,599621615416615700,-80.00
2025-12-25 17:24:52.747463,599621615416615700,-73.00
2025-12-25 17:24:52.747463,599621615416615700,-68.00
2025-12-25 17:24:52.747463,599621615416615700,-71.00
2025-12-25 17:24:52.747463,599621615416615700,-75.00
2025-12-25 17:24:52.747463,599621615416615700,-78.00
2025-12-25 17:24:52.747463,599621615416615700,-80.00
2025-12-25 17:24:52.747463,599621615416615700,-75.00
2025-12-25 17:24:52.747463,599621615416615700,-68.00
2025-12-25 17:24:52.747463,599621615416615700,-75.00
2025-12-25 17:24:52.747463,599621615416615700,-80.00
2025-12-25 17:24:53.305851,599621615977500939,-71.00
2025-12-25 17:24:53.305851,599621615977500939,-71.00
2025-12-25 17:24:53.305851,599621615977500939,-71.00
2025-12-25 17:24:53.305851,599621615977500939,-64.00
2025-12-25 17:24:53.305851,599621615977500939,-66.00
2025-12-25 17:24:53.305851,599621615977500939,-78.00
2025-12-25 17:24:53.305851,599621615977500939,-66.00
2025-12-25 17:24:53.305851,599621615977500939,-41.00
2025-12-25 17:24:53.305851,599621615977500939,-43.00
2025-12-25 17:24:53.305851,599621615977500939,-57.00
2025-12-25 17:24:53.305851,599621615977500939,-48.00
2025-12-25 17:24:53.305851,599621615977500939,-34.00
2025-12-25 17:24:53.305851,599621615977500939,-27.00
2025-12-25 17:24:53.305851,599621615977500939,-2.00
2025-12-25 17:24:53.305851,599621615977500939,9.00
2025-12-25 17:24:53.305851,599621615977500939,-20.00
2025-12-25 17:24:53.305851,599621615977500939,-43.00
2025-12-25 17:24:53.305851,599621615977500939,-41.00
2025-12-25 17:24:53.305851,599621615977500939,-48.00
2025-12-25 17:24:53.305851,599621615977500939,-55.00
2025-12-25 17:24:53.305851,599621615977500939,-50.00
2025-12-25 17:24:53.305851,599621615977500939,-43.00
2025-12-25 17:24:53.305851,599621615977500939,-39.00
2025-12-25 17:24:53.305851,599621615977500939,-41.00
2025-12-25 17:24:53.305851,599621615977500939,-39.00
2025-12-25 17:24:53.305851,599621615977500939,-2.00
2025-12-25 17:24:53.305851,599621615977500939,128.00
2025-12-25 17:24:53.305851,599621615977500939,388.00
2025-12-25 17:24:53.305851,599621615977500939,574.00
2025-12-25 17:24:53.305851,599621615977500939,206.00
2025-12-25 17:24:53.305851,599621615977500939,-643.00
2025-12-25 17:24:53.305851,599621615977500939,-974.00
2025-12-25 17:24:53.305851,599621615977500939,-498.00
2025-12-25 17:24:53.305851,599621615977500939,-96.00
2025-12-25 17:24:53.305851,599621615977500939,-48.00
2025-12-25 17:24:53.305851,599621615977500939,-9.00
2025-12-25 17:24:53.305851,599621615977500939,34.00
2025-12-25 17:24:53.305851,599621615977500939,20.00
2025-12-25 17:24:53.305851,599621615977500939,20.00
2025-12-25 17:24:53.305851,599621615977500939,41.00
2025-12-25 17:24:53.305851,599621615977500939,39.00
2025-12-25 17:24:53.305851,599621615977500939,32.00
2025-12-25 17:24:53.305851,599621615977500939,36.00
2025-12-25 17:24:53.305851,599621615977500939,43.00
2025-12-25 17:24:53.305851,599621615977500939,41.00
2025-12-25 17:24:53.305851,599621615977500939,41.00
2025-12-25 17:24:53.305851,599621615977500939,50.00
2025-12-25 17:24:53.305851,599621615977500939,52.00
2025-12-25 17:24:53.305851,599621615977500939,55.00
2025-12-25 17:24:53.305851,599621615977500939,62.00
2025-12-25 17:24:53.305851,599621615977500939,62.00
2025-12-25 17:24:53.305851,599621615977500939,66.00
2025-12-25 17:24:53.305851,599621615977500939,73.00
2025-12-25 17:24:53.305851,599621615977500939,80.00
2025-12-25 17:24:53.305851,599621615977500939,94.00
2025-12-25 17:24:53.305851,599621615977500939,110.00
2025-12-25 17:24:53.305851,599621615977500939,112.00
2025-12-25 17:24:53.305851,599621615977500939,112.00
2025-12-25 17:24:53.305851,599621615977500939,117.00
2025-12-25 17:24:53.305851,599621615977500939,124.00
2025-12-25 17:24:53.305851,599621615977500939,117.00
2025-12-25 17:24:53.305851,599621615977500939,98.00
2025-12-25 17:24:53.305851,599621615977500939,68.00
2025-12-25 17:24:53.305851,599621615977500939,29.00
2025-12-25 17:24:53.305851,599621615977500939,-11.00
2025-12-25 17:24:53.305851,599621615977500939,-45.00
2025-12-25 17:24:53.305851,599621615977500939,-71.00
2025-12-25 17:24:53.305851,599621615977500939,-103.00
2025-12-25 17:24:53.305851,599621615977500939,-124.00
2025-12-25 17:24:53.305851,599621615977500939,-126.00
2025-12-25 17:24:53.305851,599621615977500939,-124.00
2025-12-25 17:24:53.305851,599621615977500939,-124.00
2025-12-25 17:24:53.305851,599621615977500939,-119.00
2025-12-25 17:24:53.799786,599621616538386174,-121.00
2025-12-25 17:24:53.799786,599621616538386174,-124.00
2025-12-25 17:24:53.799786,599621616538386174,-114.00
2025-12-25 17:24:53.799786,599621616538386174,-114.00
2025-12-25 17:24:53.799786,599621616538386174,-114.00
2025-12-25 17:24:53.799786,599621616538386174,-112.00
2025-12-25 17:24:53.799786,599621616538386174,-110.00
2025-12-25 17:24:53.799786,599621616538386174,-112.00
2025-12-25 17:24:53.799786,599621616538386174,-108.00
2025-12-25 17:24:53.799786,599621616538386174,-94.00
2025-12-25 17:24:53.799786,599621616538386174,-85.00
2025-12-25 17:24:53.799786,599621616538386174,-75.00
2025-12-25 17:24:53.799786,599621616538386174,-75.00
2025-12-25 17:24:53.799786,599621616538386174,-73.00
2025-12-25 17:24:53.799786,599621616538386174,-68.00
2025-12-25 17:24:53.799786,599621616538386174,-71.00
2025-12-25 17:24:53.799786,599621616538386174,-73.00
2025-12-25 17:24:53.799786,599621616538386174,-66.00
2025-12-25 17:24:53.799786,599621616538386174,-73.00
2025-12-25 17:24:53.799786,599621616538386174,-85.00
2025-12-25 17:24:53.799786,599621616538386174,-80.00
2025-12-25 17:24:53.799786,599621616538386174,-68.00
2025-12-25 17:24:53.799786,599621616538386174,-66.00
2025-12-25 17:24:53.799786,599621616538386174,-71.00
2025-12-25 17:24:53.799786,599621616538386174,-75.00
2025-12-25 17:24:53.799786,599621616538386174,-80.00
2025-12-25 17:24:53.799786,599621616538386174,-82.00
2025-12-25 17:24:53.799786,599621616538386174,-73.00
2025-12-25 17:24:53.799786,599621616538386174,-59.00
2025-12-25 17:24:53.799786,599621616538386174,-48.00
2025-12-25 17:24:53.799786,599621616538386174,-34.00
2025-12-25 17:24:53.799786,599621616538386174,-39.00
2025-12-25 17:24:53.799786,599621616538386174,-64.00
2025-12-25 17:24:53.799786,599621616538386174,-75.00
2025-12-25 17:24:53.799786,599621616538386174,-73.00
2025-12-25 17:24:53.799786,599621616538386174,-73.00
2025-12-25 17:24:53.799786,599621616538386174,-71.00
2025-12-25 17:24:53.799786,599621616538386174,-64.00
2025-12-25 17:24:53.799786,599621616538386174,-64.00
2025-12-25 17:24:53.799786,599621616538386174,-62.00
2025-12-25 17:24:53.799786,599621616538386174,-52.00
2025-12-25 17:24:53.799786,599621616538386174,-32.00
2025-12-25 17:24:53.799786,599621616538386174,73.00
2025-12-25 17:24:53.799786,599621616538386174,358.00
2025-12-25 17:24:53.799786,599621616538386174,634.00
2025-12-25 17:24:53.799786,599621616538386174,347.00
2025-12-25 17:24:53.799786,599621616538386174,-588.00
2025-12-25 17:24:53.799786,599621616538386174,-1094.00
2025-12-25 17:24:53.799786,599621616538386174,-606.00
2025-12-25 17:24:53.799786,599621616538386174,-105.00
2025-12-25 17:24:53.799786,599621616538386174,-62.00
2025-12-25 17:24:53.799786,599621616538386174,-16.00
2025-12-25 17:24:53.799786,599621616538386174,64.00
2025-12-25 17:24:53.799786,599621616538386174,39.00
2025-12-25 17:24:53.799786,599621616538386174,29.00
2025-12-25 17:24:53.799786,599621616538386174,59.00
2025-12-25 17:24:53.799786,599621616538386174,62.00
2025-12-25 17:24:53.799786,599621616538386174,55.00
2025-12-25 17:24:53.799786,599621616538386174,68.00
2025-12-25 17:24:53.799786,599621616538386174,73.00
2025-12-25 17:24:53.799786,599621616538386174,73.00
2025-12-25 17:24:53.799786,599621616538386174,78.00
2025-12-25 17:24:53.799786,599621616538386174,80.00
2025-12-25 17:24:53.799786,599621616538386174,78.00
2025-12-25 17:24:53.799786,599621616538386174,85.00
2025-12-25 17:24:53.799786,599621616538386174,98.00
2025-12-25 17:24:53.799786,599621616538386174,108.00
2025-12-25 17:24:53.799786,599621616538386174,108.00
2025-12-25 17:24:53.799786,599621616538386174,112.00
2025-12-25 17:24:53.799786,599621616538386174,121.00
2025-12-25 17:24:53.799786,599621616538386174,126.00
2025-12-25 17:24:53.799786,599621616538386174,131.00
2025-12-25 17:24:53.799786,599621616538386174,142.00
2025-12-25 17:24:54.510728,599621617099286669,151.00
2025-12-25 17:24:54.510728,599621617099286669,156.00
2025-12-25 17:24:54.510728,599621617099286669,154.00
2025-12-25 17:24:54.510728,599621617099286669,142.00
2025-12-25 17:24:54.510728,599621617099286669,126.00
2025-12-25 17:24:54.510728,599621617099286669,94.00
2025-12-25 17:24:54.510728,599621617099286669,43.00
2025-12-25 17:24:54.510728,599621617099286669,2.00
2025-12-25 17:24:54.510728,599621617099286669,-25.00
2025-12-25 17:24:54.510728,599621617099286669,-57.00
2025-12-25 17:24:54.510728,599621617099286669,-85.00
2025-12-25 17:24:54.510728,599621617099286669,-96.00
2025-12-25 17:24:54.510728,599621617099286669,-101.00
2025-12-25 17:24:54.510728,599621617099286669,-101.00
2025-12-25 17:24:54.510728,599621617099286669,-101.00
2025-12-25 17:24:54.510728,599621617099286669,-101.00
2025-12-25 17:24:54.510728,599621617099286669,-101.00
2025-12-25 17:24:54.510728,599621617099286669,-96.00
2025-12-25 17:24:54.510728,599621617099286669,-91.00
2025-12-25 17:24:54.510728,599621617099286669,-89.00
2025-12-25 17:24:54.510728,599621617099286669,-87.00
2025-12-25 17:24:54.510728,599621617099286669,-89.00
2025-12-25 17:24:54.510728,599621617099286669,-85.00
2025-12-25 17:24:54.510728,599621617099286669,-80.00
2025-12-25 17:24:54.510728,599621617099286669,-82.00
2025-12-25 17:24:54.510728,599621617099286669,-78.00
2025-12-25 17:24:54.510728,599621617099286669,-71.00
2025-12-25 17:24:54.510728,599621617099286669,-73.00
2025-12-25 17:24:54.510728,599621617099286669,-80.00
2025-12-25 17:24:54.510728,599621617099286669,-78.00
2025-12-25 17:24:54.510728,599621617099286669,-71.00
2025-12-25 17:24:54.510728,599621617099286669,-62.00
2025-12-25 17:24:54.510728,599621617099286669,-68.00
2025-12-25 17:24:54.510728,599621617099286669,-80.00
2025-12-25 17:24:54.510728,599621617099286669,-78.00
2025-12-25 17:24:54.510728,599621617099286669,-68.00
2025-12-25 17:24:54.510728,599621617099286669,-68.00
2025-12-25 17:24:54.510728,599621617099286669,-71.00
2025-12-25 17:24:54.510728,599621617099286669,-66.00
2025-12-25 17:24:54.510728,599621617099286669,-59.00
2025-12-25 17:24:54.510728,599621617099286669,-64.00
2025-12-25 17:24:54.510728,599621617099286669,-78.00
2025-12-25 17:24:54.510728,599621617099286669,-78.00
2025-12-25 17:24:54.510728,599621617099286669,-62.00
2025-12-25 17:24:54.510728,599621617099286669,-57.00
2025-12-25 17:24:54.510728,599621617099286669,-55.00
2025-12-25 17:24:54.510728,599621617099286669,-32.00
2025-12-25 17:24:54.510728,599621617099286669,-27.00
2025-12-25 17:24:54.510728,599621617099286669,-59.00
2025-12-25 17:24:54.510728,599621617099286669,-66.00
2025-12-25 17:24:54.510728,599621617099286669,-39.00
2025-12-25 17:24:54.510728,599621617099286669,-39.00
2025-12-25 17:24:54.510728,599621617099286669,-50.00
2025-12-25 17:24:54.510728,599621617099286669,-39.00
2025-12-25 17:24:54.510728,599621617099286669,-34.00
2025-12-25 17:24:54.510728,599621617099286669,-39.00
2025-12-25 17:24:54.510728,599621617099286669,-34.00
2025-12-25 17:24:54.510728,599621617099286669,-27.00
2025-12-25 17:24:54.510728,599621617099286669,39.00
2025-12-25 17:24:54.510728,599621617099286669,264.00
2025-12-25 17:24:54.510728,599621617099286669,583.00
2025-12-25 17:24:54.510728,599621617099286669,547.00
2025-12-25 17:24:54.510728,599621617099286669,-245.00
2025-12-25 17:24:54.510728,599621617099286669,-1034.00
2025-12-25 17:24:54.510728,599621617099286669,-809.00
2025-12-25 17:24:54.510728,599621617099286669,-186.00
2025-12-25 17:24:54.510728,599621617099286669,-41.00
2025-12-25 17:24:54.510728,599621617099286669,-45.00
2025-12-25 17:24:54.510728,599621617099286669,59.00
2025-12-25 17:24:54.510728,599621617099286669,66.00
2025-12-25 17:24:54.510728,599621617099286669,22.00
2025-12-25 17:24:54.510728,599621617099286669,52.00
2025-12-25 17:24:54.510728,599621617099286669,73.00
2025-12-25 17:24:55.001233,599621617660187162,50.00
2025-12-25 17:24:55.001233,599621617660187162,43.00
2025-12-25 17:24:55.001233,599621617660187162,66.00
2025-12-25 17:24:55.001233,599621617660187162,75.00
2025-12-25 17:24:55.001233,599621617660187162,68.00
2025-12-25 17:24:55.001233,599621617660187162,68.00
2025-12-25 17:24:55.001233,599621617660187162,75.00
2025-12-25 17:24:55.001233,599621617660187162,80.00
2025-12-25 17:24:55.001233,599621617660187162,82.00
2025-12-25 17:24:55.001233,599621617660187162,87.00
2025-12-25 17:24:55.001233,599621617660187162,103.00
2025-12-25 17:24:55.001233,599621617660187162,131.00
2025-12-25 17:24:55.001233,599621617660187162,140.00
2025-12-25 17:24:55.001233,599621617660187162,135.00
2025-12-25 17:24:55.001233,599621617660187162,142.00
2025-12-25 17:24:55.001233,599621617660187162,158.00
2025-12-25 17:24:55.001233,599621617660187162,177.00
2025-12-25 17:24:55.001233,599621617660187162,188.00
2025-12-25 17:24:55.001233,599621617660187162,186.00
2025-12-25 17:24:55.001233,599621617660187162,174.00
2025-12-25 17:24:55.001233,599621617660187162,156.00
2025-12-25 17:24:55.001233,599621617660187162,126.00
2025-12-25 17:24:55.001233,599621617660187162,80.00
2025-12-25 17:24:55.001233,599621617660187162,32.00
2025-12-25 17:24:55.001233,599621617660187162,-16.00
2025-12-25 17:24:55.001233,599621617660187162,-57.00
2025-12-25 17:24:55.001233,599621617660187162,-87.00
2025-12-25 17:24:55.001233,599621617660187162,-98.00
2025-12-25 17:24:55.001233,599621617660187162,-91.00
2025-12-25 17:24:55.001233,599621617660187162,-89.00
2025-12-25 17:24:55.001233,599621617660187162,-96.00
2025-12-25 17:24:55.001233,599621617660187162,-101.00
2025-12-25 17:24:55.001233,599621617660187162,-96.00
2025-12-25 17:24:55.001233,599621617660187162,-94.00
2025-12-25 17:24:55.001233,599621617660187162,-94.00
2025-12-25 17:24:55.001233,599621617660187162,-89.00
2025-12-25 17:24:55.001233,599621617660187162,-87.00
2025-12-25 17:24:55.001233,599621617660187162,-87.00
2025-12-25 17:24:55.001233,599621617660187162,-85.00
2025-12-25 17:24:55.001233,599621617660187162,-82.00
2025-12-25 17:24:55.001233,599621617660187162,-73.00
2025-12-25 17:24:55.001233,599621617660187162,-71.00
2025-12-25 17:24:55.001233,599621617660187162,-68.00
2025-12-25 17:24:55.001233,599621617660187162,-57.00
2025-12-25 17:24:55.001233,599621617660187162,-50.00
2025-12-25 17:24:55.001233,599621617660187162,-52.00
2025-12-25 17:24:55.001233,599621617660187162,-52.00
2025-12-25 17:24:55.001233,599621617660187162,-50.00
2025-12-25 17:24:55.001233,599621617660187162,-52.00
2025-12-25 17:24:55.001233,599621617660187162,-59.00
2025-12-25 17:24:55.001233,599621617660187162,-62.00
2025-12-25 17:24:55.001233,599621617660187162,-59.00
2025-12-25 17:24:55.001233,599621617660187162,-55.00
2025-12-25 17:24:55.001233,599621617660187162,-55.00
2025-12-25 17:24:55.001233,599621617660187162,-57.00
2025-12-25 17:24:55.001233,599621617660187162,-55.00
2025-12-25 17:24:55.001233,599621617660187162,-55.00
2025-12-25 17:24:55.001233,599621617660187162,-66.00
2025-12-25 17:24:55.001233,599621617660187162,-59.00
2025-12-25 17:24:55.001233,599621617660187162,-39.00
2025-12-25 17:24:55.001233,599621617660187162,-29.00
2025-12-25 17:24:55.001233,599621617660187162,-11.00
2025-12-25 17:24:55.001233,599621617660187162,0.00
2025-12-25 17:24:55.001233,599621617660187162,-27.00
2025-12-25 17:24:55.001233,599621617660187162,-57.00
2025-12-25 17:24:55.001233,599621617660187162,-52.00
2025-12-25 17:24:55.001233,599621617660187162,-48.00
2025-12-25 17:24:55.001233,599621617660187162,-57.00
2025-12-25 17:24:55.001233,599621617660187162,-59.00
2025-12-25 17:24:55.001233,599621617660187162,-52.00
2025-12-25 17:24:55.001233,599621617660187162,-45.00
2025-12-25 17:24:55.001233,599621617660187162,-48.00
2025-12-25 17:24:55.001233,599621617660187162,-41.00
2025-12-25 17:24:55.565724,599621618221072397,9.00
2025-12-25 17:24:55.565724,599621618221072397,204.00
2025-12-25 17:24:55.565724,599621618221072397,554.00
2025-12-25 17:24:55.565724,599621618221072397,627.00
2025-12-25 17:24:55.565724,599621618221072397,-108.00
2025-12-25 17:24:55.565724,599621618221072397,-1023.00
2025-12-25 17:24:55.565724,599621618221072397,-903.00
2025-12-25 17:24:55.565724,599621618221072397,-197.00
2025-12-25 17:24:55.565724,599621618221072397,16.00
2025-12-25 17:24:55.565724,599621618221072397,-29.00
2025-12-25 17:24:55.565724,599621618221072397,55.00
2025-12-25 17:24:55.565724,599621618221072397,78.00
2025-12-25 17:24:55.565724,599621618221072397,43.00
2025-12-25 17:24:55.565724,599621618221072397,78.00
2025-12-25 17:24:55.565724,599621618221072397,112.00
2025-12-25 17:24:55.565724,599621618221072397,89.00
2025-12-25 17:24:55.565724,599621618221072397,85.00
2025-12-25 17:24:55.565724,599621618221072397,103.00
2025-12-25 17:24:55.565724,599621618221072397,110.00
2025-12-25 17:24:55.565724,599621618221072397,103.00
2025-12-25 17:24:55.565724,599621618221072397,103.00
2025-12-25 17:24:55.565724,599621618221072397,105.00
2025-12-25 17:24:55.565724,599621618221072397,110.00
2025-12-25 17:24:55.565724,599621618221072397,112.00
2025-12-25 17:24:55.565724,599621618221072397,112.00
2025-12-25 17:24:55.565724,599621618221072397,117.00
2025-12-25 17:24:55.565724,599621618221072397,124.00
2025-12-25 17:24:55.565724,599621618221072397,131.00
2025-12-25 17:24:55.565724,599621618221072397,140.00
2025-12-25 17:24:55.565724,599621618221072397,147.00
2025-12-25 17:24:55.565724,599621618221072397,154.00
2025-12-25 17:24:55.565724,599621618221072397,158.00
2025-12-25 17:24:55.565724,599621618221072397,160.00
2025-12-25 17:24:55.565724,599621618221072397,160.00
2025-12-25 17:24:55.565724,599621618221072397,154.00
2025-12-25 17:24:55.565724,599621618221072397,142.00
2025-12-25 17:24:55.565724,599621618221072397,117.00
2025-12-25 17:24:55.565724,599621618221072397,75.00
2025-12-25 17:24:55.565724,599621618221072397,20.00
2025-12-25 17:24:55.565724,599621618221072397,-29.00
2025-12-25 17:24:55.565724,599621618221072397,-62.00
2025-12-25 17:24:55.565724,599621618221072397,-85.00
2025-12-25 17:24:55.565724,599621618221072397,-98.00
2025-12-25 17:24:55.565724,599621618221072397,-105.00
2025-12-25 17:24:55.565724,599621618221072397,-108.00
2025-12-25 17:24:55.565724,599621618221072397,-112.00
2025-12-25 17:24:55.565724,599621618221072397,-112.00
2025-12-25 17:24:55.565724,599621618221072397,-103.00
2025-12-25 17:24:55.565724,599621618221072397,-94.00
2025-12-25 17:24:55.565724,599621618221072397,-96.00
2025-12-25 17:24:55.565724,599621618221072397,-101.00
2025-12-25 17:24:55.565724,599621618221072397,-94.00
2025-12-25 17:24:55.565724,599621618221072397,-87.00
2025-12-25 17:24:55.565724,599621618221072397,-85.00
2025-12-25 17:24:55.565724,599621618221072397,-80.00
2025-12-25 17:24:55.565724,599621618221072397,-78.00
2025-12-25 17:24:55.565724,599621618221072397,-82.00
2025-12-25 17:24:55.565724,599621618221072397,-85.00
2025-12-25 17:24:55.565724,599621618221072397,-80.00
2025-12-25 17:24:55.565724,599621618221072397,-75.00
2025-12-25 17:24:55.565724,599621618221072397,-73.00
2025-12-25 17:24:55.565724,599621618221072397,-73.00
2025-12-25 17:24:55.565724,599621618221072397,-75.00
2025-12-25 17:24:55.565724,599621618221072397,-75.00
2025-12-25 17:24:55.565724,599621618221072397,-75.00
2025-12-25 17:24:55.565724,599621618221072397,-73.00
2025-12-25 17:24:55.565724,599621618221072397,-78.00
2025-12-25 17:24:55.565724,599621618221072397,-82.00
2025-12-25 17:24:55.565724,599621618221072397,-87.00
2025-12-25 17:24:55.565724,599621618221072397,-87.00
2025-12-25 17:24:55.565724,599621618221072397,-80.00
2025-12-25 17:24:55.565724,599621618221072397,-75.00
2025-12-25 17:24:55.565724,599621618221072397,-75.00
2025-12-25 17:24:56.058771,599621618781957634,-73.00
2025-12-25 17:24:56.058771,599621618781957634,-73.00
2025-12-25 17:24:56.058771,599621618781957634,-80.00
2025-12-25 17:24:56.058771,599621618781957634,-75.00
2025-12-25 17:24:56.058771,599621618781957634,-62.00
2025-12-25 17:24:56.058771,599621618781957634,-41.00
2025-12-25 17:24:56.058771,599621618781957634,-13.00
2025-12-25 17:24:56.058771,599621618781957634,-6.00
2025-12-25 17:24:56.058771,599621618781957634,-29.00
2025-12-25 17:24:56.058771,599621618781957634,-48.00
2025-12-25 17:24:56.058771,599621618781957634,-39.00
2025-12-25 17:24:56.058771,599621618781957634,-25.00
2025-12-25 17:24:56.058771,599621618781957634,-25.00
2025-12-25 17:24:56.058771,599621618781957634,-34.00
2025-12-25 17:24:56.058771,599621618781957634,-36.00
2025-12-25 17:24:56.058771,599621618781957634,-34.00
2025-12-25 17:24:56.058771,599621618781957634,-29.00
2025-12-25 17:24:56.058771,599621618781957634,-25.00
2025-12-25 17:24:56.058771,599621618781957634,6.00
2025-12-25 17:24:56.058771,599621618781957634,183.00
2025-12-25 17:24:56.058771,599621618781957634,535.00
2025-12-25 17:24:56.058771,599621618781957634,678.00
2025-12-25 17:24:56.058771,599621618781957634,27.00
2025-12-25 17:24:56.058771,599621618781957634,-933.00
2025-12-25 17:24:56.058771,599621618781957634,-935.00
2025-12-25 17:24:56.058771,599621618781957634,-232.00
2025-12-25 17:24:56.058771,599621618781957634,22.00
2025-12-25 17:24:56.058771,599621618781957634,-41.00
2025-12-25 17:24:56.058771,599621618781957634,48.00
2025-12-25 17:24:56.058771,599621618781957634,98.00
2025-12-25 17:24:56.058771,599621618781957634,50.00
2025-12-25 17:24:56.058771,599621618781957634,59.00
2025-12-25 17:24:56.058771,599621618781957634,85.00
2025-12-25 17:24:56.058771,599621618781957634,75.00
2025-12-25 17:24:56.058771,599621618781957634,73.00
2025-12-25 17:24:56.058771,599621618781957634,85.00
2025-12-25 17:24:56.058771,599621618781957634,82.00
2025-12-25 17:24:56.058771,599621618781957634,80.00
2025-12-25 17:24:56.058771,599621618781957634,82.00
2025-12-25 17:24:56.058771,599621618781957634,82.00
2025-12-25 17:24:56.058771,599621618781957634,85.00
2025-12-25 17:24:56.058771,599621618781957634,94.00
2025-12-25 17:24:56.058771,599621618781957634,96.00
2025-12-25 17:24:56.058771,599621618781957634,101.00
2025-12-25 17:24:56.058771,599621618781957634,110.00
2025-12-25 17:24:56.058771,599621618781957634,117.00
2025-12-25 17:24:56.058771,599621618781957634,124.00
2025-12-25 17:24:56.058771,599621618781957634,131.00
2025-12-25 17:24:56.058771,599621618781957634,140.00
2025-12-25 17:24:56.058771,599621618781957634,149.00
2025-12-25 17:24:56.058771,599621618781957634,151.00
2025-12-25 17:24:56.058771,599621618781957634,149.00
2025-12-25 17:24:56.058771,599621618781957634,149.00
2025-12-25 17:24:56.058771,599621618781957634,131.00
2025-12-25 17:24:56.058771,599621618781957634,96.00
2025-12-25 17:24:56.058771,599621618781957634,57.00
2025-12-25 17:24:56.058771,599621618781957634,4.00
2025-12-25 17:24:56.058771,599621618781957634,-43.00
2025-12-25 17:24:56.058771,599621618781957634,-71.00
2025-12-25 17:24:56.058771,599621618781957634,-87.00
2025-12-25 17:24:56.058771,599621618781957634,-110.00
2025-12-25 17:24:56.058771,599621618781957634,-124.00
2025-12-25 17:24:56.058771,599621618781957634,-124.00
2025-12-25 17:24:56.058771,599621618781957634,-124.00
2025-12-25 17:24:56.058771,599621618781957634,-121.00
2025-12-25 17:24:56.058771,599621618781957634,-117.00
2025-12-25 17:24:56.058771,599621618781957634,-112.00
2025-12-25 17:24:56.058771,599621618781957634,-114.00
2025-12-25 17:24:56.058771,599621618781957634,-112.00
2025-12-25 17:24:56.058771,599621618781957634,-108.00
2025-12-25 17:24:56.058771,599621618781957634,-101.00
2025-12-25 17:24:56.058771,599621618781957634,-101.00
2025-12-25 17:24:56.058771,599621618781957634,-96.00
2025-12-25 17:24:56.688110,599621619342868303,-89.00
2025-12-25 17:24:56.688110,599621619342868303,-85.00
2025-12-25 17:24:56.688110,599621619342868303,-82.00
2025-12-25 17:24:56.688110,599621619342868303,-78.00
2025-12-25 17:24:56.688110,599621619342868303,-73.00
2025-12-25 17:24:56.688110,599621619342868303,-78.00
2025-12-25 17:24:56.688110,599621619342868303,-78.00
2025-12-25 17:24:56.688110,599621619342868303,-73.00
2025-12-25 17:24:56.688110,599621619342868303,-62.00
2025-12-25 17:24:56.688110,599621619342868303,-55.00
2025-12-25 17:24:56.688110,599621619342868303,-59.00
2025-12-25 17:24:56.688110,599621619342868303,-68.00
2025-12-25 17:24:56.688110,599621619342868303,-66.00
2025-12-25 17:24:56.688110,599621619342868303,-62.00
2025-12-25 17:24:56.688110,599621619342868303,-62.00
2025-12-25 17:24:56.688110,599621619342868303,-64.00
2025-12-25 17:24:56.688110,599621619342868303,-68.00
2025-12-25 17:24:56.688110,599621619342868303,-68.00
2025-12-25 17:24:56.688110,599621619342868303,-71.00
2025-12-25 17:24:56.688110,599621619342868303,-73.00
2025-12-25 17:24:56.688110,599621619342868303,-71.00
2025-12-25 17:24:56.688110,599621619342868303,-59.00
2025-12-25 17:24:56.688110,599621619342868303,-52.00
2025-12-25 17:24:56.688110,599621619342868303,-55.00
2025-12-25 17:24:56.688110,599621619342868303,-45.00
2025-12-25 17:24:56.688110,599621619342868303,-22.00
2025-12-25 17:24:56.688110,599621619342868303,-4.00
2025-12-25 17:24:56.688110,599621619342868303,-20.00
2025-12-25 17:24:56.688110,599621619342868303,-48.00
2025-12-25 17:24:56.688110,599621619342868303,-59.00
2025-12-25 17:24:56.688110,599621619342868303,-59.00
2025-12-25 17:24:56.688110,599621619342868303,-64.00
2025-12-25 17:24:56.688110,599621619342868303,-57.00
2025-12-25 17:24:56.688110,599621619342868303,-48.00
2025-12-25 17:24:56.688110,599621619342868303,-55.00
2025-12-25 17:24:56.688110,599621619342868303,-59.00
2025-12-25 17:24:56.688110,599621619342868303,-52.00
2025-12-25 17:24:56.688110,599621619342868303,-39.00
2025-12-25 17:24:56.688110,599621619342868303,41.00
2025-12-25 17:24:56.688110,599621619342868303,296.00
2025-12-25 17:24:56.688110,599621619342868303,606.00
2025-12-25 17:24:56.688110,599621619342868303,448.00
2025-12-25 17:24:56.688110,599621619342868303,-432.00
2025-12-25 17:24:56.688110,599621619342868303,-1073.00
2025-12-25 17:24:56.688110,599621619342868303,-669.00
2025-12-25 17:24:56.688110,599621619342868303,-98.00
2025-12-25 17:24:56.688110,599621619342868303,-32.00
2025-12-25 17:24:56.688110,599621619342868303,-22.00
2025-12-25 17:24:56.688110,599621619342868303,59.00
2025-12-25 17:24:56.688110,599621619342868303,50.00
2025-12-25 17:24:56.688110,599621619342868303,36.00
2025-12-25 17:24:56.688110,599621619342868303,64.00
2025-12-25 17:24:56.688110,599621619342868303,66.00
2025-12-25 17:24:56.688110,599621619342868303,57.00
2025-12-25 17:24:56.688110,599621619342868303,62.00
2025-12-25 17:24:56.688110,599621619342868303,71.00
2025-12-25 17:24:56.688110,599621619342868303,75.00
2025-12-25 17:24:56.688110,599621619342868303,75.00
2025-12-25 17:24:56.688110,599621619342868303,78.00
2025-12-25 17:24:56.688110,599621619342868303,80.00
2025-12-25 17:24:56.688110,599621619342868303,85.00
2025-12-25 17:24:56.688110,599621619342868303,87.00
2025-12-25 17:24:56.688110,599621619342868303,89.00
2025-12-25 17:24:56.688110,599621619342868303,98.00
2025-12-25 17:24:56.688110,599621619342868303,114.00
2025-12-25 17:24:56.688110,599621619342868303,124.00
2025-12-25 17:24:56.688110,599621619342868303,131.00
2025-12-25 17:24:56.688110,599621619342868303,140.00
2025-12-25 17:24:56.688110,599621619342868303,144.00
2025-12-25 17:24:56.688110,599621619342868303,147.00
2025-12-25 17:24:56.688110,599621619342868303,149.00
2025-12-25 17:24:56.688110,599621619342868303,151.00
2025-12-25 17:24:56.688110,599621619342868303,142.00
2025-12-25 17:24:57.331822,599621619903758624,124.00
2025-12-25 17:24:57.331822,599621619903758624,96.00
2025-12-25 17:24:57.331822,599621619903758624,57.00
2025-12-25 17:24:57.331822,599621619903758624,6.00
2025-12-25 17:24:57.331822,599621619903758624,-36.00
2025-12-25 17:24:57.331822,599621619903758624,-68.00
2025-12-25 17:24:57.331822,599621619903758624,-87.00
2025-12-25 17:24:57.331822,599621619903758624,-103.00
2025-12-25 17:24:57.331822,599621619903758624,-108.00
2025-12-25 17:24:57.331822,599621619903758624,-103.00
2025-12-25 17:24:57.331822,599621619903758624,-98.00
2025-12-25 17:24:57.331822,599621619903758624,-91.00
2025-12-25 17:24:57.331822,599621619903758624,-78.00
2025-12-25 17:24:57.331822,599621619903758624,-66.00
2025-12-25 17:24:57.331822,599621619903758624,-57.00
2025-12-25 17:24:57.331822,599621619903758624,-57.00
2025-12-25 17:24:57.331822,599621619903758624,-59.00
2025-12-25 17:24:57.331822,599621619903758624,-41.00
2025-12-25 17:24:57.331822,599621619903758624,-22.00
2025-12-25 17:24:57.331822,599621619903758624,-29.00
2025-12-25 17:24:57.331822,599621619903758624,-34.00
2025-12-25 17:24:57.331822,599621619903758624,-29.00
2025-12-25 17:24:57.331822,599621619903758624,-32.00
2025-12-25 17:24:57.331822,599621619903758624,-32.00
2025-12-25 17:24:57.331822,599621619903758624,-29.00
2025-12-25 17:24:57.331822,599621619903758624,-32.00
2025-12-25 17:24:57.331822,599621619903758624,-34.00
2025-12-25 17:24:57.331822,599621619903758624,-34.00
2025-12-25 17:24:57.331822,599621619903758624,-39.00
2025-12-25 17:24:57.331822,599621619903758624,-41.00
2025-12-25 17:24:57.331822,599621619903758624,-39.00
2025-12-25 17:24:57.331822,599621619903758624,-43.00
2025-12-25 17:24:57.331822,599621619903758624,-52.00
2025-12-25 17:24:57.331822,599621619903758624,-55.00
2025-12-25 17:24:57.331822,599621619903758624,-52.00
2025-12-25 17:24:57.331822,599621619903758624,-52.00
2025-12-25 17:24:57.331822,599621619903758624,-57.00
2025-12-25 17:24:57.331822,599621619903758624,-52.00
2025-12-25 17:24:57.331822,599621619903758624,-43.00
2025-12-25 17:24:57.331822,599621619903758624,-43.00
2025-12-25 17:24:57.331822,599621619903758624,-50.00
2025-12-25 17:24:57.331822,599621619903758624,-50.00
2025-12-25 17:24:57.331822,599621619903758624,-50.00
2025-12-25 17:24:57.331822,599621619903758624,-50.00
2025-12-25 17:24:57.331822,599621619903758624,-52.00
2025-12-25 17:24:57.331822,599621619903758624,-57.00
2025-12-25 17:24:57.331822,599621619903758624,-62.00
2025-12-25 17:24:57.331822,599621619903758624,-52.00
2025-12-25 17:24:57.331822,599621619903758624,-39.00
2025-12-25 17:24:57.331822,599621619903758624,-29.00
2025-12-25 17:24:57.331822,599621619903758624,-16.00
2025-12-25 17:24:57.331822,599621619903758624,-13.00
2025-12-25 17:24:57.331822,599621619903758624,-34.00
2025-12-25 17:24:57.331822,599621619903758624,-50.00
2025-12-25 17:24:57.331822,599621619903758624,-48.00
2025-12-25 17:24:57.331822,599621619903758624,-48.00
2025-12-25 17:24:57.331822,599621619903758624,-45.00
2025-12-25 17:24:57.331822,599621619903758624,-34.00
2025-12-25 17:24:57.331822,599621619903758624,-27.00
2025-12-25 17:24:57.331822,599621619903758624,-32.00
2025-12-25 17:24:57.331822,599621619903758624,-39.00
2025-12-25 17:24:57.331822,599621619903758624,-32.00
2025-12-25 17:24:57.331822,599621619903758624,11.00
2025-12-25 17:24:57.331822,599621619903758624,183.00
2025-12-25 17:24:57.331822,599621619903758624,498.00
2025-12-25 17:24:57.331822,599621619903758624,602.00
2025-12-25 17:24:57.331822,599621619903758624,-36.00
2025-12-25 17:24:57.331822,599621619903758624,-931.00
2025-12-25 17:24:57.331822,599621619903758624,-917.00
2025-12-25 17:24:57.331822,599621619903758624,-264.00
2025-12-25 17:24:57.331822,599621619903758624,-4.00
2025-12-25 17:24:57.331822,599621619903758624,-34.00
2025-12-25 17:24:57.331822,599621619903758624,29.00
2025-12-25 17:24:57.769468,599621620464643859,55.00
2025-12-25 17:24:57.769468,599621620464643859,22.00
2025-12-25 17:24:57.769468,599621620464643859,41.00
2025-12-25 17:24:57.769468,599621620464643859,62.00
2025-12-25 17:24:57.769468,599621620464643859,50.00
2025-12-25 17:24:57.769468,599621620464643859,50.00
2025-12-25 17:24:57.769468,599621620464643859,68.00
2025-12-25 17:24:57.769468,599621620464643859,78.00
2025-12-25 17:24:57.769468,599621620464643859,87.00
2025-12-25 17:24:57.769468,599621620464643859,103.00
2025-12-25 17:24:57.769468,599621620464643859,105.00
2025-12-25 17:24:57.769468,599621620464643859,98.00
2025-12-25 17:24:57.769468,599621620464643859,101.00
2025-12-25 17:24:57.769468,599621620464643859,112.00
2025-12-25 17:24:57.769468,599621620464643859,121.00
2025-12-25 17:24:57.769468,599621620464643859,126.00
2025-12-25 17:24:57.769468,599621620464643859,126.00
2025-12-25 17:24:57.769468,599621620464643859,133.00
2025-12-25 17:24:57.769468,599621620464643859,140.00
2025-12-25 17:24:57.769468,599621620464643859,149.00
2025-12-25 17:24:57.769468,599621620464643859,170.00
2025-12-25 17:24:57.769468,599621620464643859,186.00
2025-12-25 17:24:57.769468,599621620464643859,179.00
2025-12-25 17:24:57.769468,599621620464643859,167.00
2025-12-25 17:24:57.769468,599621620464643859,158.00
2025-12-25 17:24:57.769468,599621620464643859,137.00
2025-12-25 17:24:57.769468,599621620464643859,112.00
2025-12-25 17:24:57.769468,599621620464643859,82.00
2025-12-25 17:24:57.769468,599621620464643859,34.00
2025-12-25 17:24:57.769468,599621620464643859,-13.00
2025-12-25 17:24:57.769468,599621620464643859,-41.00
2025-12-25 17:24:57.769468,599621620464643859,-55.00
2025-12-25 17:24:57.769468,599621620464643859,-64.00
2025-12-25 17:24:57.769468,599621620464643859,-66.00
2025-12-25 17:24:57.769468,599621620464643859,-68.00
2025-12-25 17:24:57.769468,599621620464643859,-78.00
2025-12-25 17:24:57.769468,599621620464643859,-80.00
2025-12-25 17:24:57.769468,599621620464643859,-75.00
2025-12-25 17:24:57.769468,599621620464643859,-71.00
2025-12-25 17:24:57.769468,599621620464643859,-71.00
2025-12-25 17:24:57.769468,599621620464643859,-71.00
2025-12-25 17:24:57.769468,599621620464643859,-73.00
2025-12-25 17:24:57.769468,599621620464643859,-73.00
2025-12-25 17:24:57.769468,599621620464643859,-66.00
2025-12-25 17:24:57.769468,599621620464643859,-59.00
2025-12-25 17:24:57.769468,599621620464643859,-62.00
2025-12-25 17:24:57.769468,599621620464643859,-62.00
2025-12-25 17:24:57.769468,599621620464643859,-52.00
2025-12-25 17:24:57.769468,599621620464643859,-52.00
2025-12-25 17:24:57.769468,599621620464643859,-57.00
2025-12-25 17:24:57.769468,599621620464643859,-57.00
2025-12-25 17:24:57.769468,599621620464643859,-52.00
2025-12-25 17:24:57.769468,599621620464643859,-57.00
2025-12-25 17:24:57.769468,599621620464643859,-57.00
2025-12-25 17:24:57.769468,599621620464643859,-55.00
2025-12-25 17:24:57.769468,599621620464643859,-55.00
2025-12-25 17:24:57.769468,599621620464643859,-55.00
2025-12-25 17:24:57.769468,599621620464643859,-57.00
2025-12-25 17:24:57.769468,599621620464643859,-64.00
2025-12-25 17:24:57.769468,599621620464643859,-66.00
2025-12-25 17:24:57.769468,599621620464643859,-62.00
2025-12-25 17:24:57.769468,599621620464643859,-59.00
2025-12-25 17:24:57.769468,599621620464643859,-62.00
2025-12-25 17:24:57.769468,599621620464643859,-64.00
2025-12-25 17:24:57.769468,599621620464643859,-66.00
2025-12-25 17:24:57.769468,599621620464643859,-68.00
2025-12-25 17:24:57.769468,599621620464643859,-66.00
2025-12-25 17:24:57.769468,599621620464643859,-64.00
2025-12-25 17:24:57.769468,599621620464643859,-64.00
2025-12-25 17:24:57.769468,599621620464643859,-66.00
2025-12-25 17:24:57.769468,599621620464643859,-62.00
2025-12-25 17:24:57.769468,599621620464643859,-55.00
2025-12-25 17:24:57.769468,599621620464643859,-45.00
2025-12-25 17:24:58.363902,599621621025539268,-34.00
2025-12-25 17:24:58.363902,599621621025539268,-34.00
2025-12-25 17:24:58.363902,599621621025539268,-41.00
2025-12-25 17:24:58.363902,599621621025539268,-34.00
2025-12-25 17:24:58.363902,599621621025539268,-18.00
2025-12-25 17:24:58.363902,599621621025539268,0.00
2025-12-25 17:24:58.363902,599621621025539268,18.00
2025-12-25 17:24:58.363902,599621621025539268,4.00
2025-12-25 17:24:58.363902,599621621025539268,-29.00
2025-12-25 17:24:58.363902,599621621025539268,-36.00
2025-12-25 17:24:58.363902,599621621025539268,-34.00
2025-12-25 17:24:58.363902,599621621025539268,-34.00
2025-12-25 17:24:58.363902,599621621025539268,-22.00
2025-12-25 17:24:58.363902,599621621025539268,-13.00
2025-12-25 17:24:58.363902,599621621025539268,-27.00
2025-12-25 17:24:58.363902,599621621025539268,-39.00
2025-12-25 17:24:58.363902,599621621025539268,-36.00
2025-12-25 17:24:58.363902,599621621025539268,-22.00
2025-12-25 17:24:58.363902,599621621025539268,57.00
2025-12-25 17:24:58.363902,599621621025539268,287.00
2025-12-25 17:24:58.363902,599621621025539268,572.00
2025-12-25 17:24:58.363902,599621621025539268,434.00
2025-12-25 17:24:58.363902,599621621025539268,-397.00
2025-12-25 17:24:58.363902,599621621025539268,-1036.00
2025-12-25 17:24:58.363902,599621621025539268,-675.00
2025-12-25 17:24:58.363902,599621621025539268,-110.00
2025-12-25 17:24:58.363902,599621621025539268,-27.00
2025-12-25 17:24:58.363902,599621621025539268,-32.00
2025-12-25 17:24:58.363902,599621621025539268,41.00
2025-12-25 17:24:58.363902,599621621025539268,36.00
2025-12-25 17:24:58.363902,599621621025539268,20.00
2025-12-25 17:24:58.363902,599621621025539268,41.00
2025-12-25 17:24:58.363902,599621621025539268,45.00
2025-12-25 17:24:58.363902,599621621025539268,39.00
2025-12-25 17:24:58.363902,599621621025539268,43.00
2025-12-25 17:24:58.363902,599621621025539268,48.00
2025-12-25 17:24:58.363902,599621621025539268,50.00
2025-12-25 17:24:58.363902,599621621025539268,59.00
2025-12-25 17:24:58.363902,599621621025539268,66.00
2025-12-25 17:24:58.363902,599621621025539268,68.00
2025-12-25 17:24:58.363902,599621621025539268,73.00
2025-12-25 17:24:58.363902,599621621025539268,73.00
2025-12-25 17:24:58.363902,599621621025539268,75.00
2025-12-25 17:24:58.363902,599621621025539268,82.00
2025-12-25 17:24:58.363902,599621621025539268,91.00
2025-12-25 17:24:58.363902,599621621025539268,98.00
2025-12-25 17:24:58.363902,599621621025539268,103.00
2025-12-25 17:24:58.363902,599621621025539268,112.00
2025-12-25 17:24:58.363902,599621621025539268,124.00
2025-12-25 17:24:58.363902,599621621025539268,126.00
2025-12-25 17:24:58.363902,599621621025539268,128.00
2025-12-25 17:24:58.363902,599621621025539268,128.00
2025-12-25 17:24:58.363902,599621621025539268,121.00
2025-12-25 17:24:58.363902,599621621025539268,110.00
2025-12-25 17:24:58.363902,599621621025539268,91.00
2025-12-25 17:24:58.363902,599621621025539268,52.00
2025-12-25 17:24:58.363902,599621621025539268,6.00
2025-12-25 17:24:58.363902,599621621025539268,-32.00
2025-12-25 17:24:58.363902,599621621025539268,-66.00
2025-12-25 17:24:58.363902,599621621025539268,-87.00
2025-12-25 17:24:58.363902,599621621025539268,-98.00
2025-12-25 17:24:58.363902,599621621025539268,-110.00
2025-12-25 17:24:58.363902,599621621025539268,-117.00
2025-12-25 17:24:58.363902,599621621025539268,-117.00
2025-12-25 17:24:58.363902,599621621025539268,-114.00
2025-12-25 17:24:58.363902,599621621025539268,-105.00
2025-12-25 17:24:58.363902,599621621025539268,-89.00
2025-12-25 17:24:58.363902,599621621025539268,-85.00
2025-12-25 17:24:58.363902,599621621025539268,-89.00
2025-12-25 17:24:58.363902,599621621025539268,-80.00
2025-12-25 17:24:58.363902,599621621025539268,-64.00
2025-12-25 17:24:58.363902,599621621025539268,-57.00
2025-12-25 17:24:58.363902,599621621025539268,-57.00
2025-12-25 17:24:58.855717,599621621586444847,-55.00
2025-12-25 17:24:58.855717,599621621586444847,-55.00
2025-12-25 17:24:58.855717,599621621586444847,-57.00
2025-12-25 17:24:58.855717,599621621586444847,-55.00
2025-12-25 17:24:58.855717,599621621586444847,-55.00
2025-12-25 17:24:58.855717,599621621586444847,-55.00
2025-12-25 17:24:58.855717,599621621586444847,-50.00
2025-12-25 17:24:58.855717,599621621586444847,-48.00
2025-12-25 17:24:58.855717,599621621586444847,-48.00
2025-12-25 17:24:58.855717,599621621586444847,-39.00
2025-12-25 17:24:58.855717,599621621586444847,-29.00
2025-12-25 17:24:58.855717,599621621586444847,-34.00
2025-12-25 17:24:58.855717,599621621586444847,-36.00
2025-12-25 17:24:58.855717,599621621586444847,-34.00
2025-12-25 17:24:58.855717,599621621586444847,-36.00
2025-12-25 17:24:58.855717,599621621586444847,-36.00
2025-12-25 17:24:58.855717,599621621586444847,-27.00
2025-12-25 17:24:58.855717,599621621586444847,-25.00
2025-12-25 17:24:58.855717,599621621586444847,-29.00
2025-12-25 17:24:58.855717,599621621586444847,-29.00
2025-12-25 17:24:58.855717,599621621586444847,-27.00
2025-12-25 17:24:58.855717,599621621586444847,-29.00
2025-12-25 17:24:58.855717,599621621586444847,-34.00
2025-12-25 17:24:58.855717,599621621586444847,-34.00
2025-12-25 17:24:58.855717,599621621586444847,-32.00
2025-12-25 17:24:58.855717,599621621586444847,-36.00
2025-12-25 17:24:58.855717,599621621586444847,-39.00
2025-12-25 17:24:58.855717,599621621586444847,-39.00
2025-12-25 17:24:58.855717,599621621586444847,-34.00
2025-12-25 17:24:58.855717,599621621586444847,-22.00
2025-12-25 17:24:58.855717,599621621586444847,-25.00
2025-12-25 17:24:58.855717,599621621586444847,-34.00
2025-12-25 17:24:58.855717,599621621586444847,-39.00
2025-12-25 17:24:58.855717,599621621586444847,-32.00
2025-12-25 17:24:58.855717,599621621586444847,-18.00
2025-12-25 17:24:58.855717,599621621586444847,-4.00
2025-12-25 17:24:58.855717,599621621586444847,4.00
2025-12-25 17:24:58.855717,599621621586444847,-6.00
2025-12-25 17:24:58.855717,599621621586444847,-29.00
2025-12-25 17:24:58.855717,599621621586444847,-36.00
2025-12-25 17:24:58.855717,599621621586444847,-39.00
2025-12-25 17:24:58.855717,599621621586444847,-50.00
2025-12-25 17:24:58.855717,599621621586444847,-52.00
2025-12-25 17:24:58.855717,599621621586444847,-45.00
2025-12-25 17:24:58.855717,599621621586444847,-50.00
2025-12-25 17:24:58.855717,599621621586444847,-57.00
2025-12-25 17:24:58.855717,599621621586444847,-57.00
2025-12-25 17:24:58.855717,599621621586444847,-50.00
2025-12-25 17:24:58.855717,599621621586444847,4.00
2025-12-25 17:24:58.855717,599621621586444847,195.00
2025-12-25 17:24:58.855717,599621621586444847,496.00
2025-12-25 17:24:58.855717,599621621586444847,501.00
2025-12-25 17:24:58.855717,599621621586444847,-218.00
2025-12-25 17:24:58.855717,599621621586444847,-1000.00
2025-12-25 17:24:58.855717,599621621586444847,-820.00
2025-12-25 17:24:58.855717,599621621586444847,-204.00
2025-12-25 17:24:58.855717,599621621586444847,-34.00
2025-12-25 17:24:58.855717,599621621586444847,-52.00
2025-12-25 17:24:58.855717,599621621586444847,27.00
2025-12-25 17:24:58.855717,599621621586444847,45.00
2025-12-25 17:24:58.855717,599621621586444847,18.00
2025-12-25 17:24:58.855717,599621621586444847,48.00
2025-12-25 17:24:58.855717,599621621586444847,68.00
2025-12-25 17:24:58.855717,599621621586444847,52.00
2025-12-25 17:24:58.855717,599621621586444847,50.00
2025-12-25 17:24:58.855717,599621621586444847,62.00
2025-12-25 17:24:58.855717,599621621586444847,62.00
2025-12-25 17:24:58.855717,599621621586444847,64.00
2025-12-25 17:24:58.855717,599621621586444847,66.00
2025-12-25 17:24:58.855717,599621621586444847,66.00
2025-12-25 17:24:58.855717,599621621586444847,71.00
2025-12-25 17:24:58.855717,599621621586444847,80.00
2025-12-25 17:24:58.855717,599621621586444847,82.00
2025-12-25 17:24:59.411055,599621622147330082,85.00
2025-12-25 17:24:59.411055,599621622147330082,91.00
2025-12-25 17:24:59.411055,599621622147330082,98.00
2025-12-25 17:24:59.411055,599621622147330082,108.00
2025-12-25 17:24:59.411055,599621622147330082,117.00
2025-12-25 17:24:59.411055,599621622147330082,121.00
2025-12-25 17:24:59.411055,599621622147330082,140.00
2025-12-25 17:24:59.411055,599621622147330082,160.00
2025-12-25 17:24:59.411055,599621622147330082,160.00
2025-12-25 17:24:59.411055,599621622147330082,151.00
2025-12-25 17:24:59.411055,599621622147330082,142.00
2025-12-25 17:24:59.411055,599621622147330082,119.00
2025-12-25 17:24:59.411055,599621622147330082,85.00
2025-12-25 17:24:59.411055,599621622147330082,45.00
2025-12-25 17:24:59.411055,599621622147330082,4.00
2025-12-25 17:24:59.411055,599621622147330082,-29.00
2025-12-25 17:24:59.411055,599621622147330082,-55.00
2025-12-25 17:24:59.411055,599621622147330082,-75.00
2025-12-25 17:24:59.411055,599621622147330082,-85.00
2025-12-25 17:24:59.411055,599621622147330082,-85.00
2025-12-25 17:24:59.411055,599621622147330082,-80.00
2025-12-25 17:24:59.411055,599621622147330082,-73.00
2025-12-25 17:24:59.411055,599621622147330082,-73.00
2025-12-25 17:24:59.411055,599621622147330082,-75.00
2025-12-25 17:24:59.411055,599621622147330082,-73.00
2025-12-25 17:24:59.411055,599621622147330082,-73.00
2025-12-25 17:24:59.411055,599621622147330082,-68.00
2025-12-25 17:24:59.411055,599621622147330082,-64.00
2025-12-25 17:24:59.411055,599621622147330082,-64.00
2025-12-25 17:24:59.411055,599621622147330082,-66.00
2025-12-25 17:24:59.411055,599621622147330082,-57.00
2025-12-25 17:24:59.411055,599621622147330082,-48.00
2025-12-25 17:24:59.411055,599621622147330082,-43.00
2025-12-25 17:24:59.411055,599621622147330082,-45.00
2025-12-25 17:24:59.411055,599621622147330082,-41.00
2025-12-25 17:24:59.411055,599621622147330082,-36.00
2025-12-25 17:24:59.411055,599621622147330082,-36.00
2025-12-25 17:24:59.411055,599621622147330082,-39.00
2025-12-25 17:24:59.411055,599621622147330082,-39.00
2025-12-25 17:24:59.411055,599621622147330082,-41.00
2025-12-25 17:24:59.411055,599621622147330082,-43.00
2025-12-25 17:24:59.411055,599621622147330082,-45.00
2025-12-25 17:24:59.411055,599621622147330082,-45.00
2025-12-25 17:24:59.411055,599621622147330082,-43.00
2025-12-25 17:24:59.411055,599621622147330082,-45.00
2025-12-25 17:24:59.411055,599621622147330082,-50.00
2025-12-25 17:24:59.411055,599621622147330082,-48.00
2025-12-25 17:24:59.411055,599621622147330082,-45.00
2025-12-25 17:24:59.411055,599621622147330082,-45.00
2025-12-25 17:24:59.411055,599621622147330082,-45.00
2025-12-25 17:24:59.411055,599621622147330082,-41.00
2025-12-25 17:24:59.411055,599621622147330082,-34.00
2025-12-25 17:24:59.411055,599621622147330082,-29.00
2025-12-25 17:24:59.411055,599621622147330082,-25.00
2025-12-25 17:24:59.411055,599621622147330082,-25.00
2025-12-25 17:24:59.411055,599621622147330082,-32.00
2025-12-25 17:24:59.411055,599621622147330082,-34.00
2025-12-25 17:24:59.411055,599621622147330082,-36.00
2025-12-25 17:24:59.411055,599621622147330082,-39.00
2025-12-25 17:24:59.411055,599621622147330082,-36.00
2025-12-25 17:24:59.411055,599621622147330082,-36.00
2025-12-25 17:24:59.411055,599621622147330082,-41.00
2025-12-25 17:24:59.411055,599621622147330082,-41.00
2025-12-25 17:24:59.411055,599621622147330082,-41.00
2025-12-25 17:24:59.411055,599621622147330082,-39.00
2025-12-25 17:24:59.411055,599621622147330082,-25.00
2025-12-25 17:24:59.411055,599621622147330082,-11.00
2025-12-25 17:24:59.411055,599621622147330082,-4.00
2025-12-25 17:24:59.411055,599621622147330082,-13.00
2025-12-25 17:24:59.411055,599621622147330082,-39.00
2025-12-25 17:24:59.411055,599621622147330082,-48.00
2025-12-25 17:24:59.411055,599621622147330082,-43.00
2025-12-25 17:24:59.411055,599621622147330082,-50.00
2025-12-25 17:25:00.018611,599621622708215321,-62.00
2025-12-25 17:25:00.018611,599621622708215321,-62.00
2025-12-25 17:25:00.018611,599621622708215321,-59.00
2025-12-25 17:25:00.018611,599621622708215321,-52.00
2025-12-25 17:25:00.018611,599621622708215321,-36.00
2025-12-25 17:25:00.018611,599621622708215321,-27.00
2025-12-25 17:25:00.018611,599621622708215321,27.00
2025-12-25 17:25:00.018611,599621622708215321,232.00
2025-12-25 17:25:00.018611,599621622708215321,524.00
2025-12-25 17:25:00.018611,599621622708215321,466.00
2025-12-25 17:25:00.018611,599621622708215321,-298.00
2025-12-25 17:25:00.018611,599621622708215321,-1018.00
2025-12-25 17:25:00.018611,599621622708215321,-744.00
2025-12-25 17:25:00.018611,599621622708215321,-144.00
2025-12-25 17:25:00.018611,599621622708215321,-18.00
2025-12-25 17:25:00.018611,599621622708215321,-27.00
2025-12-25 17:25:00.018611,599621622708215321,43.00
2025-12-25 17:25:00.018611,599621622708215321,39.00
2025-12-25 17:25:00.018611,599621622708215321,16.00
2025-12-25 17:25:00.018611,599621622708215321,36.00
2025-12-25 17:25:00.018611,599621622708215321,45.00
2025-12-25 17:25:00.018611,599621622708215321,45.00
2025-12-25 17:25:00.018611,599621622708215321,57.00
2025-12-25 17:25:00.018611,599621622708215321,57.00
2025-12-25 17:25:00.018611,599621622708215321,50.00
2025-12-25 17:25:00.018611,599621622708215321,52.00
2025-12-25 17:25:00.018611,599621622708215321,59.00
2025-12-25 17:25:00.018611,599621622708215321,62.00
2025-12-25 17:25:00.018611,599621622708215321,64.00
2025-12-25 17:25:00.018611,599621622708215321,66.00
2025-12-25 17:25:00.018611,599621622708215321,68.00
2025-12-25 17:25:00.018611,599621622708215321,73.00
2025-12-25 17:25:00.018611,599621622708215321,85.00
2025-12-25 17:25:00.018611,599621622708215321,96.00
2025-12-25 17:25:00.018611,599621622708215321,108.00
2025-12-25 17:25:00.018611,599621622708215321,117.00
2025-12-25 17:25:00.018611,599621622708215321,128.00
2025-12-25 17:25:00.018611,599621622708215321,135.00
2025-12-25 17:25:00.018611,599621622708215321,140.00
2025-12-25 17:25:00.018611,599621622708215321,142.00
2025-12-25 17:25:00.018611,599621622708215321,135.00
2025-12-25 17:25:00.018611,599621622708215321,124.00
2025-12-25 17:25:00.018611,599621622708215321,114.00
2025-12-25 17:25:00.018611,599621622708215321,94.00
2025-12-25 17:25:00.018611,599621622708215321,50.00
2025-12-25 17:25:00.018611,599621622708215321,6.00
2025-12-25 17:25:00.018611,599621622708215321,-25.00
2025-12-25 17:25:00.018611,599621622708215321,-57.00
2025-12-25 17:25:00.018611,599621622708215321,-80.00
2025-12-25 17:25:00.018611,599621622708215321,-87.00
2025-12-25 17:25:00.018611,599621622708215321,-87.00
2025-12-25 17:25:00.018611,599621622708215321,-82.00
2025-12-25 17:25:00.018611,599621622708215321,-80.00
2025-12-25 17:25:00.018611,599621622708215321,-75.00
2025-12-25 17:25:00.018611,599621622708215321,-68.00
2025-12-25 17:25:00.018611,599621622708215321,-66.00
2025-12-25 17:25:00.018611,599621622708215321,-64.00
2025-12-25 17:25:00.018611,599621622708215321,-59.00
2025-12-25 17:25:00.018611,599621622708215321,-55.00
2025-12-25 17:25:00.018611,599621622708215321,-57.00
2025-12-25 17:25:00.018611,599621622708215321,-57.00
2025-12-25 17:25:00.018611,599621622708215321,-52.00
2025-12-25 17:25:00.018611,599621622708215321,-50.00
2025-12-25 17:25:00.018611,599621622708215321,-45.00
2025-12-25 17:25:00.018611,599621622708215321,-41.00
2025-12-25 17:25:00.018611,599621622708215321,-45.00
2025-12-25 17:25:00.018611,599621622708215321,-50.00
2025-12-25 17:25:00.018611,599621622708215321,-48.00
2025-12-25 17:25:00.018611,599621622708215321,-43.00
2025-12-25 17:25:00.018611,599621622708215321,-48.00
2025-12-25 17:25:00.018611,599621622708215321,-50.00
2025-12-25 17:25:00.018611,599621622708215321,-48.00
2025-12-25 17:25:00.018611,599621622708215321,-52.00
2025-12-25 17:25:00.563813,599621623269100556,-57.00
2025-12-25 17:25:00.563813,599621623269100556,-55.00
2025-12-25 17:25:00.563813,599621623269100556,-50.00
2025-12-25 17:25:00.563813,599621623269100556,-45.00
2025-12-25 17:25:00.563813,599621623269100556,-50.00
2025-12-25 17:25:00.563813,599621623269100556,-59.00
2025-12-25 17:25:00.563813,599621623269100556,-57.00
2025-12-25 17:25:00.563813,599621623269100556,-45.00
2025-12-25 17:25:00.563813,599621623269100556,-45.00
2025-12-25 17:25:00.563813,599621623269100556,-57.00
2025-12-25 17:25:00.563813,599621623269100556,-59.00
2025-12-25 17:25:00.563813,599621623269100556,-59.00
2025-12-25 17:25:00.563813,599621623269100556,-48.00
2025-12-25 17:25:00.563813,599621623269100556,-34.00
2025-12-25 17:25:00.563813,599621623269100556,-36.00
2025-12-25 17:25:00.563813,599621623269100556,-43.00
2025-12-25 17:25:00.563813,599621623269100556,-41.00
2025-12-25 17:25:00.563813,599621623269100556,-39.00
2025-12-25 17:25:00.563813,599621623269100556,-43.00
2025-12-25 17:25:00.563813,599621623269100556,-43.00
2025-12-25 17:25:00.563813,599621623269100556,-43.00
2025-12-25 17:25:00.563813,599621623269100556,-48.00
2025-12-25 17:25:00.563813,599621623269100556,-48.00
2025-12-25 17:25:00.563813,599621623269100556,-45.00
2025-12-25 17:25:00.563813,599621623269100556,-48.00
2025-12-25 17:25:00.563813,599621623269100556,-48.00
2025-12-25 17:25:00.563813,599621623269100556,-50.00
2025-12-25 17:25:00.563813,599621623269100556,-50.00
2025-12-25 17:25:00.563813,599621623269100556,-39.00
2025-12-25 17:25:00.563813,599621623269100556,-22.00
2025-12-25 17:25:00.563813,599621623269100556,-9.00
2025-12-25 17:25:00.563813,599621623269100556,-18.00
2025-12-25 17:25:00.563813,599621623269100556,-43.00
2025-12-25 17:25:00.563813,599621623269100556,-50.00
2025-12-25 17:25:00.563813,599621623269100556,-48.00
2025-12-25 17:25:00.563813,599621623269100556,-48.00
2025-12-25 17:25:00.563813,599621623269100556,-43.00
2025-12-25 17:25:00.563813,599621623269100556,-43.00
2025-12-25 17:25:00.563813,599621623269100556,-48.00
2025-12-25 17:25:00.563813,599621623269100556,-48.00
2025-12-25 17:25:00.563813,599621623269100556,-50.00
2025-12-25 17:25:00.563813,599621623269100556,-55.00
2025-12-25 17:25:00.563813,599621623269100556,-4.00
2025-12-25 17:25:00.563813,599621623269100556,195.00
2025-12-25 17:25:00.563813,599621623269100556,498.00
2025-12-25 17:25:00.563813,599621623269100556,510.00
2025-12-25 17:25:00.563813,599621623269100556,-190.00
2025-12-25 17:25:00.563813,599621623269100556,-988.00
2025-12-25 17:25:00.563813,599621623269100556,-839.00
2025-12-25 17:25:00.563813,599621623269100556,-216.00
2025-12-25 17:25:00.563813,599621623269100556,-27.00
2025-12-25 17:25:00.563813,599621623269100556,-52.00
2025-12-25 17:25:00.563813,599621623269100556,9.00
2025-12-25 17:25:00.563813,599621623269100556,32.00
2025-12-25 17:25:00.563813,599621623269100556,11.00
2025-12-25 17:25:00.563813,599621623269100556,22.00
2025-12-25 17:25:00.563813,599621623269100556,39.00
2025-12-25 17:25:00.563813,599621623269100556,36.00
2025-12-25 17:25:00.563813,599621623269100556,43.00
2025-12-25 17:25:00.563813,599621623269100556,50.00
2025-12-25 17:25:00.563813,599621623269100556,50.00
2025-12-25 17:25:00.563813,599621623269100556,55.00
2025-12-25 17:25:00.563813,599621623269100556,59.00
2025-12-25 17:25:00.563813,599621623269100556,62.00
2025-12-25 17:25:00.563813,599621623269100556,64.00
2025-12-25 17:25:00.563813,599621623269100556,68.00
2025-12-25 17:25:00.563813,599621623269100556,80.00
2025-12-25 17:25:00.563813,599621623269100556,91.00
2025-12-25 17:25:00.563813,599621623269100556,96.00
2025-12-25 17:25:00.563813,599621623269100556,101.00
2025-12-25 17:25:00.563813,599621623269100556,108.00
2025-12-25 17:25:00.563813,599621623269100556,114.00
2025-12-25 17:25:00.563813,599621623269100556,126.00
2025-12-25 17:25:01.149959,599621623830001051,137.00
2025-12-25 17:25:01.149959,599621623830001051,144.00
2025-12-25 17:25:01.149959,599621623830001051,149.00
2025-12-25 17:25:01.149959,599621623830001051,147.00
2025-12-25 17:25:01.149959,599621623830001051,142.00
2025-12-25 17:25:01.149959,599621623830001051,131.00
2025-12-25 17:25:01.149959,599621623830001051,101.00
2025-12-25 17:25:01.149959,599621623830001051,57.00
2025-12-25 17:25:01.149959,599621623830001051,13.00
2025-12-25 17:25:01.149959,599621623830001051,-20.00
2025-12-25 17:25:01.149959,599621623830001051,-34.00
2025-12-25 17:25:01.149959,599621623830001051,-43.00
2025-12-25 17:25:01.149959,599621623830001051,-59.00
2025-12-25 17:25:01.149959,599621623830001051,-68.00
2025-12-25 17:25:01.149959,599621623830001051,-66.00
2025-12-25 17:25:01.149959,599621623830001051,-64.00
2025-12-25 17:25:01.149959,599621623830001051,-66.00
2025-12-25 17:25:01.149959,599621623830001051,-71.00
2025-12-25 17:25:01.149959,599621623830001051,-66.00
2025-12-25 17:25:01.149959,599621623830001051,-57.00
2025-12-25 17:25:01.149959,599621623830001051,-57.00
2025-12-25 17:25:01.149959,599621623830001051,-59.00
2025-12-25 17:25:01.149959,599621623830001051,-62.00
2025-12-25 17:25:01.149959,599621623830001051,-57.00
2025-12-25 17:25:01.149959,599621623830001051,-50.00
2025-12-25 17:25:01.149959,599621623830001051,-45.00
2025-12-25 17:25:01.149959,599621623830001051,-41.00
2025-12-25 17:25:01.149959,599621623830001051,-34.00
2025-12-25 17:25:01.149959,599621623830001051,-25.00
2025-12-25 17:25:01.149959,599621623830001051,-25.00
2025-12-25 17:25:01.149959,599621623830001051,-34.00
2025-12-25 17:25:01.149959,599621623830001051,-36.00
2025-12-25 17:25:01.149959,599621623830001051,-36.00
2025-12-25 17:25:01.149959,599621623830001051,-39.00
2025-12-25 17:25:01.149959,599621623830001051,-41.00
2025-12-25 17:25:01.149959,599621623830001051,-45.00
2025-12-25 17:25:01.149959,599621623830001051,-48.00
2025-12-25 17:25:01.149959,599621623830001051,-50.00
2025-12-25 17:25:01.149959,599621623830001051,-52.00
2025-12-25 17:25:01.149959,599621623830001051,-55.00
2025-12-25 17:25:01.149959,599621623830001051,-52.00
2025-12-25 17:25:01.149959,599621623830001051,-57.00
2025-12-25 17:25:01.149959,599621623830001051,-64.00
2025-12-25 17:25:01.149959,599621623830001051,-62.00
2025-12-25 17:25:01.149959,599621623830001051,-57.00
2025-12-25 17:25:01.149959,599621623830001051,-59.00
2025-12-25 17:25:01.149959,599621623830001051,-62.00
2025-12-25 17:25:01.149959,599621623830001051,-66.00
2025-12-25 17:25:01.149959,599621623830001051,-66.00
2025-12-25 17:25:01.149959,599621623830001051,-66.00
2025-12-25 17:25:01.149959,599621623830001051,-66.00
2025-12-25 17:25:01.149959,599621623830001051,-66.00
2025-12-25 17:25:01.149959,599621623830001051,-66.00
2025-12-25 17:25:01.149959,599621623830001051,-66.00
2025-12-25 17:25:01.149959,599621623830001051,-64.00
2025-12-25 17:25:01.149959,599621623830001051,-64.00
2025-12-25 17:25:01.149959,599621623830001051,-66.00
2025-12-25 17:25:01.149959,599621623830001051,-66.00
2025-12-25 17:25:01.149959,599621623830001051,-62.00
2025-12-25 17:25:01.149959,599621623830001051,-62.00
2025-12-25 17:25:01.149959,599621623830001051,-62.00
2025-12-25 17:25:01.149959,599621623830001051,-64.00
2025-12-25 17:25:01.149959,599621623830001051,-66.00
2025-12-25 17:25:01.149959,599621623830001051,-57.00
2025-12-25 17:25:01.149959,599621623830001051,-41.00
2025-12-25 17:25:01.149959,599621623830001051,-27.00
2025-12-25 17:25:01.149959,599621623830001051,-13.00
2025-12-25 17:25:01.149959,599621623830001051,-22.00
2025-12-25 17:25:01.149959,599621623830001051,-52.00
2025-12-25 17:25:01.149959,599621623830001051,-64.00
2025-12-25 17:25:01.149959,599621623830001051,-59.00
2025-12-25 17:25:01.149959,599621623830001051,-64.00
2025-12-25 17:25:01.149959,599621623830001051,-68.00
2025-12-25 17:25:01.759899,599621624390901544,-64.00
2025-12-25 17:25:01.759899,599621624390901544,-64.00
2025-12-25 17:25:01.759899,599621624390901544,-66.00
2025-12-25 17:25:01.759899,599621624390901544,-71.00
2025-12-25 17:25:01.759899,599621624390901544,-64.00
2025-12-25 17:25:01.759899,599621624390901544,20.00
2025-12-25 17:25:01.759899,599621624390901544,264.00
2025-12-25 17:25:01.759899,599621624390901544,556.00
2025-12-25 17:25:01.759899,599621624390901544,416.00
2025-12-25 17:25:01.759899,599621624390901544,-418.00
2025-12-25 17:25:01.759899,599621624390901544,-1050.00
2025-12-25 17:25:01.759899,599621624390901544,-675.00
2025-12-25 17:25:01.759899,599621624390901544,-105.00
2025-12-25 17:25:01.759899,599621624390901544,-18.00
2025-12-25 17:25:01.759899,599621624390901544,-22.00
2025-12-25 17:25:01.759899,599621624390901544,43.00
2025-12-25 17:25:01.759899,599621624390901544,39.00
2025-12-25 17:25:01.759899,599621624390901544,32.00
2025-12-25 17:25:01.759899,599621624390901544,64.00
2025-12-25 17:25:01.759899,599621624390901544,78.00
2025-12-25 17:25:01.759899,599621624390901544,73.00
2025-12-25 17:25:01.759899,599621624390901544,75.00
2025-12-25 17:25:01.759899,599621624390901544,75.00
2025-12-25 17:25:01.759899,599621624390901544,75.00
2025-12-25 17:25:01.759899,599621624390901544,87.00
2025-12-25 17:25:01.759899,599621624390901544,89.00
2025-12-25 17:25:01.759899,599621624390901544,85.00
2025-12-25 17:25:01.759899,599621624390901544,87.00
2025-12-25 17:25:01.759899,599621624390901544,91.00
2025-12-25 17:25:01.759899,599621624390901544,96.00
2025-12-25 17:25:01.759899,599621624390901544,105.00
2025-12-25 17:25:01.759899,599621624390901544,117.00
2025-12-25 17:25:01.759899,599621624390901544,128.00
2025-12-25 17:25:01.759899,599621624390901544,142.00
2025-12-25 17:25:01.759899,599621624390901544,149.00
2025-12-25 17:25:01.759899,599621624390901544,156.00
2025-12-25 17:25:01.759899,599621624390901544,167.00
2025-12-25 17:25:01.759899,599621624390901544,179.00
2025-12-25 17:25:01.759899,599621624390901544,177.00
2025-12-25 17:25:01.759899,599621624390901544,170.00
2025-12-25 17:25:01.759899,599621624390901544,156.00
2025-12-25 17:25:01.759899,599621624390901544,133.00
2025-12-25 17:25:01.759899,599621624390901544,101.00
2025-12-25 17:25:01.759899,599621624390901544,62.00
2025-12-25 17:25:01.759899,599621624390901544,16.00
2025-12-25 17:25:01.759899,599621624390901544,-27.00
2025-12-25 17:25:01.759899,599621624390901544,-55.00
2025-12-25 17:25:01.759899,599621624390901544,-68.00
2025-12-25 17:25:01.759899,599621624390901544,-73.00
2025-12-25 17:25:01.759899,599621624390901544,-75.00
2025-12-25 17:25:01.759899,599621624390901544,-82.00
2025-12-25 17:25:01.759899,599621624390901544,-82.00
2025-12-25 17:25:01.759899,599621624390901544,-78.00
2025-12-25 17:25:01.759899,599621624390901544,-78.00
2025-12-25 17:25:01.759899,599621624390901544,-71.00
2025-12-25 17:25:01.759899,599621624390901544,-66.00
2025-12-25 17:25:01.759899,599621624390901544,-73.00
2025-12-25 17:25:01.759899,599621624390901544,-75.00
2025-12-25 17:25:01.759899,599621624390901544,-68.00
2025-12-25 17:25:01.759899,599621624390901544,-66.00
2025-12-25 17:25:01.759899,599621624390901544,-62.00
2025-12-25 17:25:01.759899,599621624390901544,-59.00
2025-12-25 17:25:01.759899,599621624390901544,-66.00
2025-12-25 17:25:01.759899,599621624390901544,-66.00
2025-12-25 17:25:01.759899,599621624390901544,-62.00
2025-12-25 17:25:01.759899,599621624390901544,-59.00
2025-12-25 17:25:01.759899,599621624390901544,-57.00
2025-12-25 17:25:01.759899,599621624390901544,-55.00
2025-12-25 17:25:01.759899,599621624390901544,-64.00
2025-12-25 17:25:01.759899,599621624390901544,-71.00
2025-12-25 17:25:01.759899,599621624390901544,-73.00
2025-12-25 17:25:01.759899,599621624390901544,-73.00
2025-12-25 17:25:01.759899,599621624390901544,-66.00
2025-12-25 17:25:02.302920,599621624951786779,-62.00
2025-12-25 17:25:02.302920,599621624951786779,-68.00
2025-12-25 17:25:02.302920,599621624951786779,-78.00
2025-12-25 17:25:02.302920,599621624951786779,-78.00
2025-12-25 17:25:02.302920,599621624951786779,-73.00
2025-12-25 17:25:02.302920,599621624951786779,-71.00
2025-12-25 17:25:02.302920,599621624951786779,-71.00
2025-12-25 17:25:02.302920,599621624951786779,-71.00
2025-12-25 17:25:02.302920,599621624951786779,-66.00
2025-12-25 17:25:02.302920,599621624951786779,-64.00
2025-12-25 17:25:02.302920,599621624951786779,-55.00
2025-12-25 17:25:02.302920,599621624951786779,-41.00
2025-12-25 17:25:02.302920,599621624951786779,-36.00
2025-12-25 17:25:02.302920,599621624951786779,-32.00
2025-12-25 17:25:02.302920,599621624951786779,-32.00
2025-12-25 17:25:02.302920,599621624951786779,-32.00
2025-12-25 17:25:02.302920,599621624951786779,-22.00
2025-12-25 17:25:02.302920,599621624951786779,-9.00
2025-12-25 17:25:02.302920,599621624951786779,-16.00
2025-12-25 17:25:02.302920,599621624951786779,-25.00
2025-12-25 17:25:02.302920,599621624951786779,-22.00
2025-12-25 17:25:02.302920,599621624951786779,-22.00
2025-12-25 17:25:02.302920,599621624951786779,-25.00
2025-12-25 17:25:02.302920,599621624951786779,-27.00
2025-12-25 17:25:02.302920,599621624951786779,-27.00
2025-12-25 17:25:02.302920,599621624951786779,-27.00
2025-12-25 17:25:02.302920,599621624951786779,-20.00
2025-12-25 17:25:02.302920,599621624951786779,-4.00
2025-12-25 17:25:02.302920,599621624951786779,9.00
2025-12-25 17:25:02.302920,599621624951786779,0.00
2025-12-25 17:25:02.302920,599621624951786779,-29.00
2025-12-25 17:25:02.302920,599621624951786779,-45.00
2025-12-25 17:25:02.302920,599621624951786779,-43.00
2025-12-25 17:25:02.302920,599621624951786779,-48.00
2025-12-25 17:25:02.302920,599621624951786779,-52.00
2025-12-25 17:25:02.302920,599621624951786779,-50.00
2025-12-25 17:25:02.302920,599621624951786779,-55.00
2025-12-25 17:25:02.302920,599621624951786779,-57.00
2025-12-25 17:25:02.302920,599621624951786779,-52.00
2025-12-25 17:25:02.302920,599621624951786779,-43.00
2025-12-25 17:25:02.302920,599621624951786779,18.00
2025-12-25 17:25:02.302920,599621624951786779,234.00
2025-12-25 17:25:02.302920,599621624951786779,528.00
2025-12-25 17:25:02.302920,599621624951786779,464.00
2025-12-25 17:25:02.302920,599621624951786779,-312.00
2025-12-25 17:25:02.302920,599621624951786779,-1032.00
2025-12-25 17:25:02.302920,599621624951786779,-754.00
2025-12-25 17:25:02.302920,599621624951786779,-147.00
2025-12-25 17:25:02.302920,599621624951786779,-18.00
2025-12-25 17:25:02.302920,599621624951786779,-34.00
2025-12-25 17:25:02.302920,599621624951786779,29.00
2025-12-25 17:25:02.302920,599621624951786779,34.00
2025-12-25 17:25:02.302920,599621624951786779,16.00
2025-12-25 17:25:02.302920,599621624951786779,41.00
2025-12-25 17:25:02.302920,599621624951786779,50.00
2025-12-25 17:25:02.302920,599621624951786779,39.00
2025-12-25 17:25:02.302920,599621624951786779,45.00
2025-12-25 17:25:02.302920,599621624951786779,52.00
2025-12-25 17:25:02.302920,599621624951786779,52.00
2025-12-25 17:25:02.302920,599621624951786779,55.00
2025-12-25 17:25:02.302920,599621624951786779,64.00
2025-12-25 17:25:02.302920,599621624951786779,71.00
2025-12-25 17:25:02.302920,599621624951786779,78.00
2025-12-25 17:25:02.302920,599621624951786779,85.00
2025-12-25 17:25:02.302920,599621624951786779,94.00
2025-12-25 17:25:02.302920,599621624951786779,98.00
2025-12-25 17:25:02.302920,599621624951786779,105.00
2025-12-25 17:25:02.302920,599621624951786779,114.00
2025-12-25 17:25:02.302920,599621624951786779,124.00
2025-12-25 17:25:02.302920,599621624951786779,133.00
2025-12-25 17:25:02.302920,599621624951786779,142.00
2025-12-25 17:25:02.302920,599621624951786779,156.00
2025-12-25 17:25:02.302920,599621624951786779,167.00
2025-12-25 17:25:02.840905,599621625512672016,170.00
2025-12-25 17:25:02.840905,599621625512672016,163.00
2025-12-25 17:25:02.840905,599621625512672016,154.00
2025-12-25 17:25:02.840905,599621625512672016,135.00
2025-12-25 17:25:02.840905,599621625512672016,105.00
2025-12-25 17:25:02.840905,599621625512672016,66.00
2025-12-25 17:25:02.840905,599621625512672016,20.00
2025-12-25 17:25:02.840905,599621625512672016,-9.00
2025-12-25 17:25:02.840905,599621625512672016,-18.00
2025-12-25 17:25:02.840905,599621625512672016,-34.00
2025-12-25 17:25:02.840905,599621625512672016,-55.00
2025-12-25 17:25:02.840905,599621625512672016,-59.00
2025-12-25 17:25:02.840905,599621625512672016,-59.00
2025-12-25 17:25:02.840905,599621625512672016,-55.00
2025-12-25 17:25:02.840905,599621625512672016,-45.00
2025-12-25 17:25:02.840905,599621625512672016,-45.00
2025-12-25 17:25:02.840905,599621625512672016,-45.00
2025-12-25 17:25:02.840905,599621625512672016,-41.00
2025-12-25 17:25:02.840905,599621625512672016,-43.00
2025-12-25 17:25:02.840905,599621625512672016,-45.00
2025-12-25 17:25:02.840905,599621625512672016,-39.00
2025-12-25 17:25:02.840905,599621625512672016,-36.00
2025-12-25 17:25:02.840905,599621625512672016,-39.00
2025-12-25 17:25:02.840905,599621625512672016,-41.00
2025-12-25 17:25:02.840905,599621625512672016,-41.00
2025-12-25 17:25:02.840905,599621625512672016,-41.00
2025-12-25 17:25:02.840905,599621625512672016,-41.00
2025-12-25 17:25:02.840905,599621625512672016,-41.00
2025-12-25 17:25:02.840905,599621625512672016,-41.00
2025-12-25 17:25:02.840905,599621625512672016,-43.00
2025-12-25 17:25:02.840905,599621625512672016,-48.00
2025-12-25 17:25:02.840905,599621625512672016,-45.00
2025-12-25 17:25:02.840905,599621625512672016,-48.00
2025-12-25 17:25:02.840905,599621625512672016,-52.00
2025-12-25 17:25:02.840905,599621625512672016,-50.00
2025-12-25 17:25:02.840905,599621625512672016,-52.00
2025-12-25 17:25:02.840905,599621625512672016,-59.00
2025-12-25 17:25:02.840905,599621625512672016,-59.00
2025-12-25 17:25:02.840905,599621625512672016,-59.00
2025-12-25 17:25:02.840905,599621625512672016,-64.00
2025-12-25 17:25:02.840905,599621625512672016,-66.00
2025-12-25 17:25:02.840905,599621625512672016,-68.00
2025-12-25 17:25:02.840905,599621625512672016,-71.00
2025-12-25 17:25:02.840905,599621625512672016,-68.00
2025-12-25 17:25:02.840905,599621625512672016,-71.00
2025-12-25 17:25:02.840905,599621625512672016,-75.00
2025-12-25 17:25:02.840905,599621625512672016,-75.00
2025-12-25 17:25:02.840905,599621625512672016,-71.00
2025-12-25 17:25:02.840905,599621625512672016,-68.00
2025-12-25 17:25:02.840905,599621625512672016,-68.00
2025-12-25 17:25:02.840905,599621625512672016,-71.00
2025-12-25 17:25:02.840905,599621625512672016,-73.00
2025-12-25 17:25:02.840905,599621625512672016,-73.00
2025-12-25 17:25:02.840905,599621625512672016,-73.00
2025-12-25 17:25:02.840905,599621625512672016,-75.00
2025-12-25 17:25:02.840905,599621625512672016,-73.00
2025-12-25 17:25:02.840905,599621625512672016,-71.00
2025-12-25 17:25:02.840905,599621625512672016,-71.00
2025-12-25 17:25:02.840905,599621625512672016,-71.00
2025-12-25 17:25:02.840905,599621625512672016,-73.00
2025-12-25 17:25:02.840905,599621625512672016,-71.00
2025-12-25 17:25:02.840905,599621625512672016,-66.00
2025-12-25 17:25:02.840905,599621625512672016,-66.00
2025-12-25 17:25:02.840905,599621625512672016,-59.00
2025-12-25 17:25:02.840905,599621625512672016,-57.00
2025-12-25 17:25:02.840905,599621625512672016,-64.00
2025-12-25 17:25:02.840905,599621625512672016,-59.00
2025-12-25 17:25:02.840905,599621625512672016,-41.00
2025-12-25 17:25:02.840905,599621625512672016,-34.00
2025-12-25 17:25:02.840905,599621625512672016,-25.00
2025-12-25 17:25:02.840905,599621625512672016,-13.00
2025-12-25 17:25:02.840905,599621625512672016,-22.00
2025-12-25 17:25:02.840905,599621625512672016,-41.00
2025-12-25 17:25:03.519170,599621626073582685,-41.00
2025-12-25 17:25:03.519170,599621626073582685,-43.00
2025-12-25 17:25:03.519170,599621626073582685,-50.00
2025-12-25 17:25:03.519170,599621626073582685,-45.00
2025-12-25 17:25:03.519170,599621626073582685,-34.00
2025-12-25 17:25:03.519170,599621626073582685,-22.00
2025-12-25 17:25:03.519170,599621626073582685,-16.00
2025-12-25 17:25:03.519170,599621626073582685,-22.00
2025-12-25 17:25:03.519170,599621626073582685,6.00
2025-12-25 17:25:03.519170,599621626073582685,165.00
2025-12-25 17:25:03.519170,599621626073582685,468.00
2025-12-25 17:25:03.519170,599621626073582685,604.00
2025-12-25 17:25:03.519170,599621626073582685,52.00
2025-12-25 17:25:03.519170,599621626073582685,-829.00
2025-12-25 17:25:03.519170,599621626073582685,-908.00
2025-12-25 17:25:03.519170,599621626073582685,-289.00
2025-12-25 17:25:03.519170,599621626073582685,6.00
2025-12-25 17:25:03.519170,599621626073582685,-18.00
2025-12-25 17:25:03.519170,599621626073582685,32.00
2025-12-25 17:25:03.519170,599621626073582685,71.00
2025-12-25 17:25:03.519170,599621626073582685,50.00
2025-12-25 17:25:03.519170,599621626073582685,66.00
2025-12-25 17:25:03.519170,599621626073582685,94.00
2025-12-25 17:25:03.519170,599621626073582685,87.00
2025-12-25 17:25:03.519170,599621626073582685,82.00
2025-12-25 17:25:03.519170,599621626073582685,89.00
2025-12-25 17:25:03.519170,599621626073582685,89.00
2025-12-25 17:25:03.519170,599621626073582685,89.00
2025-12-25 17:25:03.519170,599621626073582685,96.00
2025-12-25 17:25:03.519170,599621626073582685,96.00
2025-12-25 17:25:03.519170,599621626073582685,94.00
2025-12-25 17:25:03.519170,599621626073582685,98.00
2025-12-25 17:25:03.519170,599621626073582685,103.00
2025-12-25 17:25:03.519170,599621626073582685,105.00
2025-12-25 17:25:03.519170,599621626073582685,112.00
2025-12-25 17:25:03.519170,599621626073582685,121.00
2025-12-25 17:25:03.519170,599621626073582685,126.00
2025-12-25 17:25:03.519170,599621626073582685,126.00
2025-12-25 17:25:03.519170,599621626073582685,135.00
2025-12-25 17:25:03.519170,599621626073582685,151.00
2025-12-25 17:25:03.519170,599621626073582685,156.00
2025-12-25 17:25:03.519170,599621626073582685,151.00
2025-12-25 17:25:03.519170,599621626073582685,149.00
2025-12-25 17:25:03.519170,599621626073582685,144.00
2025-12-25 17:25:03.519170,599621626073582685,121.00
2025-12-25 17:25:03.519170,599621626073582685,96.00
2025-12-25 17:25:03.519170,599621626073582685,64.00
2025-12-25 17:25:03.519170,599621626073582685,16.00
2025-12-25 17:25:03.519170,599621626073582685,-27.00
2025-12-25 17:25:03.519170,599621626073582685,-59.00
2025-12-25 17:25:03.519170,599621626073582685,-82.00
2025-12-25 17:25:03.519170,599621626073582685,-94.00
2025-12-25 17:25:03.519170,599621626073582685,-96.00
2025-12-25 17:25:03.519170,599621626073582685,-98.00
2025-12-25 17:25:03.519170,599621626073582685,-98.00
2025-12-25 17:25:03.519170,599621626073582685,-98.00
2025-12-25 17:25:03.519170,599621626073582685,-96.00
2025-12-25 17:25:03.519170,599621626073582685,-94.00
2025-12-25 17:25:03.519170,599621626073582685,-89.00
2025-12-25 17:25:03.519170,599621626073582685,-85.00
2025-12-25 17:25:03.519170,599621626073582685,-82.00
2025-12-25 17:25:03.519170,599621626073582685,-85.00
2025-12-25 17:25:03.519170,599621626073582685,-85.00
2025-12-25 17:25:03.519170,599621626073582685,-75.00
2025-12-25 17:25:03.519170,599621626073582685,-64.00
2025-12-25 17:25:03.519170,599621626073582685,-62.00
2025-12-25 17:25:03.519170,599621626073582685,-64.00
2025-12-25 17:25:03.519170,599621626073582685,-68.00
2025-12-25 17:25:03.519170,599621626073582685,-68.00
2025-12-25 17:25:03.519170,599621626073582685,-59.00
2025-12-25 17:25:03.519170,599621626073582685,-52.00
2025-12-25 17:25:03.519170,599621626073582685,-59.00
2025-12-25 17:25:03.519170,599621626073582685,-68.00
2025-12-25 17:25:04.004552,599621626634473006,-68.00
2025-12-25 17:25:04.004552,599621626634473006,-71.00
2025-12-25 17:25:04.004552,599621626634473006,-71.00
2025-12-25 17:25:04.004552,599621626634473006,-71.00
2025-12-25 17:25:04.004552,599621626634473006,-73.00
2025-12-25 17:25:04.004552,599621626634473006,-78.00
2025-12-25 17:25:04.004552,599621626634473006,-82.00
2025-12-25 17:25:04.004552,599621626634473006,-78.00
2025-12-25 17:25:04.004552,599621626634473006,-66.00
2025-12-25 17:25:04.004552,599621626634473006,-68.00
2025-12-25 17:25:04.004552,599621626634473006,-78.00
2025-12-25 17:25:04.004552,599621626634473006,-80.00
2025-12-25 17:25:04.004552,599621626634473006,-78.00
2025-12-25 17:25:04.004552,599621626634473006,-68.00
2025-12-25 17:25:04.004552,599621626634473006,-45.00
2025-12-25 17:25:04.004552,599621626634473006,-41.00
2025-12-25 17:25:04.004552,599621626634473006,-55.00
2025-12-25 17:25:04.004552,599621626634473006,-55.00
2025-12-25 17:25:04.004552,599621626634473006,-48.00
2025-12-25 17:25:04.004552,599621626634473006,-48.00
2025-12-25 17:25:04.004552,599621626634473006,-36.00
2025-12-25 17:25:04.004552,599621626634473006,-27.00
2025-12-25 17:25:04.004552,599621626634473006,-32.00
2025-12-25 17:25:04.004552,599621626634473006,-39.00
2025-12-25 17:25:04.004552,599621626634473006,-41.00
2025-12-25 17:25:04.004552,599621626634473006,-41.00
2025-12-25 17:25:04.004552,599621626634473006,-39.00
2025-12-25 17:25:04.004552,599621626634473006,-41.00
2025-12-25 17:25:04.004552,599621626634473006,-43.00
2025-12-25 17:25:04.004552,599621626634473006,-41.00
2025-12-25 17:25:04.004552,599621626634473006,-45.00
2025-12-25 17:25:04.004552,599621626634473006,-48.00
2025-12-25 17:25:04.004552,599621626634473006,-45.00
2025-12-25 17:25:04.004552,599621626634473006,-45.00
2025-12-25 17:25:04.004552,599621626634473006,-48.00
2025-12-25 17:25:04.004552,599621626634473006,-48.00
2025-12-25 17:25:04.004552,599621626634473006,-50.00
2025-12-25 17:25:04.004552,599621626634473006,-48.00
2025-12-25 17:25:04.004552,599621626634473006,-43.00
2025-12-25 17:25:04.004552,599621626634473006,-39.00
2025-12-25 17:25:04.004552,599621626634473006,-34.00
2025-12-25 17:25:04.004552,599621626634473006,-25.00
2025-12-25 17:25:04.004552,599621626634473006,-18.00
2025-12-25 17:25:04.004552,599621626634473006,-4.00
2025-12-25 17:25:04.004552,599621626634473006,2.00
2025-12-25 17:25:04.004552,599621626634473006,-16.00
2025-12-25 17:25:04.004552,599621626634473006,-34.00
2025-12-25 17:25:04.004552,599621626634473006,-39.00
2025-12-25 17:25:04.004552,599621626634473006,-45.00
2025-12-25 17:25:04.004552,599621626634473006,-48.00
2025-12-25 17:25:04.004552,599621626634473006,-39.00
2025-12-25 17:25:04.004552,599621626634473006,-39.00
2025-12-25 17:25:04.004552,599621626634473006,-48.00
2025-12-25 17:25:04.004552,599621626634473006,-50.00
2025-12-25 17:25:04.004552,599621626634473006,-36.00
2025-12-25 17:25:04.004552,599621626634473006,39.00
2025-12-25 17:25:04.004552,599621626634473006,271.00
2025-12-25 17:25:04.004552,599621626634473006,567.00
2025-12-25 17:25:04.004552,599621626634473006,478.00
2025-12-25 17:25:04.004552,599621626634473006,-301.00
2025-12-25 17:25:04.004552,599621626634473006,-979.00
2025-12-25 17:25:04.004552,599621626634473006,-687.00
2025-12-25 17:25:04.004552,599621626634473006,-112.00
2025-12-25 17:25:04.004552,599621626634473006,-4.00
2025-12-25 17:25:04.004552,599621626634473006,-18.00
2025-12-25 17:25:04.004552,599621626634473006,52.00
2025-12-25 17:25:04.004552,599621626634473006,57.00
2025-12-25 17:25:04.004552,599621626634473006,39.00
2025-12-25 17:25:04.004552,599621626634473006,59.00
2025-12-25 17:25:04.004552,599621626634473006,68.00
2025-12-25 17:25:04.004552,599621626634473006,57.00
2025-12-25 17:25:04.004552,599621626634473006,57.00
2025-12-25 17:25:04.004552,599621626634473006,66.00
2025-12-25 17:25:04.559504,599621627195358241,71.00
2025-12-25 17:25:04.559504,599621627195358241,68.00
2025-12-25 17:25:04.559504,599621627195358241,66.00
2025-12-25 17:25:04.559504,599621627195358241,71.00
2025-12-25 17:25:04.559504,599621627195358241,82.00
2025-12-25 17:25:04.559504,599621627195358241,89.00
2025-12-25 17:25:04.559504,599621627195358241,91.00
2025-12-25 17:25:04.559504,599621627195358241,98.00
2025-12-25 17:25:04.559504,599621627195358241,103.00
2025-12-25 17:25:04.559504,599621627195358241,105.00
2025-12-25 17:25:04.559504,599621627195358241,119.00
2025-12-25 17:25:04.559504,599621627195358241,140.00
2025-12-25 17:25:04.559504,599621627195358241,154.00
2025-12-25 17:25:04.559504,599621627195358241,156.00
2025-12-25 17:25:04.559504,599621627195358241,158.00
2025-12-25 17:25:04.559504,599621627195358241,163.00
2025-12-25 17:25:04.559504,599621627195358241,163.00
2025-12-25 17:25:04.559504,599621627195358241,160.00
2025-12-25 17:25:04.559504,599621627195358241,147.00
2025-12-25 17:25:04.559504,599621627195358241,117.00
2025-12-25 17:25:04.559504,599621627195358241,71.00
2025-12-25 17:25:04.559504,599621627195358241,27.00
2025-12-25 17:25:04.559504,599621627195358241,-9.00
2025-12-25 17:25:04.559504,599621627195358241,-39.00
2025-12-25 17:25:04.559504,599621627195358241,-62.00
2025-12-25 17:25:04.559504,599621627195358241,-75.00
2025-12-25 17:25:04.559504,599621627195358241,-80.00
2025-12-25 17:25:04.559504,599621627195358241,-85.00
2025-12-25 17:25:04.559504,599621627195358241,-87.00
2025-12-25 17:25:04.559504,599621627195358241,-87.00
2025-12-25 17:25:04.559504,599621627195358241,-85.00
2025-12-25 17:25:04.559504,599621627195358241,-82.00
2025-12-25 17:25:04.559504,599621627195358241,-82.00
2025-12-25 17:25:04.559504,599621627195358241,-85.00
2025-12-25 17:25:04.559504,599621627195358241,-85.00
2025-12-25 17:25:04.559504,599621627195358241,-73.00
2025-12-25 17:25:04.559504,599621627195358241,-66.00
2025-12-25 17:25:04.559504,599621627195358241,-66.00
2025-12-25 17:25:04.559504,599621627195358241,-64.00
2025-12-25 17:25:04.559504,599621627195358241,-59.00
2025-12-25 17:25:04.559504,599621627195358241,-59.00
2025-12-25 17:25:04.559504,599621627195358241,-59.00
2025-12-25 17:25:04.559504,599621627195358241,-64.00
2025-12-25 17:25:04.559504,599621627195358241,-64.00
2025-12-25 17:25:04.559504,599621627195358241,-62.00
2025-12-25 17:25:04.559504,599621627195358241,-62.00
2025-12-25 17:25:04.559504,599621627195358241,-66.00
2025-12-25 17:25:04.559504,599621627195358241,-66.00
2025-12-25 17:25:04.559504,599621627195358241,-64.00
2025-12-25 17:25:04.559504,599621627195358241,-59.00
2025-12-25 17:25:04.559504,599621627195358241,-55.00
2025-12-25 17:25:04.559504,599621627195358241,-57.00
2025-12-25 17:25:04.559504,599621627195358241,-64.00
2025-12-25 17:25:04.559504,599621627195358241,-64.00
2025-12-25 17:25:04.559504,599621627195358241,-64.00
2025-12-25 17:25:04.559504,599621627195358241,-66.00
2025-12-25 17:25:04.559504,599621627195358241,-68.00
2025-12-25 17:25:04.559504,599621627195358241,-66.00
2025-12-25 17:25:04.559504,599621627195358241,-68.00
2025-12-25 17:25:04.559504,599621627195358241,-73.00
2025-12-25 17:25:04.559504,599621627195358241,-71.00
2025-12-25 17:25:04.559504,599621627195358241,-68.00
2025-12-25 17:25:04.559504,599621627195358241,-68.00
2025-12-25 17:25:04.559504,599621627195358241,-71.00
2025-12-25 17:25:04.559504,599621627195358241,-66.00
2025-12-25 17:25:04.559504,599621627195358241,-68.00
2025-12-25 17:25:04.559504,599621627195358241,-68.00
2025-12-25 17:25:04.559504,599621627195358241,-64.00
2025-12-25 17:25:04.559504,599621627195358241,-62.00
2025-12-25 17:25:04.559504,599621627195358241,-57.00
2025-12-25 17:25:04.559504,599621627195358241,-57.00
2025-12-25 17:25:04.559504,599621627195358241,-62.00
2025-12-25 17:25:04.559504,599621627195358241,-59.00
2025-12-25 17:25:05.099572,599621627756253650,-55.00
2025-12-25 17:25:05.099572,599621627756253650,-55.00
2025-12-25 17:25:05.099572,599621627756253650,-55.00
2025-12-25 17:25:05.099572,599621627756253650,-43.00
2025-12-25 17:25:05.099572,599621627756253650,-43.00
2025-12-25 17:25:05.099572,599621627756253650,-50.00
2025-12-25 17:25:05.099572,599621627756253650,-48.00
2025-12-25 17:25:05.099572,599621627756253650,-43.00
2025-12-25 17:25:05.099572,599621627756253650,-34.00
2025-12-25 17:25:05.099572,599621627756253650,-22.00
2025-12-25 17:25:05.099572,599621627756253650,-27.00
2025-12-25 17:25:05.099572,599621627756253650,-36.00
2025-12-25 17:25:05.099572,599621627756253650,-25.00
2025-12-25 17:25:05.099572,599621627756253650,-4.00
2025-12-25 17:25:05.099572,599621627756253650,16.00
2025-12-25 17:25:05.099572,599621627756253650,36.00
2025-12-25 17:25:05.099572,599621627756253650,29.00
2025-12-25 17:25:05.099572,599621627756253650,2.00
2025-12-25 17:25:05.099572,599621627756253650,-9.00
2025-12-25 17:25:05.099572,599621627756253650,-6.00
2025-12-25 17:25:05.099572,599621627756253650,-2.00
2025-12-25 17:25:05.099572,599621627756253650,-4.00
2025-12-25 17:25:05.099572,599621627756253650,-11.00
2025-12-25 17:25:05.099572,599621627756253650,-11.00
2025-12-25 17:25:05.099572,599621627756253650,-11.00
2025-12-25 17:25:05.099572,599621627756253650,-18.00
2025-12-25 17:25:05.099572,599621627756253650,-13.00
2025-12-25 17:25:05.099572,599621627756253650,62.00
2025-12-25 17:25:05.099572,599621627756253650,285.00
2025-12-25 17:25:05.099572,599621627756253650,574.00
2025-12-25 17:25:05.099572,599621627756253650,482.00
2025-12-25 17:25:05.099572,599621627756253650,-310.00
2025-12-25 17:25:05.099572,599621627756253650,-990.00
2025-12-25 17:25:05.099572,599621627756253650,-685.00
2025-12-25 17:25:05.099572,599621627756253650,-112.00
2025-12-25 17:25:05.099572,599621627756253650,-11.00
2025-12-25 17:25:05.099572,599621627756253650,-20.00
2025-12-25 17:25:05.099572,599621627756253650,50.00
2025-12-25 17:25:05.099572,599621627756253650,50.00
2025-12-25 17:25:05.099572,599621627756253650,34.00
2025-12-25 17:25:05.099572,599621627756253650,59.00
2025-12-25 17:25:05.099572,599621627756253650,66.00
2025-12-25 17:25:05.099572,599621627756253650,62.00
2025-12-25 17:25:05.099572,599621627756253650,68.00
2025-12-25 17:25:05.099572,599621627756253650,73.00
2025-12-25 17:25:05.099572,599621627756253650,68.00
2025-12-25 17:25:05.099572,599621627756253650,68.00
2025-12-25 17:25:05.099572,599621627756253650,75.00
2025-12-25 17:25:05.099572,599621627756253650,80.00
2025-12-25 17:25:05.099572,599621627756253650,82.00
2025-12-25 17:25:05.099572,599621627756253650,80.00
2025-12-25 17:25:05.099572,599621627756253650,80.00
2025-12-25 17:25:05.099572,599621627756253650,82.00
2025-12-25 17:25:05.099572,599621627756253650,94.00
2025-12-25 17:25:05.099572,599621627756253650,101.00
2025-12-25 17:25:05.099572,599621627756253650,105.00
2025-12-25 17:25:05.099572,599621627756253650,114.00
2025-12-25 17:25:05.099572,599621627756253650,126.00
2025-12-25 17:25:05.099572,599621627756253650,131.00
2025-12-25 17:25:05.099572,599621627756253650,140.00
2025-12-25 17:25:05.099572,599621627756253650,149.00
2025-12-25 17:25:05.099572,599621627756253650,147.00
2025-12-25 17:25:05.099572,599621627756253650,128.00
2025-12-25 17:25:05.099572,599621627756253650,105.00
2025-12-25 17:25:05.099572,599621627756253650,75.00
2025-12-25 17:25:05.099572,599621627756253650,39.00
2025-12-25 17:25:05.099572,599621627756253650,-4.00
2025-12-25 17:25:05.099572,599621627756253650,-39.00
2025-12-25 17:25:05.099572,599621627756253650,-68.00
2025-12-25 17:25:05.099572,599621627756253650,-94.00
2025-12-25 17:25:05.099572,599621627756253650,-108.00
2025-12-25 17:25:05.099572,599621627756253650,-110.00
2025-12-25 17:25:05.099572,599621627756253650,-108.00
2025-12-25 17:25:05.722947,599621628317133799,-110.00
2025-12-25 17:25:05.722947,599621628317133799,-110.00
2025-12-25 17:25:05.722947,599621628317133799,-108.00
2025-12-25 17:25:05.722947,599621628317133799,-108.00
2025-12-25 17:25:05.722947,599621628317133799,-108.00
2025-12-25 17:25:05.722947,599621628317133799,-94.00
2025-12-25 17:25:05.722947,599621628317133799,-75.00
2025-12-25 17:25:05.722947,599621628317133799,-71.00
2025-12-25 17:25:05.722947,599621628317133799,-73.00
2025-12-25 17:25:05.722947,599621628317133799,-73.00
2025-12-25 17:25:05.722947,599621628317133799,-71.00
2025-12-25 17:25:05.722947,599621628317133799,-62.00
2025-12-25 17:25:05.722947,599621628317133799,-48.00
2025-12-25 17:25:05.722947,599621628317133799,-41.00
2025-12-25 17:25:05.722947,599621628317133799,-45.00
2025-12-25 17:25:05.722947,599621628317133799,-48.00
2025-12-25 17:25:05.722947,599621628317133799,-50.00
2025-12-25 17:25:05.722947,599621628317133799,-52.00
2025-12-25 17:25:05.722947,599621628317133799,-48.00
2025-12-25 17:25:05.722947,599621628317133799,-48.00
2025-12-25 17:25:05.722947,599621628317133799,-52.00
2025-12-25 17:25:05.722947,599621628317133799,-55.00
2025-12-25 17:25:05.722947,599621628317133799,-57.00
2025-12-25 17:25:05.722947,599621628317133799,-59.00
2025-12-25 17:25:05.722947,599621628317133799,-57.00
2025-12-25 17:25:05.722947,599621628317133799,-59.00
2025-12-25 17:25:05.722947,599621628317133799,-64.00
2025-12-25 17:25:05.722947,599621628317133799,-66.00
2025-12-25 17:25:05.722947,599621628317133799,-68.00
2025-12-25 17:25:05.722947,599621628317133799,-68.00
2025-12-25 17:25:05.722947,599621628317133799,-68.00
2025-12-25 17:25:05.722947,599621628317133799,-68.00
2025-12-25 17:25:05.722947,599621628317133799,-68.00
2025-12-25 17:25:05.722947,599621628317133799,-71.00
2025-12-25 17:25:05.722947,599621628317133799,-62.00
2025-12-25 17:25:05.722947,599621628317133799,-43.00
2025-12-25 17:25:05.722947,599621628317133799,-41.00
