Timestamp,Device Timestamp (ns),ECG Value (uV)
2025-12-25 17:35:18.700999,599622240822483075,57.00
2025-12-25 17:35:18.700999,599622240822483075,55.00
2025-12-25 17:35:18.700999,599622240822483075,55.00
2025-12-25 17:35:18.700999,599622240822483075,59.00
2025-12-25 17:35:18.700999,599622240822483075,62.00
2025-12-25 17:35:18.700999,599622240822483075,62.00
2025-12-25 17:35:18.700999,599622240822483075,75.00
2025-12-25 17:35:18.700999,599622240822483075,96.00
2025-12-25 17:35:18.700999,599622240822483075,103.00
2025-12-25 17:35:18.700999,599622240822483075,101.00
2025-12-25 17:35:18.700999,599622240822483075,108.00
2025-12-25 17:35:18.700999,599622240822483075,117.00
2025-12-25 17:35:18.700999,599622240822483075,121.00
2025-12-25 17:35:18.700999,599622240822483075,126.00
2025-12-25 17:35:18.700999,599622240822483075,133.00
2025-12-25 17:35:18.700999,599622240822483075,135.00
2025-12-25 17:35:18.700999,599622240822483075,135.00
2025-12-25 17:35:18.700999,599622240822483075,140.00
2025-12-25 17:35:18.700999,599622240822483075,144.00
2025-12-25 17:35:18.700999,599622240822483075,128.00
2025-12-25 17:35:18.700999,599622240822483075,91.00
2025-12-25 17:35:18.700999,599622240822483075,45.00
2025-12-25 17:35:18.700999,599622240822483075,4.00
2025-12-25 17:35:18.700999,599622240822483075,-32.00
2025-12-25 17:35:18.700999,599622240822483075,-50.00
2025-12-25 17:35:18.700999,599622240822483075,-64.00
2025-12-25 17:35:18.700999,599622240822483075,-73.00
2025-12-25 17:35:18.700999,599622240822483075,-80.00
2025-12-25 17:35:18.700999,599622240822483075,-80.00
2025-12-25 17:35:18.700999,599622240822483075,-75.00
2025-12-25 17:35:18.700999,599622240822483075,-75.00
2025-12-25 17:35:18.700999,599622240822483075,-78.00
2025-12-25 17:35:18.700999,599622240822483075,-80.00
2025-12-25 17:35:18.700999,599622240822483075,-78.00
2025-12-25 17:35:18.700999,599622240822483075,-73.00
2025-12-25 17:35:18.700999,599622240822483075,-71.00
2025-12-25 17:35:18.700999,599622240822483075,-66.00
2025-12-25 17:35:18.700999,599622240822483075,-66.00
2025-12-25 17:35:18.700999,599622240822483075,-68.00
2025-12-25 17:35:18.700999,599622240822483075,-68.00
2025-12-25 17:35:18.700999,599622240822483075,-66.00
2025-12-25 17:35:18.700999,599622240822483075,-64.00
2025-12-25 17:35:18.700999,599622240822483075,-62.00
2025-12-25 17:35:18.700999,599622240822483075,-62.00
2025-12-25 17:35:18.700999,599622240822483075,-59.00
2025-12-25 17:35:18.700999,599622240822483075,-62.00
2025-12-25 17:35:18.700999,599622240822483075,-57.00
2025-12-25 17:35:18.700999,599622240822483075,-55.00
2025-12-25 17:35:18.700999,599622240822483075,-57.00
2025-12-25 17:35:18.700999,599622240822483075,-52.00
2025-12-25 17:35:18.700999,599622240822483075,-48.00
2025-12-25 17:35:18.700999,599622240822483075,-48.00
2025-12-25 17:35:18.700999,599622240822483075,-50.00
2025-12-25 17:35:18.700999,599622240822483075,-50.00
2025-12-25 17:35:18.700999,599622240822483075,-48.00
2025-12-25 17:35:18.700999,599622240822483075,-50.00
2025-12-25 17:35:18.700999,599622240822483075,-52.00
2025-12-25 17:35:18.700999,599622240822483075,-55.00
2025-12-25 17:35:18.700999,599622240822483075,-55.00
2025-12-25 17:35:18.700999,599622240822483075,-55.00
2025-12-25 17:35:18.700999,599622240822483075,-48.00
2025-12-25 17:35:18.700999,599622240822483075,-41.00
2025-12-25 17:35:18.700999,599622240822483075,-25.00
2025-12-25 17:35:18.700999,599622240822483075,-4.00
2025-12-25 17:35:18.700999,599622240822483075,4.00
2025-12-25 17:35:18.700999,599622240822483075,-13.00
2025-12-25 17:35:18.700999,599622240822483075,-34.00
2025-12-25 17:35:18.700999,599622240822483075,-39.00
2025-12-25 17:35:18.700999,599622240822483075,-41.00
2025-12-25 17:35:18.700999,599622240822483075,-48.00
2025-12-25 17:35:18.700999,599622240822483075,-48.00
2025-12-25 17:35:18.700999,599622240822483075,-43.00
2025-12-25 17:35:18.700999,599622240822483075,-41.00
2025-12-25 17:35:18.781271,599622241383398828,-43.00
2025-12-25 17:35:18.781271,599622241383398828,-45.00
2025-12-25 17:35:18.781271,599622241383398828,-27.00
2025-12-25 17:35:18.781271,599622241383398828,75.00
2025-12-25 17:35:18.781271,599622241383398828,340.00
2025-12-25 17:35:18.781271,599622241383398828,597.00
2025-12-25 17:35:18.781271,599622241383398828,354.00
2025-12-25 17:35:18.781271,599622241383398828,-494.00
2025-12-25 17:35:18.781271,599622241383398828,-986.00
2025-12-25 17:35:18.781271,599622241383398828,-549.00
2025-12-25 17:35:18.781271,599622241383398828,-52.00
2025-12-25 17:35:18.781271,599622241383398828,9.00
2025-12-25 17:35:18.781271,599622241383398828,16.00
2025-12-25 17:35:18.781271,599622241383398828,64.00
2025-12-25 17:35:18.781271,599622241383398828,48.00
2025-12-25 17:35:18.781271,599622241383398828,45.00
2025-12-25 17:35:18.781271,599622241383398828,71.00
2025-12-25 17:35:18.781271,599622241383398828,68.00
2025-12-25 17:35:18.781271,599622241383398828,55.00
2025-12-25 17:35:18.781271,599622241383398828,62.00
2025-12-25 17:35:18.781271,599622241383398828,71.00
2025-12-25 17:35:18.781271,599622241383398828,68.00
2025-12-25 17:35:18.781271,599622241383398828,71.00
2025-12-25 17:35:18.781271,599622241383398828,75.00
2025-12-25 17:35:18.781271,599622241383398828,71.00
2025-12-25 17:35:18.781271,599622241383398828,68.00
2025-12-25 17:35:18.781271,599622241383398828,73.00
2025-12-25 17:35:18.781271,599622241383398828,80.00
2025-12-25 17:35:18.781271,599622241383398828,85.00
2025-12-25 17:35:18.781271,599622241383398828,87.00
2025-12-25 17:35:18.781271,599622241383398828,91.00
2025-12-25 17:35:18.781271,599622241383398828,98.00
2025-12-25 17:35:18.781271,599622241383398828,105.00
2025-12-25 17:35:18.781271,599622241383398828,112.00
2025-12-25 17:35:18.781271,599622241383398828,121.00
2025-12-25 17:35:18.781271,599622241383398828,126.00
2025-12-25 17:35:18.781271,599622241383398828,126.00
2025-12-25 17:35:18.781271,599622241383398828,121.00
2025-12-25 17:35:18.781271,599622241383398828,121.00
2025-12-25 17:35:18.781271,599622241383398828,110.00
2025-12-25 17:35:18.781271,599622241383398828,85.00
2025-12-25 17:35:18.781271,599622241383398828,45.00
2025-12-25 17:35:18.781271,599622241383398828,2.00
2025-12-25 17:35:18.781271,599622241383398828,-32.00
2025-12-25 17:35:18.781271,599622241383398828,-55.00
2025-12-25 17:35:18.781271,599622241383398828,-68.00
2025-12-25 17:35:18.781271,599622241383398828,-75.00
2025-12-25 17:35:18.781271,599622241383398828,-82.00
2025-12-25 17:35:18.781271,599622241383398828,-87.00
2025-12-25 17:35:18.781271,599622241383398828,-80.00
2025-12-25 17:35:18.781271,599622241383398828,-75.00
2025-12-25 17:35:18.781271,599622241383398828,-78.00
2025-12-25 17:35:18.781271,599622241383398828,-75.00
2025-12-25 17:35:18.781271,599622241383398828,-75.00
2025-12-25 17:35:18.781271,599622241383398828,-75.00
2025-12-25 17:35:18.781271,599622241383398828,-75.00
2025-12-25 17:35:18.781271,599622241383398828,-71.00
2025-12-25 17:35:18.781271,599622241383398828,-68.00
2025-12-25 17:35:18.781271,599622241383398828,-71.00
2025-12-25 17:35:18.781271,599622241383398828,-71.00
2025-12-25 17:35:18.781271,599622241383398828,-66.00
2025-12-25 17:35:18.781271,599622241383398828,-62.00
2025-12-25 17:35:18.781271,599622241383398828,-64.00
2025-12-25 17:35:18.781271,599622241383398828,-66.00
2025-12-25 17:35:18.781271,599622241383398828,-64.00
2025-12-25 17:35:18.781271,599622241383398828,-66.00
2025-12-25 17:35:18.781271,599622241383398828,-68.00
2025-12-25 17:35:18.781271,599622241383398828,-64.00
2025-12-25 17:35:18.781271,599622241383398828,-64.00
2025-12-25 17:35:18.781271,599622241383398828,-64.00
2025-12-25 17:35:18.781271,599622241383398828,-64.00
2025-12-25 17:35:18.781271,599622241383398828,-62.00
2025-12-25 17:35:18.781271,599622241383398828,-66.00
2025-12-25 17:35:19.252175,599622241944309499,-64.00
2025-12-25 17:35:19.252175,599622241944309499,-62.00
2025-12-25 17:35:19.252175,599622241944309499,-59.00
2025-12-25 17:35:19.252175,599622241944309499,-50.00
2025-12-25 17:35:19.252175,599622241944309499,-41.00
2025-12-25 17:35:19.252175,599622241944309499,-45.00
2025-12-25 17:35:19.252175,599622241944309499,-45.00
2025-12-25 17:35:19.252175,599622241944309499,-29.00
2025-12-25 17:35:19.252175,599622241944309499,-6.00
2025-12-25 17:35:19.252175,599622241944309499,0.00
2025-12-25 17:35:19.252175,599622241944309499,4.00
2025-12-25 17:35:19.252175,599622241944309499,16.00
2025-12-25 17:35:19.252175,599622241944309499,2.00
2025-12-25 17:35:19.252175,599622241944309499,-13.00
2025-12-25 17:35:19.252175,599622241944309499,-4.00
2025-12-25 17:35:19.252175,599622241944309499,-9.00
2025-12-25 17:35:19.252175,599622241944309499,-20.00
2025-12-25 17:35:19.252175,599622241944309499,-20.00
2025-12-25 17:35:19.252175,599622241944309499,-18.00
2025-12-25 17:35:19.252175,599622241944309499,-22.00
2025-12-25 17:35:19.252175,599622241944309499,-25.00
2025-12-25 17:35:19.252175,599622241944309499,-22.00
2025-12-25 17:35:19.252175,599622241944309499,-9.00
2025-12-25 17:35:19.252175,599622241944309499,91.00
2025-12-25 17:35:19.252175,599622241944309499,349.00
2025-12-25 17:35:19.252175,599622241944309499,588.00
2025-12-25 17:35:19.252175,599622241944309499,314.00
2025-12-25 17:35:19.252175,599622241944309499,-547.00
2025-12-25 17:35:19.252175,599622241944309499,-1006.00
2025-12-25 17:35:19.252175,599622241944309499,-556.00
2025-12-25 17:35:19.252175,599622241944309499,-82.00
2025-12-25 17:35:19.252175,599622241944309499,-34.00
2025-12-25 17:35:19.252175,599622241944309499,-6.00
2025-12-25 17:35:19.252175,599622241944309499,48.00
2025-12-25 17:35:19.252175,599622241944309499,29.00
2025-12-25 17:35:19.252175,599622241944309499,20.00
2025-12-25 17:35:19.252175,599622241944309499,43.00
2025-12-25 17:35:19.252175,599622241944309499,45.00
2025-12-25 17:35:19.252175,599622241944309499,39.00
2025-12-25 17:35:19.252175,599622241944309499,43.00
2025-12-25 17:35:19.252175,599622241944309499,43.00
2025-12-25 17:35:19.252175,599622241944309499,45.00
2025-12-25 17:35:19.252175,599622241944309499,48.00
2025-12-25 17:35:19.252175,599622241944309499,50.00
2025-12-25 17:35:19.252175,599622241944309499,55.00
2025-12-25 17:35:19.252175,599622241944309499,66.00
2025-12-25 17:35:19.252175,599622241944309499,64.00
2025-12-25 17:35:19.252175,599622241944309499,57.00
2025-12-25 17:35:19.252175,599622241944309499,68.00
2025-12-25 17:35:19.252175,599622241944309499,80.00
2025-12-25 17:35:19.252175,599622241944309499,78.00
2025-12-25 17:35:19.252175,599622241944309499,82.00
2025-12-25 17:35:19.252175,599622241944309499,94.00
2025-12-25 17:35:19.252175,599622241944309499,101.00
2025-12-25 17:35:19.252175,599622241944309499,105.00
2025-12-25 17:35:19.252175,599622241944309499,112.00
2025-12-25 17:35:19.252175,599622241944309499,112.00
2025-12-25 17:35:19.252175,599622241944309499,101.00
2025-12-25 17:35:19.252175,599622241944309499,89.00
2025-12-25 17:35:19.252175,599622241944309499,75.00
2025-12-25 17:35:19.252175,599622241944309499,45.00
2025-12-25 17:35:19.252175,599622241944309499,-4.00
2025-12-25 17:35:19.252175,599622241944309499,-45.00
2025-12-25 17:35:19.252175,599622241944309499,-64.00
2025-12-25 17:35:19.252175,599622241944309499,-82.00
2025-12-25 17:35:19.252175,599622241944309499,-103.00
2025-12-25 17:35:19.252175,599622241944309499,-108.00
2025-12-25 17:35:19.252175,599622241944309499,-110.00
2025-12-25 17:35:19.252175,599622241944309499,-112.00
2025-12-25 17:35:19.252175,599622241944309499,-103.00
2025-12-25 17:35:19.252175,599622241944309499,-94.00
2025-12-25 17:35:19.252175,599622241944309499,-94.00
2025-12-25 17:35:19.252175,599622241944309499,-91.00
2025-12-25 17:35:19.811016,599622242505220166,-85.00
2025-12-25 17:35:19.811016,599622242505220166,-85.00
2025-12-25 17:35:19.811016,599622242505220166,-91.00
2025-12-25 17:35:19.811016,599622242505220166,-89.00
2025-12-25 17:35:19.811016,599622242505220166,-85.00
2025-12-25 17:35:19.811016,599622242505220166,-80.00
2025-12-25 17:35:19.811016,599622242505220166,-80.00
2025-12-25 17:35:19.811016,599622242505220166,-82.00
2025-12-25 17:35:19.811016,599622242505220166,-78.00
2025-12-25 17:35:19.811016,599622242505220166,-75.00
2025-12-25 17:35:19.811016,599622242505220166,-64.00
2025-12-25 17:35:19.811016,599622242505220166,-48.00
2025-12-25 17:35:19.811016,599622242505220166,-48.00
2025-12-25 17:35:19.811016,599622242505220166,-59.00
2025-12-25 17:35:19.811016,599622242505220166,-59.00
2025-12-25 17:35:19.811016,599622242505220166,-55.00
2025-12-25 17:35:19.811016,599622242505220166,-52.00
2025-12-25 17:35:19.811016,599622242505220166,-59.00
2025-12-25 17:35:19.811016,599622242505220166,-64.00
2025-12-25 17:35:19.811016,599622242505220166,-62.00
2025-12-25 17:35:19.811016,599622242505220166,-62.00
2025-12-25 17:35:19.811016,599622242505220166,-64.00
2025-12-25 17:35:19.811016,599622242505220166,-62.00
2025-12-25 17:35:19.811016,599622242505220166,-52.00
2025-12-25 17:35:19.811016,599622242505220166,-57.00
2025-12-25 17:35:19.811016,599622242505220166,-64.00
2025-12-25 17:35:19.811016,599622242505220166,-50.00
2025-12-25 17:35:19.811016,599622242505220166,-34.00
2025-12-25 17:35:19.811016,599622242505220166,-18.00
2025-12-25 17:35:19.811016,599622242505220166,-4.00
2025-12-25 17:35:19.811016,599622242505220166,-6.00
2025-12-25 17:35:19.811016,599622242505220166,-29.00
2025-12-25 17:35:19.811016,599622242505220166,-41.00
2025-12-25 17:35:19.811016,599622242505220166,-41.00
2025-12-25 17:35:19.811016,599622242505220166,-41.00
2025-12-25 17:35:19.811016,599622242505220166,-45.00
2025-12-25 17:35:19.811016,599622242505220166,-45.00
2025-12-25 17:35:19.811016,599622242505220166,-45.00
2025-12-25 17:35:19.811016,599622242505220166,-48.00
2025-12-25 17:35:19.811016,599622242505220166,-48.00
2025-12-25 17:35:19.811016,599622242505220166,-39.00
2025-12-25 17:35:19.811016,599622242505220166,13.00
2025-12-25 17:35:19.811016,599622242505220166,193.00
2025-12-25 17:35:19.811016,599622242505220166,498.00
2025-12-25 17:35:19.811016,599622242505220166,567.00
2025-12-25 17:35:19.811016,599622242505220166,-75.00
2025-12-25 17:35:19.811016,599622242505220166,-914.00
2025-12-25 17:35:19.811016,599622242505220166,-892.00
2025-12-25 17:35:19.811016,599622242505220166,-314.00
2025-12-25 17:35:19.811016,599622242505220166,-71.00
2025-12-25 17:35:19.811016,599622242505220166,-45.00
2025-12-25 17:35:19.811016,599622242505220166,25.00
2025-12-25 17:35:19.811016,599622242505220166,32.00
2025-12-25 17:35:19.811016,599622242505220166,9.00
2025-12-25 17:35:19.811016,599622242505220166,34.00
2025-12-25 17:35:19.811016,599622242505220166,52.00
2025-12-25 17:35:19.811016,599622242505220166,45.00
2025-12-25 17:35:19.811016,599622242505220166,50.00
2025-12-25 17:35:19.811016,599622242505220166,57.00
2025-12-25 17:35:19.811016,599622242505220166,57.00
2025-12-25 17:35:19.811016,599622242505220166,66.00
2025-12-25 17:35:19.811016,599622242505220166,80.00
2025-12-25 17:35:19.811016,599622242505220166,82.00
2025-12-25 17:35:19.811016,599622242505220166,85.00
2025-12-25 17:35:19.811016,599622242505220166,85.00
2025-12-25 17:35:19.811016,599622242505220166,85.00
2025-12-25 17:35:19.811016,599622242505220166,89.00
2025-12-25 17:35:19.811016,599622242505220166,96.00
2025-12-25 17:35:19.811016,599622242505220166,103.00
2025-12-25 17:35:19.811016,599622242505220166,110.00
2025-12-25 17:35:19.811016,599622242505220166,114.00
2025-12-25 17:35:19.811016,599622242505220166,121.00
2025-12-25 17:35:19.811016,599622242505220166,128.00
2025-12-25 17:35:20.490092,599622243066115573,135.00
2025-12-25 17:35:20.490092,599622243066115573,140.00
2025-12-25 17:35:20.490092,599622243066115573,137.00
2025-12-25 17:35:20.490092,599622243066115573,126.00
2025-12-25 17:35:20.490092,599622243066115573,105.00
2025-12-25 17:35:20.490092,599622243066115573,75.00
2025-12-25 17:35:20.490092,599622243066115573,39.00
2025-12-25 17:35:20.490092,599622243066115573,6.00
2025-12-25 17:35:20.490092,599622243066115573,-11.00
2025-12-25 17:35:20.490092,599622243066115573,-39.00
2025-12-25 17:35:20.490092,599622243066115573,-66.00
2025-12-25 17:35:20.490092,599622243066115573,-78.00
2025-12-25 17:35:20.490092,599622243066115573,-80.00
2025-12-25 17:35:20.490092,599622243066115573,-80.00
2025-12-25 17:35:20.490092,599622243066115573,-78.00
2025-12-25 17:35:20.490092,599622243066115573,-75.00
2025-12-25 17:35:20.490092,599622243066115573,-75.00
2025-12-25 17:35:20.490092,599622243066115573,-78.00
2025-12-25 17:35:20.490092,599622243066115573,-73.00
2025-12-25 17:35:20.490092,599622243066115573,-68.00
2025-12-25 17:35:20.490092,599622243066115573,-66.00
2025-12-25 17:35:20.490092,599622243066115573,-64.00
2025-12-25 17:35:20.490092,599622243066115573,-64.00
2025-12-25 17:35:20.490092,599622243066115573,-66.00
2025-12-25 17:35:20.490092,599622243066115573,-64.00
2025-12-25 17:35:20.490092,599622243066115573,-59.00
2025-12-25 17:35:20.490092,599622243066115573,-55.00
2025-12-25 17:35:20.490092,599622243066115573,-55.00
2025-12-25 17:35:20.490092,599622243066115573,-59.00
2025-12-25 17:35:20.490092,599622243066115573,-59.00
2025-12-25 17:35:20.490092,599622243066115573,-57.00
2025-12-25 17:35:20.490092,599622243066115573,-52.00
2025-12-25 17:35:20.490092,599622243066115573,-57.00
2025-12-25 17:35:20.490092,599622243066115573,-62.00
2025-12-25 17:35:20.490092,599622243066115573,-59.00
2025-12-25 17:35:20.490092,599622243066115573,-57.00
2025-12-25 17:35:20.490092,599622243066115573,-59.00
2025-12-25 17:35:20.490092,599622243066115573,-62.00
2025-12-25 17:35:20.490092,599622243066115573,-59.00
2025-12-25 17:35:20.490092,599622243066115573,-64.00
2025-12-25 17:35:20.490092,599622243066115573,-66.00
2025-12-25 17:35:20.490092,599622243066115573,-68.00
2025-12-25 17:35:20.490092,599622243066115573,-66.00
2025-12-25 17:35:20.490092,599622243066115573,-59.00
2025-12-25 17:35:20.490092,599622243066115573,-57.00
2025-12-25 17:35:20.490092,599622243066115573,-50.00
2025-12-25 17:35:20.490092,599622243066115573,-29.00
2025-12-25 17:35:20.490092,599622243066115573,-6.00
2025-12-25 17:35:20.490092,599622243066115573,2.00
2025-12-25 17:35:20.490092,599622243066115573,-13.00
2025-12-25 17:35:20.490092,599622243066115573,-39.00
2025-12-25 17:35:20.490092,599622243066115573,-41.00
2025-12-25 17:35:20.490092,599622243066115573,-39.00
2025-12-25 17:35:20.490092,599622243066115573,-34.00
2025-12-25 17:35:20.490092,599622243066115573,-22.00
2025-12-25 17:35:20.490092,599622243066115573,-16.00
2025-12-25 17:35:20.490092,599622243066115573,-25.00
2025-12-25 17:35:20.490092,599622243066115573,-34.00
2025-12-25 17:35:20.490092,599622243066115573,-32.00
2025-12-25 17:35:20.490092,599622243066115573,-11.00
2025-12-25 17:35:20.490092,599622243066115573,94.00
2025-12-25 17:35:20.490092,599622243066115573,356.00
2025-12-25 17:35:20.490092,599622243066115573,606.00
2025-12-25 17:35:20.490092,599622243066115573,335.00
2025-12-25 17:35:20.490092,599622243066115573,-560.00
2025-12-25 17:35:20.490092,599622243066115573,-1043.00
2025-12-25 17:35:20.490092,599622243066115573,-544.00
2025-12-25 17:35:20.490092,599622243066115573,-36.00
2025-12-25 17:35:20.490092,599622243066115573,-16.00
2025-12-25 17:35:20.490092,599622243066115573,-16.00
2025-12-25 17:35:20.490092,599622243066115573,48.00
2025-12-25 17:35:20.490092,599622243066115573,34.00
2025-12-25 17:35:20.490092,599622243066115573,27.00
2025-12-25 17:35:20.968928,599622243627031326,55.00
2025-12-25 17:35:20.968928,599622243627031326,57.00
2025-12-25 17:35:20.968928,599622243627031326,48.00
2025-12-25 17:35:20.968928,599622243627031326,52.00
2025-12-25 17:35:20.968928,599622243627031326,55.00
2025-12-25 17:35:20.968928,599622243627031326,59.00
2025-12-25 17:35:20.968928,599622243627031326,71.00
2025-12-25 17:35:20.968928,599622243627031326,78.00
2025-12-25 17:35:20.968928,599622243627031326,73.00
2025-12-25 17:35:20.968928,599622243627031326,71.00
2025-12-25 17:35:20.968928,599622243627031326,80.00
2025-12-25 17:35:20.968928,599622243627031326,87.00
2025-12-25 17:35:20.968928,599622243627031326,89.00
2025-12-25 17:35:20.968928,599622243627031326,94.00
2025-12-25 17:35:20.968928,599622243627031326,98.00
2025-12-25 17:35:20.968928,599622243627031326,105.00
2025-12-25 17:35:20.968928,599622243627031326,121.00
2025-12-25 17:35:20.968928,599622243627031326,147.00
2025-12-25 17:35:20.968928,599622243627031326,154.00
2025-12-25 17:35:20.968928,599622243627031326,144.00
2025-12-25 17:35:20.968928,599622243627031326,142.00
2025-12-25 17:35:20.968928,599622243627031326,142.00
2025-12-25 17:35:20.968928,599622243627031326,128.00
2025-12-25 17:35:20.968928,599622243627031326,105.00
2025-12-25 17:35:20.968928,599622243627031326,75.00
2025-12-25 17:35:20.968928,599622243627031326,29.00
2025-12-25 17:35:20.968928,599622243627031326,-16.00
2025-12-25 17:35:20.968928,599622243627031326,-50.00
2025-12-25 17:35:20.968928,599622243627031326,-75.00
2025-12-25 17:35:20.968928,599622243627031326,-87.00
2025-12-25 17:35:20.968928,599622243627031326,-87.00
2025-12-25 17:35:20.968928,599622243627031326,-89.00
2025-12-25 17:35:20.968928,599622243627031326,-98.00
2025-12-25 17:35:20.968928,599622243627031326,-98.00
2025-12-25 17:35:20.968928,599622243627031326,-94.00
2025-12-25 17:35:20.968928,599622243627031326,-91.00
2025-12-25 17:35:20.968928,599622243627031326,-87.00
2025-12-25 17:35:20.968928,599622243627031326,-80.00
2025-12-25 17:35:20.968928,599622243627031326,-75.00
2025-12-25 17:35:20.968928,599622243627031326,-75.00
2025-12-25 17:35:20.968928,599622243627031326,-71.00
2025-12-25 17:35:20.968928,599622243627031326,-66.00
2025-12-25 17:35:20.968928,599622243627031326,-64.00
2025-12-25 17:35:20.968928,599622243627031326,-64.00
2025-12-25 17:35:20.968928,599622243627031326,-68.00
2025-12-25 17:35:20.968928,599622243627031326,-64.00
2025-12-25 17:35:20.968928,599622243627031326,-52.00
2025-12-25 17:35:20.968928,599622243627031326,-50.00
2025-12-25 17:35:20.968928,599622243627031326,-55.00
2025-12-25 17:35:20.968928,599622243627031326,-55.00
2025-12-25 17:35:20.968928,599622243627031326,-57.00
2025-12-25 17:35:20.968928,599622243627031326,-55.00
2025-12-25 17:35:20.968928,599622243627031326,-52.00
2025-12-25 17:35:20.968928,599622243627031326,-55.00
2025-12-25 17:35:20.968928,599622243627031326,-55.00
2025-12-25 17:35:20.968928,599622243627031326,-52.00
2025-12-25 17:35:20.968928,599622243627031326,-52.00
2025-12-25 17:35:20.968928,599622243627031326,-55.00
2025-12-25 17:35:20.968928,599622243627031326,-57.00
2025-12-25 17:35:20.968928,599622243627031326,-59.00
2025-12-25 17:35:20.968928,599622243627031326,-57.00
2025-12-25 17:35:20.968928,599622243627031326,-48.00
2025-12-25 17:35:20.968928,599622243627031326,-36.00
2025-12-25 17:35:20.968928,599622243627031326,-25.00
2025-12-25 17:35:20.968928,599622243627031326,-9.00
2025-12-25 17:35:20.968928,599622243627031326,-16.00
2025-12-25 17:35:20.968928,599622243627031326,-50.00
2025-12-25 17:35:20.968928,599622243627031326,-62.00
2025-12-25 17:35:20.968928,599622243627031326,-50.00
2025-12-25 17:35:20.968928,599622243627031326,-45.00
2025-12-25 17:35:20.968928,599622243627031326,-45.00
2025-12-25 17:35:20.968928,599622243627031326,-41.00
2025-12-25 17:35:20.968928,599622243627031326,-39.00
2025-12-25 17:35:21.469968,599622244187947079,-41.00
2025-12-25 17:35:21.469968,599622244187947079,-41.00
2025-12-25 17:35:21.469968,599622244187947079,-32.00
2025-12-25 17:35:21.469968,599622244187947079,32.00
2025-12-25 17:35:21.469968,599622244187947079,245.00
2025-12-25 17:35:21.469968,599622244187947079,551.00
2025-12-25 17:35:21.469968,599622244187947079,514.00
2025-12-25 17:35:21.469968,599622244187947079,-255.00
2025-12-25 17:35:21.469968,599622244187947079,-1000.00
2025-12-25 17:35:21.469968,599622244187947079,-733.00
2025-12-25 17:35:21.469968,599622244187947079,-114.00
2025-12-25 17:35:21.469968,599622244187947079,9.00
2025-12-25 17:35:21.469968,599622244187947079,-18.00
2025-12-25 17:35:21.469968,599622244187947079,59.00
2025-12-25 17:35:21.469968,599622244187947079,80.00
2025-12-25 17:35:21.469968,599622244187947079,62.00
2025-12-25 17:35:21.469968,599622244187947079,75.00
2025-12-25 17:35:21.469968,599622244187947079,82.00
2025-12-25 17:35:21.469968,599622244187947079,75.00
2025-12-25 17:35:21.469968,599622244187947079,78.00
2025-12-25 17:35:21.469968,599622244187947079,85.00
2025-12-25 17:35:21.469968,599622244187947079,82.00
2025-12-25 17:35:21.469968,599622244187947079,82.00
2025-12-25 17:35:21.469968,599622244187947079,87.00
2025-12-25 17:35:21.469968,599622244187947079,87.00
2025-12-25 17:35:21.469968,599622244187947079,87.00
2025-12-25 17:35:21.469968,599622244187947079,91.00
2025-12-25 17:35:21.469968,599622244187947079,96.00
2025-12-25 17:35:21.469968,599622244187947079,105.00
2025-12-25 17:35:21.469968,599622244187947079,114.00
2025-12-25 17:35:21.469968,599622244187947079,117.00
2025-12-25 17:35:21.469968,599622244187947079,121.00
2025-12-25 17:35:21.469968,599622244187947079,131.00
2025-12-25 17:35:21.469968,599622244187947079,135.00
2025-12-25 17:35:21.469968,599622244187947079,137.00
2025-12-25 17:35:21.469968,599622244187947079,144.00
2025-12-25 17:35:21.469968,599622244187947079,144.00
2025-12-25 17:35:21.469968,599622244187947079,137.00
2025-12-25 17:35:21.469968,599622244187947079,133.00
2025-12-25 17:35:21.469968,599622244187947079,119.00
2025-12-25 17:35:21.469968,599622244187947079,87.00
2025-12-25 17:35:21.469968,599622244187947079,39.00
2025-12-25 17:35:21.469968,599622244187947079,-2.00
2025-12-25 17:35:21.469968,599622244187947079,-34.00
2025-12-25 17:35:21.469968,599622244187947079,-62.00
2025-12-25 17:35:21.469968,599622244187947079,-80.00
2025-12-25 17:35:21.469968,599622244187947079,-85.00
2025-12-25 17:35:21.469968,599622244187947079,-89.00
2025-12-25 17:35:21.469968,599622244187947079,-94.00
2025-12-25 17:35:21.469968,599622244187947079,-91.00
2025-12-25 17:35:21.469968,599622244187947079,-89.00
2025-12-25 17:35:21.469968,599622244187947079,-89.00
2025-12-25 17:35:21.469968,599622244187947079,-89.00
2025-12-25 17:35:21.469968,599622244187947079,-85.00
2025-12-25 17:35:21.469968,599622244187947079,-82.00
2025-12-25 17:35:21.469968,599622244187947079,-82.00
2025-12-25 17:35:21.469968,599622244187947079,-80.00
2025-12-25 17:35:21.469968,599622244187947079,-78.00
2025-12-25 17:35:21.469968,599622244187947079,-71.00
2025-12-25 17:35:21.469968,599622244187947079,-66.00
2025-12-25 17:35:21.469968,599622244187947079,-62.00
2025-12-25 17:35:21.469968,599622244187947079,-52.00
2025-12-25 17:35:21.469968,599622244187947079,-52.00
2025-12-25 17:35:21.469968,599622244187947079,-57.00
2025-12-25 17:35:21.469968,599622244187947079,-57.00
2025-12-25 17:35:21.469968,599622244187947079,-57.00
2025-12-25 17:35:21.469968,599622244187947079,-57.00
2025-12-25 17:35:21.469968,599622244187947079,-55.00
2025-12-25 17:35:21.469968,599622244187947079,-57.00
2025-12-25 17:35:21.469968,599622244187947079,-64.00
2025-12-25 17:35:21.469968,599622244187947079,-66.00
2025-12-25 17:35:21.469968,599622244187947079,-59.00
2025-12-25 17:35:21.469968,599622244187947079,-57.00
2025-12-25 17:35:22.031848,599622244748832316,-57.00
2025-12-25 17:35:22.031848,599622244748832316,-50.00
2025-12-25 17:35:22.031848,599622244748832316,-41.00
2025-12-25 17:35:22.031848,599622244748832316,-32.00
2025-12-25 17:35:22.031848,599622244748832316,-16.00
2025-12-25 17:35:22.031848,599622244748832316,-2.00
2025-12-25 17:35:22.031848,599622244748832316,-11.00
2025-12-25 17:35:22.031848,599622244748832316,-39.00
2025-12-25 17:35:22.031848,599622244748832316,-48.00
2025-12-25 17:35:22.031848,599622244748832316,-45.00
2025-12-25 17:35:22.031848,599622244748832316,-45.00
2025-12-25 17:35:22.031848,599622244748832316,-34.00
2025-12-25 17:35:22.031848,599622244748832316,-25.00
2025-12-25 17:35:22.031848,599622244748832316,-29.00
2025-12-25 17:35:22.031848,599622244748832316,-34.00
2025-12-25 17:35:22.031848,599622244748832316,-27.00
2025-12-25 17:35:22.031848,599622244748832316,2.00
2025-12-25 17:35:22.031848,599622244748832316,133.00
2025-12-25 17:35:22.031848,599622244748832316,427.00
2025-12-25 17:35:22.031848,599622244748832316,639.00
2025-12-25 17:35:22.031848,599622244748832316,225.00
2025-12-25 17:35:22.031848,599622244748832316,-685.00
2025-12-25 17:35:22.031848,599622244748832316,-963.00
2025-12-25 17:35:22.031848,599622244748832316,-390.00
2025-12-25 17:35:22.031848,599622244748832316,2.00
2025-12-25 17:35:22.031848,599622244748832316,-9.00
2025-12-25 17:35:22.031848,599622244748832316,20.00
2025-12-25 17:35:22.031848,599622244748832316,68.00
2025-12-25 17:35:22.031848,599622244748832316,48.00
2025-12-25 17:35:22.031848,599622244748832316,50.00
2025-12-25 17:35:22.031848,599622244748832316,75.00
2025-12-25 17:35:22.031848,599622244748832316,78.00
2025-12-25 17:35:22.031848,599622244748832316,80.00
2025-12-25 17:35:22.031848,599622244748832316,85.00
2025-12-25 17:35:22.031848,599622244748832316,85.00
2025-12-25 17:35:22.031848,599622244748832316,87.00
2025-12-25 17:35:22.031848,599622244748832316,89.00
2025-12-25 17:35:22.031848,599622244748832316,87.00
2025-12-25 17:35:22.031848,599622244748832316,89.00
2025-12-25 17:35:22.031848,599622244748832316,96.00
2025-12-25 17:35:22.031848,599622244748832316,103.00
2025-12-25 17:35:22.031848,599622244748832316,103.00
2025-12-25 17:35:22.031848,599622244748832316,101.00
2025-12-25 17:35:22.031848,599622244748832316,103.00
2025-12-25 17:35:22.031848,599622244748832316,108.00
2025-12-25 17:35:22.031848,599622244748832316,117.00
2025-12-25 17:35:22.031848,599622244748832316,133.00
2025-12-25 17:35:22.031848,599622244748832316,135.00
2025-12-25 17:35:22.031848,599622244748832316,133.00
2025-12-25 17:35:22.031848,599622244748832316,140.00
2025-12-25 17:35:22.031848,599622244748832316,140.00
2025-12-25 17:35:22.031848,599622244748832316,133.00
2025-12-25 17:35:22.031848,599622244748832316,124.00
2025-12-25 17:35:22.031848,599622244748832316,96.00
2025-12-25 17:35:22.031848,599622244748832316,48.00
2025-12-25 17:35:22.031848,599622244748832316,0.00
2025-12-25 17:35:22.031848,599622244748832316,-34.00
2025-12-25 17:35:22.031848,599622244748832316,-62.00
2025-12-25 17:35:22.031848,599622244748832316,-80.00
2025-12-25 17:35:22.031848,599622244748832316,-89.00
2025-12-25 17:35:22.031848,599622244748832316,-91.00
2025-12-25 17:35:22.031848,599622244748832316,-96.00
2025-12-25 17:35:22.031848,599622244748832316,-101.00
2025-12-25 17:35:22.031848,599622244748832316,-98.00
2025-12-25 17:35:22.031848,599622244748832316,-91.00
2025-12-25 17:35:22.031848,599622244748832316,-87.00
2025-12-25 17:35:22.031848,599622244748832316,-91.00
2025-12-25 17:35:22.031848,599622244748832316,-91.00
2025-12-25 17:35:22.031848,599622244748832316,-91.00
2025-12-25 17:35:22.031848,599622244748832316,-89.00
2025-12-25 17:35:22.031848,599622244748832316,-80.00
2025-12-25 17:35:22.031848,599622244748832316,-75.00
2025-12-25 17:35:22.031848,599622244748832316,-80.00
2025-12-25 17:35:22.672635,599622245309748071,-80.00
2025-12-25 17:35:22.672635,599622245309748071,-75.00
2025-12-25 17:35:22.672635,599622245309748071,-73.00
2025-12-25 17:35:22.672635,599622245309748071,-73.00
2025-12-25 17:35:22.672635,599622245309748071,-71.00
2025-12-25 17:35:22.672635,599622245309748071,-75.00
2025-12-25 17:35:22.672635,599622245309748071,-80.00
2025-12-25 17:35:22.672635,599622245309748071,-78.00
2025-12-25 17:35:22.672635,599622245309748071,-68.00
2025-12-25 17:35:22.672635,599622245309748071,-55.00
2025-12-25 17:35:22.672635,599622245309748071,-45.00
2025-12-25 17:35:22.672635,599622245309748071,-55.00
2025-12-25 17:35:22.672635,599622245309748071,-57.00
2025-12-25 17:35:22.672635,599622245309748071,-43.00
2025-12-25 17:35:22.672635,599622245309748071,-27.00
2025-12-25 17:35:22.672635,599622245309748071,-16.00
2025-12-25 17:35:22.672635,599622245309748071,-4.00
2025-12-25 17:35:22.672635,599622245309748071,-9.00
2025-12-25 17:35:22.672635,599622245309748071,-34.00
2025-12-25 17:35:22.672635,599622245309748071,-57.00
2025-12-25 17:35:22.672635,599622245309748071,-59.00
2025-12-25 17:35:22.672635,599622245309748071,-57.00
2025-12-25 17:35:22.672635,599622245309748071,-62.00
2025-12-25 17:35:22.672635,599622245309748071,-59.00
2025-12-25 17:35:22.672635,599622245309748071,-52.00
2025-12-25 17:35:22.672635,599622245309748071,-45.00
2025-12-25 17:35:22.672635,599622245309748071,-43.00
2025-12-25 17:35:22.672635,599622245309748071,-45.00
2025-12-25 17:35:22.672635,599622245309748071,-34.00
2025-12-25 17:35:22.672635,599622245309748071,48.00
2025-12-25 17:35:22.672635,599622245309748071,285.00
2025-12-25 17:35:22.672635,599622245309748071,558.00
2025-12-25 17:35:22.672635,599622245309748071,390.00
2025-12-25 17:35:22.672635,599622245309748071,-436.00
2025-12-25 17:35:22.672635,599622245309748071,-1018.00
2025-12-25 17:35:22.672635,599622245309748071,-625.00
2025-12-25 17:35:22.672635,599622245309748071,-87.00
2025-12-25 17:35:22.672635,599622245309748071,-22.00
2025-12-25 17:35:22.672635,599622245309748071,-18.00
2025-12-25 17:35:22.672635,599622245309748071,50.00
2025-12-25 17:35:22.672635,599622245309748071,43.00
2025-12-25 17:35:22.672635,599622245309748071,29.00
2025-12-25 17:35:22.672635,599622245309748071,55.00
2025-12-25 17:35:22.672635,599622245309748071,66.00
2025-12-25 17:35:22.672635,599622245309748071,64.00
2025-12-25 17:35:22.672635,599622245309748071,68.00
2025-12-25 17:35:22.672635,599622245309748071,71.00
2025-12-25 17:35:22.672635,599622245309748071,73.00
2025-12-25 17:35:22.672635,599622245309748071,73.00
2025-12-25 17:35:22.672635,599622245309748071,75.00
2025-12-25 17:35:22.672635,599622245309748071,85.00
2025-12-25 17:35:22.672635,599622245309748071,87.00
2025-12-25 17:35:22.672635,599622245309748071,85.00
2025-12-25 17:35:22.672635,599622245309748071,85.00
2025-12-25 17:35:22.672635,599622245309748071,91.00
2025-12-25 17:35:22.672635,599622245309748071,98.00
2025-12-25 17:35:22.672635,599622245309748071,108.00
2025-12-25 17:35:22.672635,599622245309748071,110.00
2025-12-25 17:35:22.672635,599622245309748071,110.00
2025-12-25 17:35:22.672635,599622245309748071,119.00
2025-12-25 17:35:22.672635,599622245309748071,128.00
2025-12-25 17:35:22.672635,599622245309748071,126.00
2025-12-25 17:35:22.672635,599622245309748071,124.00
2025-12-25 17:35:22.672635,599622245309748071,124.00
2025-12-25 17:35:22.672635,599622245309748071,110.00
2025-12-25 17:35:22.672635,599622245309748071,85.00
2025-12-25 17:35:22.672635,599622245309748071,45.00
2025-12-25 17:35:22.672635,599622245309748071,0.00
2025-12-25 17:35:22.672635,599622245309748071,-34.00
2025-12-25 17:35:22.672635,599622245309748071,-62.00
2025-12-25 17:35:22.672635,599622245309748071,-85.00
2025-12-25 17:35:22.672635,599622245309748071,-98.00
2025-12-25 17:35:22.672635,599622245309748071,-103.00
2025-12-25 17:35:23.237640,599622245870663824,-103.00
2025-12-25 17:35:23.237640,599622245870663824,-103.00
2025-12-25 17:35:23.237640,599622245870663824,-96.00
2025-12-25 17:35:23.237640,599622245870663824,-91.00
2025-12-25 17:35:23.237640,599622245870663824,-91.00
2025-12-25 17:35:23.237640,599622245870663824,-96.00
2025-12-25 17:35:23.237640,599622245870663824,-96.00
2025-12-25 17:35:23.237640,599622245870663824,-89.00
2025-12-25 17:35:23.237640,599622245870663824,-87.00
2025-12-25 17:35:23.237640,599622245870663824,-85.00
2025-12-25 17:35:23.237640,599622245870663824,-82.00
2025-12-25 17:35:23.237640,599622245870663824,-73.00
2025-12-25 17:35:23.237640,599622245870663824,-59.00
2025-12-25 17:35:23.237640,599622245870663824,-62.00
2025-12-25 17:35:23.237640,599622245870663824,-62.00
2025-12-25 17:35:23.237640,599622245870663824,-57.00
2025-12-25 17:35:23.237640,599622245870663824,-50.00
2025-12-25 17:35:23.237640,599622245870663824,-32.00
2025-12-25 17:35:23.237640,599622245870663824,-18.00
2025-12-25 17:35:23.237640,599622245870663824,-32.00
2025-12-25 17:35:23.237640,599622245870663824,-41.00
2025-12-25 17:35:23.237640,599622245870663824,-36.00
2025-12-25 17:35:23.237640,599622245870663824,-39.00
2025-12-25 17:35:23.237640,599622245870663824,-48.00
2025-12-25 17:35:23.237640,599622245870663824,-45.00
2025-12-25 17:35:23.237640,599622245870663824,-45.00
2025-12-25 17:35:23.237640,599622245870663824,-43.00
2025-12-25 17:35:23.237640,599622245870663824,-32.00
2025-12-25 17:35:23.237640,599622245870663824,-25.00
2025-12-25 17:35:23.237640,599622245870663824,-20.00
2025-12-25 17:35:23.237640,599622245870663824,-16.00
2025-12-25 17:35:23.237640,599622245870663824,-39.00
2025-12-25 17:35:23.237640,599622245870663824,-66.00
2025-12-25 17:35:23.237640,599622245870663824,-64.00
2025-12-25 17:35:23.237640,599622245870663824,-57.00
2025-12-25 17:35:23.237640,599622245870663824,-66.00
2025-12-25 17:35:23.237640,599622245870663824,-71.00
2025-12-25 17:35:23.237640,599622245870663824,-64.00
2025-12-25 17:35:23.237640,599622245870663824,-57.00
2025-12-25 17:35:23.237640,599622245870663824,-59.00
2025-12-25 17:35:23.237640,599622245870663824,-62.00
2025-12-25 17:35:23.237640,599622245870663824,-34.00
2025-12-25 17:35:23.237640,599622245870663824,89.00
2025-12-25 17:35:23.237640,599622245870663824,363.00
2025-12-25 17:35:23.237640,599622245870663824,577.00
2025-12-25 17:35:23.237640,599622245870663824,236.00
2025-12-25 17:35:23.237640,599622245870663824,-629.00
2025-12-25 17:35:23.237640,599622245870663824,-1004.00
2025-12-25 17:35:23.237640,599622245870663824,-544.00
2025-12-25 17:35:23.237640,599622245870663824,-133.00
2025-12-25 17:35:23.237640,599622245870663824,-85.00
2025-12-25 17:35:23.237640,599622245870663824,-36.00
2025-12-25 17:35:23.237640,599622245870663824,13.00
2025-12-25 17:35:23.237640,599622245870663824,-2.00
2025-12-25 17:35:23.237640,599622245870663824,2.00
2025-12-25 17:35:23.237640,599622245870663824,25.00
2025-12-25 17:35:23.237640,599622245870663824,29.00
2025-12-25 17:35:23.237640,599622245870663824,34.00
2025-12-25 17:35:23.237640,599622245870663824,39.00
2025-12-25 17:35:23.237640,599622245870663824,45.00
2025-12-25 17:35:23.237640,599622245870663824,48.00
2025-12-25 17:35:23.237640,599622245870663824,45.00
2025-12-25 17:35:23.237640,599622245870663824,50.00
2025-12-25 17:35:23.237640,599622245870663824,59.00
2025-12-25 17:35:23.237640,599622245870663824,66.00
2025-12-25 17:35:23.237640,599622245870663824,73.00
2025-12-25 17:35:23.237640,599622245870663824,82.00
2025-12-25 17:35:23.237640,599622245870663824,91.00
2025-12-25 17:35:23.237640,599622245870663824,103.00
2025-12-25 17:35:23.237640,599622245870663824,101.00
2025-12-25 17:35:23.237640,599622245870663824,103.00
2025-12-25 17:35:23.237640,599622245870663824,117.00
2025-12-25 17:35:23.237640,599622245870663824,124.00
2025-12-25 17:35:23.736271,599622246431579577,131.00
2025-12-25 17:35:23.736271,599622246431579577,135.00
2025-12-25 17:35:23.736271,599622246431579577,128.00
2025-12-25 17:35:23.736271,599622246431579577,124.00
2025-12-25 17:35:23.736271,599622246431579577,119.00
2025-12-25 17:35:23.736271,599622246431579577,87.00
2025-12-25 17:35:23.736271,599622246431579577,34.00
2025-12-25 17:35:23.736271,599622246431579577,-11.00
2025-12-25 17:35:23.736271,599622246431579577,-45.00
2025-12-25 17:35:23.736271,599622246431579577,-64.00
2025-12-25 17:35:23.736271,599622246431579577,-75.00
2025-12-25 17:35:23.736271,599622246431579577,-94.00
2025-12-25 17:35:23.736271,599622246431579577,-110.00
2025-12-25 17:35:23.736271,599622246431579577,-108.00
2025-12-25 17:35:23.736271,599622246431579577,-96.00
2025-12-25 17:35:23.736271,599622246431579577,-89.00
2025-12-25 17:35:23.736271,599622246431579577,-89.00
2025-12-25 17:35:23.736271,599622246431579577,-89.00
2025-12-25 17:35:23.736271,599622246431579577,-80.00
2025-12-25 17:35:23.736271,599622246431579577,-78.00
2025-12-25 17:35:23.736271,599622246431579577,-78.00
2025-12-25 17:35:23.736271,599622246431579577,-75.00
2025-12-25 17:35:23.736271,599622246431579577,-82.00
2025-12-25 17:35:23.736271,599622246431579577,-82.00
2025-12-25 17:35:23.736271,599622246431579577,-66.00
2025-12-25 17:35:23.736271,599622246431579577,-57.00
2025-12-25 17:35:23.736271,599622246431579577,-59.00
2025-12-25 17:35:23.736271,599622246431579577,-59.00
2025-12-25 17:35:23.736271,599622246431579577,-59.00
2025-12-25 17:35:23.736271,599622246431579577,-64.00
2025-12-25 17:35:23.736271,599622246431579577,-66.00
2025-12-25 17:35:23.736271,599622246431579577,-64.00
2025-12-25 17:35:23.736271,599622246431579577,-66.00
2025-12-25 17:35:23.736271,599622246431579577,-73.00
2025-12-25 17:35:23.736271,599622246431579577,-73.00
2025-12-25 17:35:23.736271,599622246431579577,-66.00
2025-12-25 17:35:23.736271,599622246431579577,-68.00
2025-12-25 17:35:23.736271,599622246431579577,-82.00
2025-12-25 17:35:23.736271,599622246431579577,-78.00
2025-12-25 17:35:23.736271,599622246431579577,-71.00
2025-12-25 17:35:23.736271,599622246431579577,-64.00
2025-12-25 17:35:23.736271,599622246431579577,-52.00
2025-12-25 17:35:23.736271,599622246431579577,-34.00
2025-12-25 17:35:23.736271,599622246431579577,-34.00
2025-12-25 17:35:23.736271,599622246431579577,-62.00
2025-12-25 17:35:23.736271,599622246431579577,-80.00
2025-12-25 17:35:23.736271,599622246431579577,-78.00
2025-12-25 17:35:23.736271,599622246431579577,-78.00
2025-12-25 17:35:23.736271,599622246431579577,-82.00
2025-12-25 17:35:23.736271,599622246431579577,-78.00
2025-12-25 17:35:23.736271,599622246431579577,-75.00
2025-12-25 17:35:23.736271,599622246431579577,-78.00
2025-12-25 17:35:23.736271,599622246431579577,-78.00
2025-12-25 17:35:23.736271,599622246431579577,-66.00
2025-12-25 17:35:23.736271,599622246431579577,6.00
2025-12-25 17:35:23.736271,599622246431579577,241.00
2025-12-25 17:35:23.736271,599622246431579577,570.00
2025-12-25 17:35:23.736271,599622246431579577,526.00
2025-12-25 17:35:23.736271,599622246431579577,-278.00
2025-12-25 17:35:23.736271,599622246431579577,-1075.00
2025-12-25 17:35:23.736271,599622246431579577,-866.00
2025-12-25 17:35:23.736271,599622246431579577,-250.00
2025-12-25 17:35:23.736271,599622246431579577,-75.00
2025-12-25 17:35:23.736271,599622246431579577,-55.00
2025-12-25 17:35:23.736271,599622246431579577,34.00
2025-12-25 17:35:23.736271,599622246431579577,34.00
2025-12-25 17:35:23.736271,599622246431579577,4.00
2025-12-25 17:35:23.736271,599622246431579577,34.00
2025-12-25 17:35:23.736271,599622246431579577,45.00
2025-12-25 17:35:23.736271,599622246431579577,34.00
2025-12-25 17:35:23.736271,599622246431579577,41.00
2025-12-25 17:35:23.736271,599622246431579577,48.00
2025-12-25 17:35:23.736271,599622246431579577,52.00
2025-12-25 17:35:24.311331,599622246992474986,64.00
2025-12-25 17:35:24.311331,599622246992474986,75.00
2025-12-25 17:35:24.311331,599622246992474986,87.00
2025-12-25 17:35:24.311331,599622246992474986,96.00
2025-12-25 17:35:24.311331,599622246992474986,103.00
2025-12-25 17:35:24.311331,599622246992474986,110.00
2025-12-25 17:35:24.311331,599622246992474986,128.00
2025-12-25 17:35:24.311331,599622246992474986,144.00
2025-12-25 17:35:24.311331,599622246992474986,149.00
2025-12-25 17:35:24.311331,599622246992474986,158.00
2025-12-25 17:35:24.311331,599622246992474986,165.00
2025-12-25 17:35:24.311331,599622246992474986,172.00
2025-12-25 17:35:24.311331,599622246992474986,195.00
2025-12-25 17:35:24.311331,599622246992474986,206.00
2025-12-25 17:35:24.311331,599622246992474986,195.00
2025-12-25 17:35:24.311331,599622246992474986,188.00
2025-12-25 17:35:24.311331,599622246992474986,179.00
2025-12-25 17:35:24.311331,599622246992474986,147.00
2025-12-25 17:35:24.311331,599622246992474986,108.00
2025-12-25 17:35:24.311331,599622246992474986,64.00
2025-12-25 17:35:24.311331,599622246992474986,13.00
2025-12-25 17:35:24.311331,599622246992474986,-25.00
2025-12-25 17:35:24.311331,599622246992474986,-45.00
2025-12-25 17:35:24.311331,599622246992474986,-59.00
2025-12-25 17:35:24.311331,599622246992474986,-66.00
2025-12-25 17:35:24.311331,599622246992474986,-68.00
2025-12-25 17:35:24.311331,599622246992474986,-73.00
2025-12-25 17:35:24.311331,599622246992474986,-78.00
2025-12-25 17:35:24.311331,599622246992474986,-78.00
2025-12-25 17:35:24.311331,599622246992474986,-73.00
2025-12-25 17:35:24.311331,599622246992474986,-71.00
2025-12-25 17:35:24.311331,599622246992474986,-73.00
2025-12-25 17:35:24.311331,599622246992474986,-73.00
2025-12-25 17:35:24.311331,599622246992474986,-68.00
2025-12-25 17:35:24.311331,599622246992474986,-64.00
2025-12-25 17:35:24.311331,599622246992474986,-64.00
2025-12-25 17:35:24.311331,599622246992474986,-59.00
2025-12-25 17:35:24.311331,599622246992474986,-57.00
2025-12-25 17:35:24.311331,599622246992474986,-64.00
2025-12-25 17:35:24.311331,599622246992474986,-64.00
2025-12-25 17:35:24.311331,599622246992474986,-59.00
2025-12-25 17:35:24.311331,599622246992474986,-59.00
2025-12-25 17:35:24.311331,599622246992474986,-59.00
2025-12-25 17:35:24.311331,599622246992474986,-57.00
2025-12-25 17:35:24.311331,599622246992474986,-57.00
2025-12-25 17:35:24.311331,599622246992474986,-62.00
2025-12-25 17:35:24.311331,599622246992474986,-66.00
2025-12-25 17:35:24.311331,599622246992474986,-64.00
2025-12-25 17:35:24.311331,599622246992474986,-64.00
2025-12-25 17:35:24.311331,599622246992474986,-64.00
2025-12-25 17:35:24.311331,599622246992474986,-66.00
2025-12-25 17:35:24.311331,599622246992474986,-73.00
2025-12-25 17:35:24.311331,599622246992474986,-75.00
2025-12-25 17:35:24.311331,599622246992474986,-62.00
2025-12-25 17:35:24.311331,599622246992474986,-48.00
2025-12-25 17:35:24.311331,599622246992474986,-34.00
2025-12-25 17:35:24.311331,599622246992474986,-22.00
2025-12-25 17:35:24.311331,599622246992474986,-45.00
2025-12-25 17:35:24.311331,599622246992474986,-75.00
2025-12-25 17:35:24.311331,599622246992474986,-71.00
2025-12-25 17:35:24.311331,599622246992474986,-64.00
2025-12-25 17:35:24.311331,599622246992474986,-73.00
2025-12-25 17:35:24.311331,599622246992474986,-75.00
2025-12-25 17:35:24.311331,599622246992474986,-71.00
2025-12-25 17:35:24.311331,599622246992474986,-75.00
2025-12-25 17:35:24.311331,599622246992474986,-75.00
2025-12-25 17:35:24.311331,599622246992474986,-68.00
2025-12-25 17:35:24.311331,599622246992474986,-41.00
2025-12-25 17:35:24.311331,599622246992474986,85.00
2025-12-25 17:35:24.311331,599622246992474986,406.00
2025-12-25 17:35:24.311331,599622246992474986,678.00
2025-12-25 17:35:24.311331,599622246992474986,268.00
2025-12-25 17:35:24.311331,599622246992474986,-763.00
2025-12-25 17:35:24.812683,599622247553385653,-1124.00
2025-12-25 17:35:24.812683,599622247553385653,-455.00
2025-12-25 17:35:24.812683,599622247553385653,6.00
2025-12-25 17:35:24.812683,599622247553385653,-55.00
2025-12-25 17:35:24.812683,599622247553385653,-22.00
2025-12-25 17:35:24.812683,599622247553385653,59.00
2025-12-25 17:35:24.812683,599622247553385653,29.00
2025-12-25 17:35:24.812683,599622247553385653,29.00
2025-12-25 17:35:24.812683,599622247553385653,66.00
2025-12-25 17:35:24.812683,599622247553385653,68.00
2025-12-25 17:35:24.812683,599622247553385653,75.00
2025-12-25 17:35:24.812683,599622247553385653,89.00
2025-12-25 17:35:24.812683,599622247553385653,85.00
2025-12-25 17:35:24.812683,599622247553385653,78.00
2025-12-25 17:35:24.812683,599622247553385653,89.00
2025-12-25 17:35:24.812683,599622247553385653,98.00
2025-12-25 17:35:24.812683,599622247553385653,105.00
2025-12-25 17:35:24.812683,599622247553385653,110.00
2025-12-25 17:35:24.812683,599622247553385653,117.00
2025-12-25 17:35:24.812683,599622247553385653,124.00
2025-12-25 17:35:24.812683,599622247553385653,131.00
2025-12-25 17:35:24.812683,599622247553385653,140.00
2025-12-25 17:35:24.812683,599622247553385653,151.00
2025-12-25 17:35:24.812683,599622247553385653,160.00
2025-12-25 17:35:24.812683,599622247553385653,165.00
2025-12-25 17:35:24.812683,599622247553385653,170.00
2025-12-25 17:35:24.812683,599622247553385653,172.00
2025-12-25 17:35:24.812683,599622247553385653,177.00
2025-12-25 17:35:24.812683,599622247553385653,172.00
2025-12-25 17:35:24.812683,599622247553385653,160.00
2025-12-25 17:35:24.812683,599622247553385653,135.00
2025-12-25 17:35:24.812683,599622247553385653,101.00
2025-12-25 17:35:24.812683,599622247553385653,52.00
2025-12-25 17:35:24.812683,599622247553385653,4.00
2025-12-25 17:35:24.812683,599622247553385653,-34.00
2025-12-25 17:35:24.812683,599622247553385653,-62.00
2025-12-25 17:35:24.812683,599622247553385653,-80.00
2025-12-25 17:35:24.812683,599622247553385653,-91.00
2025-12-25 17:35:24.812683,599622247553385653,-89.00
2025-12-25 17:35:24.812683,599622247553385653,-85.00
2025-12-25 17:35:24.812683,599622247553385653,-87.00
2025-12-25 17:35:24.812683,599622247553385653,-89.00
2025-12-25 17:35:24.812683,599622247553385653,-89.00
2025-12-25 17:35:24.812683,599622247553385653,-85.00
2025-12-25 17:35:24.812683,599622247553385653,-78.00
2025-12-25 17:35:24.812683,599622247553385653,-78.00
2025-12-25 17:35:24.812683,599622247553385653,-78.00
2025-12-25 17:35:24.812683,599622247553385653,-75.00
2025-12-25 17:35:24.812683,599622247553385653,-73.00
2025-12-25 17:35:24.812683,599622247553385653,-71.00
2025-12-25 17:35:24.812683,599622247553385653,-66.00
2025-12-25 17:35:24.812683,599622247553385653,-66.00
2025-12-25 17:35:24.812683,599622247553385653,-64.00
2025-12-25 17:35:24.812683,599622247553385653,-62.00
2025-12-25 17:35:24.812683,599622247553385653,-64.00
2025-12-25 17:35:24.812683,599622247553385653,-68.00
2025-12-25 17:35:24.812683,599622247553385653,-66.00
2025-12-25 17:35:24.812683,599622247553385653,-66.00
2025-12-25 17:35:24.812683,599622247553385653,-68.00
2025-12-25 17:35:24.812683,599622247553385653,-68.00
2025-12-25 17:35:24.812683,599622247553385653,-59.00
2025-12-25 17:35:24.812683,599622247553385653,-52.00
2025-12-25 17:35:24.812683,599622247553385653,-55.00
2025-12-25 17:35:24.812683,599622247553385653,-57.00
2025-12-25 17:35:24.812683,599622247553385653,-57.00
2025-12-25 17:35:24.812683,599622247553385653,-59.00
2025-12-25 17:35:24.812683,599622247553385653,-64.00
2025-12-25 17:35:24.812683,599622247553385653,-68.00
2025-12-25 17:35:24.812683,599622247553385653,-64.00
2025-12-25 17:35:24.812683,599622247553385653,-62.00
2025-12-25 17:35:24.812683,599622247553385653,-50.00
2025-12-25 17:35:24.812683,599622247553385653,-27.00
2025-12-25 17:35:24.812683,599622247553385653,-9.00
2025-12-25 17:35:25.468034,599622248114296320,-25.00
2025-12-25 17:35:25.468034,599622248114296320,-52.00
2025-12-25 17:35:25.468034,599622248114296320,-57.00
2025-12-25 17:35:25.468034,599622248114296320,-55.00
2025-12-25 17:35:25.468034,599622248114296320,-57.00
2025-12-25 17:35:25.468034,599622248114296320,-57.00
2025-12-25 17:35:25.468034,599622248114296320,-48.00
2025-12-25 17:35:25.468034,599622248114296320,-36.00
2025-12-25 17:35:25.468034,599622248114296320,-36.00
2025-12-25 17:35:25.468034,599622248114296320,-45.00
2025-12-25 17:35:25.468034,599622248114296320,-39.00
2025-12-25 17:35:25.468034,599622248114296320,34.00
2025-12-25 17:35:25.468034,599622248114296320,287.00
2025-12-25 17:35:25.468034,599622248114296320,643.00
2025-12-25 17:35:25.468034,599622248114296320,556.00
2025-12-25 17:35:25.468034,599622248114296320,-358.00
2025-12-25 17:35:25.468034,599622248114296320,-1133.00
2025-12-25 17:35:25.468034,599622248114296320,-733.00
2025-12-25 17:35:25.468034,599622248114296320,-57.00
2025-12-25 17:35:25.468034,599622248114296320,0.00
2025-12-25 17:35:25.468034,599622248114296320,-50.00
2025-12-25 17:35:25.468034,599622248114296320,43.00
2025-12-25 17:35:25.468034,599622248114296320,48.00
2025-12-25 17:35:25.468034,599622248114296320,20.00
2025-12-25 17:35:25.468034,599622248114296320,52.00
2025-12-25 17:35:25.468034,599622248114296320,62.00
2025-12-25 17:35:25.468034,599622248114296320,43.00
2025-12-25 17:35:25.468034,599622248114296320,48.00
2025-12-25 17:35:25.468034,599622248114296320,62.00
2025-12-25 17:35:25.468034,599622248114296320,66.00
2025-12-25 17:35:25.468034,599622248114296320,73.00
2025-12-25 17:35:25.468034,599622248114296320,80.00
2025-12-25 17:35:25.468034,599622248114296320,85.00
2025-12-25 17:35:25.468034,599622248114296320,91.00
2025-12-25 17:35:25.468034,599622248114296320,98.00
2025-12-25 17:35:25.468034,599622248114296320,105.00
2025-12-25 17:35:25.468034,599622248114296320,110.00
2025-12-25 17:35:25.468034,599622248114296320,117.00
2025-12-25 17:35:25.468034,599622248114296320,126.00
2025-12-25 17:35:25.468034,599622248114296320,135.00
2025-12-25 17:35:25.468034,599622248114296320,142.00
2025-12-25 17:35:25.468034,599622248114296320,147.00
2025-12-25 17:35:25.468034,599622248114296320,154.00
2025-12-25 17:35:25.468034,599622248114296320,154.00
2025-12-25 17:35:25.468034,599622248114296320,151.00
2025-12-25 17:35:25.468034,599622248114296320,151.00
2025-12-25 17:35:25.468034,599622248114296320,142.00
2025-12-25 17:35:25.468034,599622248114296320,110.00
2025-12-25 17:35:25.468034,599622248114296320,64.00
2025-12-25 17:35:25.468034,599622248114296320,16.00
2025-12-25 17:35:25.468034,599622248114296320,-29.00
2025-12-25 17:35:25.468034,599622248114296320,-64.00
2025-12-25 17:35:25.468034,599622248114296320,-85.00
2025-12-25 17:35:25.468034,599622248114296320,-82.00
2025-12-25 17:35:25.468034,599622248114296320,-78.00
2025-12-25 17:35:25.468034,599622248114296320,-89.00
2025-12-25 17:35:25.468034,599622248114296320,-94.00
2025-12-25 17:35:25.468034,599622248114296320,-89.00
2025-12-25 17:35:25.468034,599622248114296320,-87.00
2025-12-25 17:35:25.468034,599622248114296320,-82.00
2025-12-25 17:35:25.468034,599622248114296320,-80.00
2025-12-25 17:35:25.468034,599622248114296320,-80.00
2025-12-25 17:35:25.468034,599622248114296320,-75.00
2025-12-25 17:35:25.468034,599622248114296320,-66.00
2025-12-25 17:35:25.468034,599622248114296320,-64.00
2025-12-25 17:35:25.468034,599622248114296320,-62.00
2025-12-25 17:35:25.468034,599622248114296320,-59.00
2025-12-25 17:35:25.468034,599622248114296320,-59.00
2025-12-25 17:35:25.468034,599622248114296320,-64.00
2025-12-25 17:35:25.468034,599622248114296320,-62.00
2025-12-25 17:35:25.468034,599622248114296320,-57.00
2025-12-25 17:35:25.468034,599622248114296320,-55.00
2025-12-25 17:35:25.468034,599622248114296320,-59.00
2025-12-25 17:35:25.990748,599622248675212075,-66.00
2025-12-25 17:35:25.990748,599622248675212075,-66.00
2025-12-25 17:35:25.990748,599622248675212075,-64.00
2025-12-25 17:35:25.990748,599622248675212075,-62.00
2025-12-25 17:35:25.990748,599622248675212075,-66.00
2025-12-25 17:35:25.990748,599622248675212075,-73.00
2025-12-25 17:35:25.990748,599622248675212075,-78.00
2025-12-25 17:35:25.990748,599622248675212075,-73.00
2025-12-25 17:35:25.990748,599622248675212075,-71.00
2025-12-25 17:35:25.990748,599622248675212075,-71.00
2025-12-25 17:35:25.990748,599622248675212075,-68.00
2025-12-25 17:35:25.990748,599622248675212075,-68.00
2025-12-25 17:35:25.990748,599622248675212075,-75.00
2025-12-25 17:35:25.990748,599622248675212075,-78.00
2025-12-25 17:35:25.990748,599622248675212075,-73.00
2025-12-25 17:35:25.990748,599622248675212075,-62.00
2025-12-25 17:35:25.990748,599622248675212075,-50.00
2025-12-25 17:35:25.990748,599622248675212075,-52.00
2025-12-25 17:35:25.990748,599622248675212075,-55.00
2025-12-25 17:35:25.990748,599622248675212075,-52.00
2025-12-25 17:35:25.990748,599622248675212075,-39.00
2025-12-25 17:35:25.990748,599622248675212075,-11.00
2025-12-25 17:35:25.990748,599622248675212075,-6.00
2025-12-25 17:35:25.990748,599622248675212075,-41.00
2025-12-25 17:35:25.990748,599622248675212075,-57.00
2025-12-25 17:35:25.990748,599622248675212075,-45.00
2025-12-25 17:35:25.990748,599622248675212075,-48.00
2025-12-25 17:35:25.990748,599622248675212075,-52.00
2025-12-25 17:35:25.990748,599622248675212075,-43.00
2025-12-25 17:35:25.990748,599622248675212075,-43.00
2025-12-25 17:35:25.990748,599622248675212075,-52.00
2025-12-25 17:35:25.990748,599622248675212075,-55.00
2025-12-25 17:35:25.990748,599622248675212075,-50.00
2025-12-25 17:35:25.990748,599622248675212075,-11.00
2025-12-25 17:35:25.990748,599622248675212075,163.00
2025-12-25 17:35:25.990748,599622248675212075,489.00
2025-12-25 17:35:25.990748,599622248675212075,590.00
2025-12-25 17:35:25.990748,599622248675212075,-64.00
2025-12-25 17:35:25.990748,599622248675212075,-979.00
2025-12-25 17:35:25.990748,599622248675212075,-951.00
2025-12-25 17:35:25.990748,599622248675212075,-264.00
2025-12-25 17:35:25.990748,599622248675212075,-6.00
2025-12-25 17:35:25.990748,599622248675212075,-55.00
2025-12-25 17:35:25.990748,599622248675212075,11.00
2025-12-25 17:35:25.990748,599622248675212075,50.00
2025-12-25 17:35:25.990748,599622248675212075,27.00
2025-12-25 17:35:25.990748,599622248675212075,50.00
2025-12-25 17:35:25.990748,599622248675212075,73.00
2025-12-25 17:35:25.990748,599622248675212075,59.00
2025-12-25 17:35:25.990748,599622248675212075,59.00
2025-12-25 17:35:25.990748,599622248675212075,73.00
2025-12-25 17:35:25.990748,599622248675212075,75.00
2025-12-25 17:35:25.990748,599622248675212075,75.00
2025-12-25 17:35:25.990748,599622248675212075,85.00
2025-12-25 17:35:25.990748,599622248675212075,87.00
2025-12-25 17:35:25.990748,599622248675212075,82.00
2025-12-25 17:35:25.990748,599622248675212075,89.00
2025-12-25 17:35:25.990748,599622248675212075,98.00
2025-12-25 17:35:25.990748,599622248675212075,98.00
2025-12-25 17:35:25.990748,599622248675212075,98.00
2025-12-25 17:35:25.990748,599622248675212075,103.00
2025-12-25 17:35:25.990748,599622248675212075,114.00
2025-12-25 17:35:25.990748,599622248675212075,126.00
2025-12-25 17:35:25.990748,599622248675212075,131.00
2025-12-25 17:35:25.990748,599622248675212075,128.00
2025-12-25 17:35:25.990748,599622248675212075,131.00
2025-12-25 17:35:25.990748,599622248675212075,133.00
2025-12-25 17:35:25.990748,599622248675212075,124.00
2025-12-25 17:35:25.990748,599622248675212075,119.00
2025-12-25 17:35:25.990748,599622248675212075,105.00
2025-12-25 17:35:25.990748,599622248675212075,73.00
2025-12-25 17:35:25.990748,599622248675212075,27.00
2025-12-25 17:35:25.990748,599622248675212075,-16.00
2025-12-25 17:35:26.510117,599622249236127828,-50.00
2025-12-25 17:35:26.510117,599622249236127828,-78.00
2025-12-25 17:35:26.510117,599622249236127828,-94.00
2025-12-25 17:35:26.510117,599622249236127828,-105.00
2025-12-25 17:35:26.510117,599622249236127828,-114.00
2025-12-25 17:35:26.510117,599622249236127828,-114.00
2025-12-25 17:35:26.510117,599622249236127828,-112.00
2025-12-25 17:35:26.510117,599622249236127828,-108.00
2025-12-25 17:35:26.510117,599622249236127828,-103.00
2025-12-25 17:35:26.510117,599622249236127828,-103.00
2025-12-25 17:35:26.510117,599622249236127828,-105.00
2025-12-25 17:35:26.510117,599622249236127828,-101.00
2025-12-25 17:35:26.510117,599622249236127828,-85.00
2025-12-25 17:35:26.510117,599622249236127828,-64.00
2025-12-25 17:35:26.510117,599622249236127828,-55.00
2025-12-25 17:35:26.510117,599622249236127828,-62.00
2025-12-25 17:35:26.510117,599622249236127828,-64.00
2025-12-25 17:35:26.510117,599622249236127828,-62.00
2025-12-25 17:35:26.510117,599622249236127828,-62.00
2025-12-25 17:35:26.510117,599622249236127828,-59.00
2025-12-25 17:35:26.510117,599622249236127828,-59.00
2025-12-25 17:35:26.510117,599622249236127828,-62.00
2025-12-25 17:35:26.510117,599622249236127828,-66.00
2025-12-25 17:35:26.510117,599622249236127828,-68.00
2025-12-25 17:35:26.510117,599622249236127828,-73.00
2025-12-25 17:35:26.510117,599622249236127828,-75.00
2025-12-25 17:35:26.510117,599622249236127828,-73.00
2025-12-25 17:35:26.510117,599622249236127828,-75.00
2025-12-25 17:35:26.510117,599622249236127828,-80.00
2025-12-25 17:35:26.510117,599622249236127828,-80.00
2025-12-25 17:35:26.510117,599622249236127828,-78.00
2025-12-25 17:35:26.510117,599622249236127828,-80.00
2025-12-25 17:35:26.510117,599622249236127828,-80.00
2025-12-25 17:35:26.510117,599622249236127828,-82.00
2025-12-25 17:35:26.510117,599622249236127828,-85.00
2025-12-25 17:35:26.510117,599622249236127828,-85.00
2025-12-25 17:35:26.510117,599622249236127828,-82.00
2025-12-25 17:35:26.510117,599622249236127828,-75.00
2025-12-25 17:35:26.510117,599622249236127828,-66.00
2025-12-25 17:35:26.510117,599622249236127828,-59.00
2025-12-25 17:35:26.510117,599622249236127828,-59.00
2025-12-25 17:35:26.510117,599622249236127828,-64.00
2025-12-25 17:35:26.510117,599622249236127828,-62.00
2025-12-25 17:35:26.510117,599622249236127828,-48.00
2025-12-25 17:35:26.510117,599622249236127828,-36.00
2025-12-25 17:35:26.510117,599622249236127828,-13.00
2025-12-25 17:35:26.510117,599622249236127828,0.00
2025-12-25 17:35:26.510117,599622249236127828,-18.00
2025-12-25 17:35:26.510117,599622249236127828,-48.00
2025-12-25 17:35:26.510117,599622249236127828,-52.00
2025-12-25 17:35:26.510117,599622249236127828,-50.00
2025-12-25 17:35:26.510117,599622249236127828,-57.00
2025-12-25 17:35:26.510117,599622249236127828,-64.00
2025-12-25 17:35:26.510117,599622249236127828,-62.00
2025-12-25 17:35:26.510117,599622249236127828,-59.00
2025-12-25 17:35:26.510117,599622249236127828,-52.00
2025-12-25 17:35:26.510117,599622249236127828,-48.00
2025-12-25 17:35:26.510117,599622249236127828,-34.00
2025-12-25 17:35:26.510117,599622249236127828,43.00
2025-12-25 17:35:26.510117,599622249236127828,289.00
2025-12-25 17:35:26.510117,599622249236127828,590.00
2025-12-25 17:35:26.510117,599622249236127828,432.00
2025-12-25 17:35:26.510117,599622249236127828,-420.00
2025-12-25 17:35:26.510117,599622249236127828,-1029.00
2025-12-25 17:35:26.510117,599622249236127828,-657.00
2025-12-25 17:35:26.510117,599622249236127828,-131.00
2025-12-25 17:35:26.510117,599622249236127828,-48.00
2025-12-25 17:35:26.510117,599622249236127828,-18.00
2025-12-25 17:35:26.510117,599622249236127828,52.00
2025-12-25 17:35:26.510117,599622249236127828,32.00
2025-12-25 17:35:26.510117,599622249236127828,22.00
2025-12-25 17:35:26.510117,599622249236127828,52.00
2025-12-25 17:35:26.510117,599622249236127828,52.00
2025-12-25 17:35:27.099427,599622249797043581,45.00
2025-12-25 17:35:27.099427,599622249797043581,55.00
2025-12-25 17:35:27.099427,599622249797043581,59.00
2025-12-25 17:35:27.099427,599622249797043581,62.00
2025-12-25 17:35:27.099427,599622249797043581,68.00
2025-12-25 17:35:27.099427,599622249797043581,73.00
2025-12-25 17:35:27.099427,599622249797043581,71.00
2025-12-25 17:35:27.099427,599622249797043581,73.00
2025-12-25 17:35:27.099427,599622249797043581,78.00
2025-12-25 17:35:27.099427,599622249797043581,82.00
2025-12-25 17:35:27.099427,599622249797043581,101.00
2025-12-25 17:35:27.099427,599622249797043581,114.00
2025-12-25 17:35:27.099427,599622249797043581,117.00
2025-12-25 17:35:27.099427,599622249797043581,119.00
2025-12-25 17:35:27.099427,599622249797043581,126.00
2025-12-25 17:35:27.099427,599622249797043581,131.00
2025-12-25 17:35:27.099427,599622249797043581,135.00
2025-12-25 17:35:27.099427,599622249797043581,135.00
2025-12-25 17:35:27.099427,599622249797043581,131.00
2025-12-25 17:35:27.099427,599622249797043581,126.00
2025-12-25 17:35:27.099427,599622249797043581,114.00
2025-12-25 17:35:27.099427,599622249797043581,94.00
2025-12-25 17:35:27.099427,599622249797043581,66.00
2025-12-25 17:35:27.099427,599622249797043581,25.00
2025-12-25 17:35:27.099427,599622249797043581,-16.00
2025-12-25 17:35:27.099427,599622249797043581,-43.00
2025-12-25 17:35:27.099427,599622249797043581,-66.00
2025-12-25 17:35:27.099427,599622249797043581,-87.00
2025-12-25 17:35:27.099427,599622249797043581,-94.00
2025-12-25 17:35:27.099427,599622249797043581,-96.00
2025-12-25 17:35:27.099427,599622249797043581,-96.00
2025-12-25 17:35:27.099427,599622249797043581,-87.00
2025-12-25 17:35:27.099427,599622249797043581,-75.00
2025-12-25 17:35:27.099427,599622249797043581,-75.00
2025-12-25 17:35:27.099427,599622249797043581,-78.00
2025-12-25 17:35:27.099427,599622249797043581,-71.00
2025-12-25 17:35:27.099427,599622249797043581,-64.00
2025-12-25 17:35:27.099427,599622249797043581,-62.00
2025-12-25 17:35:27.099427,599622249797043581,-62.00
2025-12-25 17:35:27.099427,599622249797043581,-62.00
2025-12-25 17:35:27.099427,599622249797043581,-57.00
2025-12-25 17:35:27.099427,599622249797043581,-57.00
2025-12-25 17:35:27.099427,599622249797043581,-59.00
2025-12-25 17:35:27.099427,599622249797043581,-59.00
2025-12-25 17:35:27.099427,599622249797043581,-62.00
2025-12-25 17:35:27.099427,599622249797043581,-64.00
2025-12-25 17:35:27.099427,599622249797043581,-62.00
2025-12-25 17:35:27.099427,599622249797043581,-62.00
2025-12-25 17:35:27.099427,599622249797043581,-64.00
2025-12-25 17:35:27.099427,599622249797043581,-62.00
2025-12-25 17:35:27.099427,599622249797043581,-57.00
2025-12-25 17:35:27.099427,599622249797043581,-57.00
2025-12-25 17:35:27.099427,599622249797043581,-62.00
2025-12-25 17:35:27.099427,599622249797043581,-64.00
2025-12-25 17:35:27.099427,599622249797043581,-64.00
2025-12-25 17:35:27.099427,599622249797043581,-62.00
2025-12-25 17:35:27.099427,599622249797043581,-62.00
2025-12-25 17:35:27.099427,599622249797043581,-62.00
2025-12-25 17:35:27.099427,599622249797043581,-64.00
2025-12-25 17:35:27.099427,599622249797043581,-64.00
2025-12-25 17:35:27.099427,599622249797043581,-66.00
2025-12-25 17:35:27.099427,599622249797043581,-64.00
2025-12-25 17:35:27.099427,599622249797043581,-62.00
2025-12-25 17:35:27.099427,599622249797043581,-62.00
2025-12-25 17:35:27.099427,599622249797043581,-64.00
2025-12-25 17:35:27.099427,599622249797043581,-64.00
2025-12-25 17:35:27.099427,599622249797043581,-62.00
2025-12-25 17:35:27.099427,599622249797043581,-55.00
2025-12-25 17:35:27.099427,599622249797043581,-43.00
2025-12-25 17:35:27.099427,599622249797043581,-29.00
2025-12-25 17:35:27.099427,599622249797043581,-13.00
2025-12-25 17:35:27.099427,599622249797043581,2.00
2025-12-25 17:35:27.099427,599622249797043581,11.00
2025-12-25 17:35:27.767991,599622250357938990,-6.00
2025-12-25 17:35:27.767991,599622250357938990,-32.00
2025-12-25 17:35:27.767991,599622250357938990,-32.00
2025-12-25 17:35:27.767991,599622250357938990,-32.00
2025-12-25 17:35:27.767991,599622250357938990,-43.00
2025-12-25 17:35:27.767991,599622250357938990,-43.00
2025-12-25 17:35:27.767991,599622250357938990,-36.00
2025-12-25 17:35:27.767991,599622250357938990,-27.00
2025-12-25 17:35:27.767991,599622250357938990,-18.00
2025-12-25 17:35:27.767991,599622250357938990,-18.00
2025-12-25 17:35:27.767991,599622250357938990,-9.00
2025-12-25 17:35:27.767991,599622250357938990,101.00
2025-12-25 17:35:27.767991,599622250357938990,377.00
2025-12-25 17:35:27.767991,599622250357938990,611.00
2025-12-25 17:35:27.767991,599622250357938990,264.00
2025-12-25 17:35:27.767991,599622250357938990,-634.00
2025-12-25 17:35:27.767991,599622250357938990,-1002.00
2025-12-25 17:35:27.767991,599622250357938990,-473.00
2025-12-25 17:35:27.767991,599622250357938990,-43.00
2025-12-25 17:35:27.767991,599622250357938990,-32.00
2025-12-25 17:35:27.767991,599622250357938990,4.00
2025-12-25 17:35:27.767991,599622250357938990,57.00
2025-12-25 17:35:27.767991,599622250357938990,29.00
2025-12-25 17:35:27.767991,599622250357938990,34.00
2025-12-25 17:35:27.767991,599622250357938990,68.00
2025-12-25 17:35:27.767991,599622250357938990,68.00
2025-12-25 17:35:27.767991,599622250357938990,66.00
2025-12-25 17:35:27.767991,599622250357938990,80.00
2025-12-25 17:35:27.767991,599622250357938990,82.00
2025-12-25 17:35:27.767991,599622250357938990,73.00
2025-12-25 17:35:27.767991,599622250357938990,80.00
2025-12-25 17:35:27.767991,599622250357938990,87.00
2025-12-25 17:35:27.767991,599622250357938990,82.00
2025-12-25 17:35:27.767991,599622250357938990,80.00
2025-12-25 17:35:27.767991,599622250357938990,85.00
2025-12-25 17:35:27.767991,599622250357938990,87.00
2025-12-25 17:35:27.767991,599622250357938990,91.00
2025-12-25 17:35:27.767991,599622250357938990,101.00
2025-12-25 17:35:27.767991,599622250357938990,103.00
2025-12-25 17:35:27.767991,599622250357938990,105.00
2025-12-25 17:35:27.767991,599622250357938990,110.00
2025-12-25 17:35:27.767991,599622250357938990,117.00
2025-12-25 17:35:27.767991,599622250357938990,124.00
2025-12-25 17:35:27.767991,599622250357938990,128.00
2025-12-25 17:35:27.767991,599622250357938990,124.00
2025-12-25 17:35:27.767991,599622250357938990,114.00
2025-12-25 17:35:27.767991,599622250357938990,101.00
2025-12-25 17:35:27.767991,599622250357938990,78.00
2025-12-25 17:35:27.767991,599622250357938990,45.00
2025-12-25 17:35:27.767991,599622250357938990,11.00
2025-12-25 17:35:27.767991,599622250357938990,-27.00
2025-12-25 17:35:27.767991,599622250357938990,-59.00
2025-12-25 17:35:27.767991,599622250357938990,-78.00
2025-12-25 17:35:27.767991,599622250357938990,-89.00
2025-12-25 17:35:27.767991,599622250357938990,-96.00
2025-12-25 17:35:27.767991,599622250357938990,-101.00
2025-12-25 17:35:27.767991,599622250357938990,-108.00
2025-12-25 17:35:27.767991,599622250357938990,-105.00
2025-12-25 17:35:27.767991,599622250357938990,-98.00
2025-12-25 17:35:27.767991,599622250357938990,-87.00
2025-12-25 17:35:27.767991,599622250357938990,-80.00
2025-12-25 17:35:27.767991,599622250357938990,-80.00
2025-12-25 17:35:27.767991,599622250357938990,-78.00
2025-12-25 17:35:27.767991,599622250357938990,-73.00
2025-12-25 17:35:27.767991,599622250357938990,-66.00
2025-12-25 17:35:27.767991,599622250357938990,-64.00
2025-12-25 17:35:27.767991,599622250357938990,-59.00
2025-12-25 17:35:27.767991,599622250357938990,-52.00
2025-12-25 17:35:27.767991,599622250357938990,-52.00
2025-12-25 17:35:27.767991,599622250357938990,-57.00
2025-12-25 17:35:27.767991,599622250357938990,-59.00
2025-12-25 17:35:27.767991,599622250357938990,-57.00
2025-12-25 17:35:27.767991,599622250357938990,-55.00
2025-12-25 17:35:28.275406,599622250918875087,-57.00
2025-12-25 17:35:28.275406,599622250918875087,-57.00
2025-12-25 17:35:28.275406,599622250918875087,-57.00
2025-12-25 17:35:28.275406,599622250918875087,-62.00
2025-12-25 17:35:28.275406,599622250918875087,-64.00
2025-12-25 17:35:28.275406,599622250918875087,-59.00
2025-12-25 17:35:28.275406,599622250918875087,-57.00
2025-12-25 17:35:28.275406,599622250918875087,-55.00
2025-12-25 17:35:28.275406,599622250918875087,-52.00
2025-12-25 17:35:28.275406,599622250918875087,-52.00
2025-12-25 17:35:28.275406,599622250918875087,-41.00
2025-12-25 17:35:28.275406,599622250918875087,-20.00
2025-12-25 17:35:28.275406,599622250918875087,-16.00
2025-12-25 17:35:28.275406,599622250918875087,-25.00
2025-12-25 17:35:28.275406,599622250918875087,-25.00
2025-12-25 17:35:28.275406,599622250918875087,-18.00
2025-12-25 17:35:28.275406,599622250918875087,-6.00
2025-12-25 17:35:28.275406,599622250918875087,0.00
2025-12-25 17:35:28.275406,599622250918875087,0.00
2025-12-25 17:35:28.275406,599622250918875087,-4.00
2025-12-25 17:35:28.275406,599622250918875087,-6.00
2025-12-25 17:35:28.275406,599622250918875087,-11.00
2025-12-25 17:35:28.275406,599622250918875087,0.00
2025-12-25 17:35:28.275406,599622250918875087,22.00
2025-12-25 17:35:28.275406,599622250918875087,32.00
2025-12-25 17:35:28.275406,599622250918875087,36.00
2025-12-25 17:35:28.275406,599622250918875087,48.00
2025-12-25 17:35:28.275406,599622250918875087,36.00
2025-12-25 17:35:28.275406,599622250918875087,20.00
2025-12-25 17:35:28.275406,599622250918875087,25.00
2025-12-25 17:35:28.275406,599622250918875087,20.00
2025-12-25 17:35:28.275406,599622250918875087,4.00
2025-12-25 17:35:28.275406,599622250918875087,0.00
2025-12-25 17:35:28.275406,599622250918875087,-2.00
2025-12-25 17:35:28.275406,599622250918875087,-4.00
2025-12-25 17:35:28.275406,599622250918875087,-4.00
2025-12-25 17:35:28.275406,599622250918875087,-9.00
2025-12-25 17:35:28.275406,599622250918875087,-2.00
2025-12-25 17:35:28.275406,599622250918875087,78.00
2025-12-25 17:35:28.275406,599622250918875087,319.00
2025-12-25 17:35:28.275406,599622250918875087,597.00
2025-12-25 17:35:28.275406,599622250918875087,411.00
2025-12-25 17:35:28.275406,599622250918875087,-436.00
2025-12-25 17:35:28.275406,599622250918875087,-1009.00
2025-12-25 17:35:28.275406,599622250918875087,-604.00
2025-12-25 17:35:28.275406,599622250918875087,-80.00
2025-12-25 17:35:28.275406,599622250918875087,-18.00
2025-12-25 17:35:28.275406,599622250918875087,-11.00
2025-12-25 17:35:28.275406,599622250918875087,55.00
2025-12-25 17:35:28.275406,599622250918875087,43.00
2025-12-25 17:35:28.275406,599622250918875087,34.00
2025-12-25 17:35:28.275406,599622250918875087,59.00
2025-12-25 17:35:28.275406,599622250918875087,62.00
2025-12-25 17:35:28.275406,599622250918875087,57.00
2025-12-25 17:35:28.275406,599622250918875087,64.00
2025-12-25 17:35:28.275406,599622250918875087,64.00
2025-12-25 17:35:28.275406,599622250918875087,62.00
2025-12-25 17:35:28.275406,599622250918875087,64.00
2025-12-25 17:35:28.275406,599622250918875087,66.00
2025-12-25 17:35:28.275406,599622250918875087,66.00
2025-12-25 17:35:28.275406,599622250918875087,71.00
2025-12-25 17:35:28.275406,599622250918875087,73.00
2025-12-25 17:35:28.275406,599622250918875087,73.00
2025-12-25 17:35:28.275406,599622250918875087,80.00
2025-12-25 17:35:28.275406,599622250918875087,87.00
2025-12-25 17:35:28.275406,599622250918875087,91.00
2025-12-25 17:35:28.275406,599622250918875087,94.00
2025-12-25 17:35:28.275406,599622250918875087,98.00
2025-12-25 17:35:28.275406,599622250918875087,108.00
2025-12-25 17:35:28.275406,599622250918875087,112.00
2025-12-25 17:35:28.275406,599622250918875087,112.00
2025-12-25 17:35:28.275406,599622250918875087,112.00
2025-12-25 17:35:28.275406,599622250918875087,110.00
2025-12-25 17:35:28.764751,599622251479760324,94.00
2025-12-25 17:35:28.764751,599622251479760324,71.00
2025-12-25 17:35:28.764751,599622251479760324,45.00
2025-12-25 17:35:28.764751,599622251479760324,13.00
2025-12-25 17:35:28.764751,599622251479760324,-27.00
2025-12-25 17:35:28.764751,599622251479760324,-59.00
2025-12-25 17:35:28.764751,599622251479760324,-78.00
2025-12-25 17:35:28.764751,599622251479760324,-87.00
2025-12-25 17:35:28.764751,599622251479760324,-87.00
2025-12-25 17:35:28.764751,599622251479760324,-85.00
2025-12-25 17:35:28.764751,599622251479760324,-82.00
2025-12-25 17:35:28.764751,599622251479760324,-85.00
2025-12-25 17:35:28.764751,599622251479760324,-82.00
2025-12-25 17:35:28.764751,599622251479760324,-73.00
2025-12-25 17:35:28.764751,599622251479760324,-55.00
2025-12-25 17:35:28.764751,599622251479760324,-48.00
2025-12-25 17:35:28.764751,599622251479760324,-50.00
2025-12-25 17:35:28.764751,599622251479760324,-52.00
2025-12-25 17:35:28.764751,599622251479760324,-48.00
2025-12-25 17:35:28.764751,599622251479760324,-43.00
2025-12-25 17:35:28.764751,599622251479760324,-41.00
2025-12-25 17:35:28.764751,599622251479760324,-41.00
2025-12-25 17:35:28.764751,599622251479760324,-43.00
2025-12-25 17:35:28.764751,599622251479760324,-39.00
2025-12-25 17:35:28.764751,599622251479760324,-32.00
2025-12-25 17:35:28.764751,599622251479760324,-32.00
2025-12-25 17:35:28.764751,599622251479760324,-29.00
2025-12-25 17:35:28.764751,599622251479760324,-25.00
2025-12-25 17:35:28.764751,599622251479760324,-22.00
2025-12-25 17:35:28.764751,599622251479760324,-25.00
2025-12-25 17:35:28.764751,599622251479760324,-29.00
2025-12-25 17:35:28.764751,599622251479760324,-32.00
2025-12-25 17:35:28.764751,599622251479760324,-29.00
2025-12-25 17:35:28.764751,599622251479760324,-29.00
2025-12-25 17:35:28.764751,599622251479760324,-34.00
2025-12-25 17:35:28.764751,599622251479760324,-36.00
2025-12-25 17:35:28.764751,599622251479760324,-36.00
2025-12-25 17:35:28.764751,599622251479760324,-34.00
2025-12-25 17:35:28.764751,599622251479760324,-34.00
2025-12-25 17:35:28.764751,599622251479760324,-36.00
2025-12-25 17:35:28.764751,599622251479760324,-34.00
2025-12-25 17:35:28.764751,599622251479760324,-32.00
2025-12-25 17:35:28.764751,599622251479760324,-27.00
2025-12-25 17:35:28.764751,599622251479760324,-29.00
2025-12-25 17:35:28.764751,599622251479760324,-32.00
2025-12-25 17:35:28.764751,599622251479760324,-32.00
2025-12-25 17:35:28.764751,599622251479760324,-36.00
2025-12-25 17:35:28.764751,599622251479760324,-43.00
2025-12-25 17:35:28.764751,599622251479760324,-39.00
2025-12-25 17:35:28.764751,599622251479760324,-22.00
2025-12-25 17:35:28.764751,599622251479760324,-13.00
2025-12-25 17:35:28.764751,599622251479760324,-2.00
2025-12-25 17:35:28.764751,599622251479760324,4.00
2025-12-25 17:35:28.764751,599622251479760324,-16.00
2025-12-25 17:35:28.764751,599622251479760324,-41.00
2025-12-25 17:35:28.764751,599622251479760324,-45.00
2025-12-25 17:35:28.764751,599622251479760324,-45.00
2025-12-25 17:35:28.764751,599622251479760324,-50.00
2025-12-25 17:35:28.764751,599622251479760324,-50.00
2025-12-25 17:35:28.764751,599622251479760324,-50.00
2025-12-25 17:35:28.764751,599622251479760324,-52.00
2025-12-25 17:35:28.764751,599622251479760324,-55.00
2025-12-25 17:35:28.764751,599622251479760324,-55.00
2025-12-25 17:35:28.764751,599622251479760324,-20.00
2025-12-25 17:35:28.764751,599622251479760324,121.00
2025-12-25 17:35:28.764751,599622251479760324,406.00
2025-12-25 17:35:28.764751,599622251479760324,574.00
2025-12-25 17:35:28.764751,599622251479760324,91.00
2025-12-25 17:35:28.764751,599622251479760324,-788.00
2025-12-25 17:35:28.764751,599622251479760324,-965.00
2025-12-25 17:35:28.764751,599622251479760324,-406.00
2025-12-25 17:35:28.764751,599622251479760324,-75.00
2025-12-25 17:35:28.764751,599622251479760324,-64.00
2025-12-25 17:35:29.330945,599622252040676079,2.00
2025-12-25 17:35:29.330945,599622252040676079,50.00
2025-12-25 17:35:29.330945,599622252040676079,32.00
2025-12-25 17:35:29.330945,599622252040676079,39.00
2025-12-25 17:35:29.330945,599622252040676079,59.00
2025-12-25 17:35:29.330945,599622252040676079,68.00
2025-12-25 17:35:29.330945,599622252040676079,78.00
2025-12-25 17:35:29.330945,599622252040676079,78.00
2025-12-25 17:35:29.330945,599622252040676079,75.00
2025-12-25 17:35:29.330945,599622252040676079,78.00
2025-12-25 17:35:29.330945,599622252040676079,85.00
2025-12-25 17:35:29.330945,599622252040676079,98.00
2025-12-25 17:35:29.330945,599622252040676079,105.00
2025-12-25 17:35:29.330945,599622252040676079,103.00
2025-12-25 17:35:29.330945,599622252040676079,105.00
2025-12-25 17:35:29.330945,599622252040676079,110.00
2025-12-25 17:35:29.330945,599622252040676079,114.00
2025-12-25 17:35:29.330945,599622252040676079,119.00
2025-12-25 17:35:29.330945,599622252040676079,121.00
2025-12-25 17:35:29.330945,599622252040676079,121.00
2025-12-25 17:35:29.330945,599622252040676079,128.00
2025-12-25 17:35:29.330945,599622252040676079,135.00
2025-12-25 17:35:29.330945,599622252040676079,137.00
2025-12-25 17:35:29.330945,599622252040676079,137.00
2025-12-25 17:35:29.330945,599622252040676079,137.00
2025-12-25 17:35:29.330945,599622252040676079,128.00
2025-12-25 17:35:29.330945,599622252040676079,110.00
2025-12-25 17:35:29.330945,599622252040676079,87.00
2025-12-25 17:35:29.330945,599622252040676079,52.00
2025-12-25 17:35:29.330945,599622252040676079,18.00
2025-12-25 17:35:29.330945,599622252040676079,-18.00
2025-12-25 17:35:29.330945,599622252040676079,-48.00
2025-12-25 17:35:29.330945,599622252040676079,-64.00
2025-12-25 17:35:29.330945,599622252040676079,-68.00
2025-12-25 17:35:29.330945,599622252040676079,-75.00
2025-12-25 17:35:29.330945,599622252040676079,-82.00
2025-12-25 17:35:29.330945,599622252040676079,-82.00
2025-12-25 17:35:29.330945,599622252040676079,-87.00
2025-12-25 17:35:29.330945,599622252040676079,-87.00
2025-12-25 17:35:29.330945,599622252040676079,-80.00
2025-12-25 17:35:29.330945,599622252040676079,-73.00
2025-12-25 17:35:29.330945,599622252040676079,-71.00
2025-12-25 17:35:29.330945,599622252040676079,-71.00
2025-12-25 17:35:29.330945,599622252040676079,-73.00
2025-12-25 17:35:29.330945,599622252040676079,-71.00
2025-12-25 17:35:29.330945,599622252040676079,-62.00
2025-12-25 17:35:29.330945,599622252040676079,-57.00
2025-12-25 17:35:29.330945,599622252040676079,-52.00
2025-12-25 17:35:29.330945,599622252040676079,-50.00
2025-12-25 17:35:29.330945,599622252040676079,-48.00
2025-12-25 17:35:29.330945,599622252040676079,-43.00
2025-12-25 17:35:29.330945,599622252040676079,-41.00
2025-12-25 17:35:29.330945,599622252040676079,-41.00
2025-12-25 17:35:29.330945,599622252040676079,-41.00
2025-12-25 17:35:29.330945,599622252040676079,-43.00
2025-12-25 17:35:29.330945,599622252040676079,-48.00
2025-12-25 17:35:29.330945,599622252040676079,-48.00
2025-12-25 17:35:29.330945,599622252040676079,-45.00
2025-12-25 17:35:29.330945,599622252040676079,-45.00
2025-12-25 17:35:29.330945,599622252040676079,-48.00
2025-12-25 17:35:29.330945,599622252040676079,-50.00
2025-12-25 17:35:29.330945,599622252040676079,-52.00
2025-12-25 17:35:29.330945,599622252040676079,-52.00
2025-12-25 17:35:29.330945,599622252040676079,-45.00
2025-12-25 17:35:29.330945,599622252040676079,-39.00
2025-12-25 17:35:29.330945,599622252040676079,-41.00
2025-12-25 17:35:29.330945,599622252040676079,-39.00
2025-12-25 17:35:29.330945,599622252040676079,-32.00
2025-12-25 17:35:29.330945,599622252040676079,-32.00
2025-12-25 17:35:29.330945,599622252040676079,-34.00
2025-12-25 17:35:29.330945,599622252040676079,-29.00
2025-12-25 17:35:29.330945,599622252040676079,-32.00
2025-12-25 17:35:29.330945,599622252040676079,-43.00
2025-12-25 17:35:29.971749,599622252601591832,-45.00
2025-12-25 17:35:29.971749,599622252601591832,-32.00
2025-12-25 17:35:29.971749,599622252601591832,-20.00
2025-12-25 17:35:29.971749,599622252601591832,-6.00
2025-12-25 17:35:29.971749,599622252601591832,4.00
2025-12-25 17:35:29.971749,599622252601591832,-9.00
2025-12-25 17:35:29.971749,599622252601591832,-41.00
2025-12-25 17:35:29.971749,599622252601591832,-48.00
2025-12-25 17:35:29.971749,599622252601591832,-29.00
2025-12-25 17:35:29.971749,599622252601591832,-20.00
2025-12-25 17:35:29.971749,599622252601591832,-27.00
2025-12-25 17:35:29.971749,599622252601591832,-34.00
2025-12-25 17:35:29.971749,599622252601591832,-36.00
2025-12-25 17:35:29.971749,599622252601591832,-39.00
2025-12-25 17:35:29.971749,599622252601591832,-36.00
2025-12-25 17:35:29.971749,599622252601591832,-18.00
2025-12-25 17:35:29.971749,599622252601591832,80.00
2025-12-25 17:35:29.971749,599622252601591832,340.00
2025-12-25 17:35:29.971749,599622252601591832,595.00
2025-12-25 17:35:29.971749,599622252601591832,324.00
2025-12-25 17:35:29.971749,599622252601591832,-551.00
2025-12-25 17:35:29.971749,599622252601591832,-1025.00
2025-12-25 17:35:29.971749,599622252601591832,-574.00
2025-12-25 17:35:29.971749,599622252601591832,-103.00
2025-12-25 17:35:29.971749,599622252601591832,-45.00
2025-12-25 17:35:29.971749,599622252601591832,-2.00
2025-12-25 17:35:29.971749,599622252601591832,57.00
2025-12-25 17:35:29.971749,599622252601591832,32.00
2025-12-25 17:35:29.971749,599622252601591832,27.00
2025-12-25 17:35:29.971749,599622252601591832,50.00
2025-12-25 17:35:29.971749,599622252601591832,48.00
2025-12-25 17:35:29.971749,599622252601591832,43.00
2025-12-25 17:35:29.971749,599622252601591832,52.00
2025-12-25 17:35:29.971749,599622252601591832,55.00
2025-12-25 17:35:29.971749,599622252601591832,55.00
2025-12-25 17:35:29.971749,599622252601591832,57.00
2025-12-25 17:35:29.971749,599622252601591832,57.00
2025-12-25 17:35:29.971749,599622252601591832,62.00
2025-12-25 17:35:29.971749,599622252601591832,71.00
2025-12-25 17:35:29.971749,599622252601591832,73.00
2025-12-25 17:35:29.971749,599622252601591832,73.00
2025-12-25 17:35:29.971749,599622252601591832,78.00
2025-12-25 17:35:29.971749,599622252601591832,85.00
2025-12-25 17:35:29.971749,599622252601591832,89.00
2025-12-25 17:35:29.971749,599622252601591832,98.00
2025-12-25 17:35:29.971749,599622252601591832,105.00
2025-12-25 17:35:29.971749,599622252601591832,110.00
2025-12-25 17:35:29.971749,599622252601591832,112.00
2025-12-25 17:35:29.971749,599622252601591832,112.00
2025-12-25 17:35:29.971749,599622252601591832,114.00
2025-12-25 17:35:29.971749,599622252601591832,114.00
2025-12-25 17:35:29.971749,599622252601591832,98.00
2025-12-25 17:35:29.971749,599622252601591832,73.00
2025-12-25 17:35:29.971749,599622252601591832,45.00
2025-12-25 17:35:29.971749,599622252601591832,11.00
2025-12-25 17:35:29.971749,599622252601591832,-22.00
2025-12-25 17:35:29.971749,599622252601591832,-48.00
2025-12-25 17:35:29.971749,599622252601591832,-68.00
2025-12-25 17:35:29.971749,599622252601591832,-85.00
2025-12-25 17:35:29.971749,599622252601591832,-85.00
2025-12-25 17:35:29.971749,599622252601591832,-75.00
2025-12-25 17:35:29.971749,599622252601591832,-78.00
2025-12-25 17:35:29.971749,599622252601591832,-78.00
2025-12-25 17:35:29.971749,599622252601591832,-78.00
2025-12-25 17:35:29.971749,599622252601591832,-75.00
2025-12-25 17:35:29.971749,599622252601591832,-73.00
2025-12-25 17:35:29.971749,599622252601591832,-71.00
2025-12-25 17:35:29.971749,599622252601591832,-66.00
2025-12-25 17:35:29.971749,599622252601591832,-62.00
2025-12-25 17:35:29.971749,599622252601591832,-59.00
2025-12-25 17:35:29.971749,599622252601591832,-57.00
2025-12-25 17:35:29.971749,599622252601591832,-50.00
2025-12-25 17:35:29.971749,599622252601591832,-45.00
2025-12-25 17:35:30.556705,599622253162522845,-36.00
2025-12-25 17:35:30.556705,599622253162522845,-32.00
2025-12-25 17:35:30.556705,599622253162522845,-34.00
2025-12-25 17:35:30.556705,599622253162522845,-34.00
2025-12-25 17:35:30.556705,599622253162522845,-34.00
2025-12-25 17:35:30.556705,599622253162522845,-34.00
2025-12-25 17:35:30.556705,599622253162522845,-32.00
2025-12-25 17:35:30.556705,599622253162522845,-29.00
2025-12-25 17:35:30.556705,599622253162522845,-34.00
2025-12-25 17:35:30.556705,599622253162522845,-39.00
2025-12-25 17:35:30.556705,599622253162522845,-36.00
2025-12-25 17:35:30.556705,599622253162522845,-25.00
2025-12-25 17:35:30.556705,599622253162522845,-13.00
2025-12-25 17:35:30.556705,599622253162522845,-11.00
2025-12-25 17:35:30.556705,599622253162522845,-16.00
2025-12-25 17:35:30.556705,599622253162522845,-13.00
2025-12-25 17:35:30.556705,599622253162522845,-11.00
2025-12-25 17:35:30.556705,599622253162522845,-2.00
2025-12-25 17:35:30.556705,599622253162522845,9.00
2025-12-25 17:35:30.556705,599622253162522845,4.00
2025-12-25 17:35:30.556705,599622253162522845,-2.00
2025-12-25 17:35:30.556705,599622253162522845,-2.00
2025-12-25 17:35:30.556705,599622253162522845,-6.00
2025-12-25 17:35:30.556705,599622253162522845,-9.00
2025-12-25 17:35:30.556705,599622253162522845,-9.00
2025-12-25 17:35:30.556705,599622253162522845,-13.00
2025-12-25 17:35:30.556705,599622253162522845,-20.00
2025-12-25 17:35:30.556705,599622253162522845,-16.00
2025-12-25 17:35:30.556705,599622253162522845,-4.00
2025-12-25 17:35:30.556705,599622253162522845,9.00
2025-12-25 17:35:30.556705,599622253162522845,22.00
2025-12-25 17:35:30.556705,599622253162522845,16.00
2025-12-25 17:35:30.556705,599622253162522845,-16.00
2025-12-25 17:35:30.556705,599622253162522845,-32.00
2025-12-25 17:35:30.556705,599622253162522845,-29.00
2025-12-25 17:35:30.556705,599622253162522845,-29.00
2025-12-25 17:35:30.556705,599622253162522845,-32.00
2025-12-25 17:35:30.556705,599622253162522845,-34.00
2025-12-25 17:35:30.556705,599622253162522845,-43.00
2025-12-25 17:35:30.556705,599622253162522845,-48.00
2025-12-25 17:35:30.556705,599622253162522845,-45.00
2025-12-25 17:35:30.556705,599622253162522845,-36.00
2025-12-25 17:35:30.556705,599622253162522845,22.00
2025-12-25 17:35:30.556705,599622253162522845,223.00
2025-12-25 17:35:30.556705,599622253162522845,521.00
2025-12-25 17:35:30.556705,599622253162522845,498.00
2025-12-25 17:35:30.556705,599622253162522845,-243.00
2025-12-25 17:35:30.556705,599622253162522845,-997.00
2025-12-25 17:35:30.556705,599622253162522845,-779.00
2025-12-25 17:35:30.556705,599622253162522845,-172.00
2025-12-25 17:35:30.556705,599622253162522845,-20.00
2025-12-25 17:35:30.556705,599622253162522845,-27.00
2025-12-25 17:35:30.556705,599622253162522845,52.00
2025-12-25 17:35:30.556705,599622253162522845,59.00
2025-12-25 17:35:30.556705,599622253162522845,32.00
2025-12-25 17:35:30.556705,599622253162522845,55.00
2025-12-25 17:35:30.556705,599622253162522845,66.00
2025-12-25 17:35:30.556705,599622253162522845,52.00
2025-12-25 17:35:30.556705,599622253162522845,59.00
2025-12-25 17:35:30.556705,599622253162522845,68.00
2025-12-25 17:35:30.556705,599622253162522845,64.00
2025-12-25 17:35:30.556705,599622253162522845,62.00
2025-12-25 17:35:30.556705,599622253162522845,68.00
2025-12-25 17:35:30.556705,599622253162522845,68.00
2025-12-25 17:35:30.556705,599622253162522845,71.00
2025-12-25 17:35:30.556705,599622253162522845,73.00
2025-12-25 17:35:30.556705,599622253162522845,78.00
2025-12-25 17:35:30.556705,599622253162522845,85.00
2025-12-25 17:35:30.556705,599622253162522845,87.00
2025-12-25 17:35:30.556705,599622253162522845,91.00
2025-12-25 17:35:30.556705,599622253162522845,101.00
2025-12-25 17:35:30.556705,599622253162522845,110.00
2025-12-25 17:35:30.556705,599622253162522845,114.00
2025-12-25 17:35:31.048594,599622253723453856,121.00
2025-12-25 17:35:31.048594,599622253723453856,121.00
2025-12-25 17:35:31.048594,599622253723453856,121.00
2025-12-25 17:35:31.048594,599622253723453856,119.00
2025-12-25 17:35:31.048594,599622253723453856,110.00
2025-12-25 17:35:31.048594,599622253723453856,96.00
2025-12-25 17:35:31.048594,599622253723453856,75.00
2025-12-25 17:35:31.048594,599622253723453856,39.00
2025-12-25 17:35:31.048594,599622253723453856,2.00
2025-12-25 17:35:31.048594,599622253723453856,-13.00
2025-12-25 17:35:31.048594,599622253723453856,-34.00
2025-12-25 17:35:31.048594,599622253723453856,-57.00
2025-12-25 17:35:31.048594,599622253723453856,-64.00
2025-12-25 17:35:31.048594,599622253723453856,-64.00
2025-12-25 17:35:31.048594,599622253723453856,-64.00
2025-12-25 17:35:31.048594,599622253723453856,-55.00
2025-12-25 17:35:31.048594,599622253723453856,-48.00
2025-12-25 17:35:31.048594,599622253723453856,-52.00
2025-12-25 17:35:31.048594,599622253723453856,-52.00
2025-12-25 17:35:31.048594,599622253723453856,-48.00
2025-12-25 17:35:31.048594,599622253723453856,-45.00
2025-12-25 17:35:31.048594,599622253723453856,-45.00
2025-12-25 17:35:31.048594,599622253723453856,-43.00
2025-12-25 17:35:31.048594,599622253723453856,-39.00
2025-12-25 17:35:31.048594,599622253723453856,-29.00
2025-12-25 17:35:31.048594,599622253723453856,-29.00
2025-12-25 17:35:31.048594,599622253723453856,-27.00
2025-12-25 17:35:31.048594,599622253723453856,-20.00
2025-12-25 17:35:31.048594,599622253723453856,-20.00
2025-12-25 17:35:31.048594,599622253723453856,-22.00
2025-12-25 17:35:31.048594,599622253723453856,-20.00
2025-12-25 17:35:31.048594,599622253723453856,-20.00
2025-12-25 17:35:31.048594,599622253723453856,-25.00
2025-12-25 17:35:31.048594,599622253723453856,-27.00
2025-12-25 17:35:31.048594,599622253723453856,-29.00
2025-12-25 17:35:31.048594,599622253723453856,-32.00
2025-12-25 17:35:31.048594,599622253723453856,-32.00
2025-12-25 17:35:31.048594,599622253723453856,-27.00
2025-12-25 17:35:31.048594,599622253723453856,-25.00
2025-12-25 17:35:31.048594,599622253723453856,-27.00
2025-12-25 17:35:31.048594,599622253723453856,-32.00
2025-12-25 17:35:31.048594,599622253723453856,-34.00
2025-12-25 17:35:31.048594,599622253723453856,-34.00
2025-12-25 17:35:31.048594,599622253723453856,-34.00
2025-12-25 17:35:31.048594,599622253723453856,-27.00
2025-12-25 17:35:31.048594,599622253723453856,-20.00
2025-12-25 17:35:31.048594,599622253723453856,-27.00
2025-12-25 17:35:31.048594,599622253723453856,-32.00
2025-12-25 17:35:31.048594,599622253723453856,-29.00
2025-12-25 17:35:31.048594,599622253723453856,-32.00
2025-12-25 17:35:31.048594,599622253723453856,-36.00
2025-12-25 17:35:31.048594,599622253723453856,-39.00
2025-12-25 17:35:31.048594,599622253723453856,-34.00
2025-12-25 17:35:31.048594,599622253723453856,-25.00
2025-12-25 17:35:31.048594,599622253723453856,-11.00
2025-12-25 17:35:31.048594,599622253723453856,4.00
2025-12-25 17:35:31.048594,599622253723453856,0.00
2025-12-25 17:35:31.048594,599622253723453856,-32.00
2025-12-25 17:35:31.048594,599622253723453856,-48.00
2025-12-25 17:35:31.048594,599622253723453856,-45.00
2025-12-25 17:35:31.048594,599622253723453856,-52.00
2025-12-25 17:35:31.048594,599622253723453856,-52.00
2025-12-25 17:35:31.048594,599622253723453856,-50.00
2025-12-25 17:35:31.048594,599622253723453856,-55.00
2025-12-25 17:35:31.048594,599622253723453856,-57.00
2025-12-25 17:35:31.048594,599622253723453856,-59.00
2025-12-25 17:35:31.048594,599622253723453856,-55.00
2025-12-25 17:35:31.048594,599622253723453856,6.00
2025-12-25 17:35:31.048594,599622253723453856,213.00
2025-12-25 17:35:31.048594,599622253723453856,519.00
2025-12-25 17:35:31.048594,599622253723453856,503.00
2025-12-25 17:35:31.048594,599622253723453856,-239.00
2025-12-25 17:35:31.048594,599622253723453856,-1004.00
2025-12-25 17:35:31.543417,599622254284369609,-790.00
2025-12-25 17:35:31.543417,599622254284369609,-179.00
2025-12-25 17:35:31.543417,599622254284369609,-25.00
2025-12-25 17:35:31.543417,599622254284369609,-45.00
2025-12-25 17:35:31.543417,599622254284369609,20.00
2025-12-25 17:35:31.543417,599622254284369609,36.00
2025-12-25 17:35:31.543417,599622254284369609,29.00
2025-12-25 17:35:31.543417,599622254284369609,55.00
2025-12-25 17:35:31.543417,599622254284369609,59.00
2025-12-25 17:35:31.543417,599622254284369609,45.00
2025-12-25 17:35:31.543417,599622254284369609,52.00
2025-12-25 17:35:31.543417,599622254284369609,71.00
2025-12-25 17:35:31.543417,599622254284369609,85.00
2025-12-25 17:35:31.543417,599622254284369609,87.00
2025-12-25 17:35:31.543417,599622254284369609,85.00
2025-12-25 17:35:31.543417,599622254284369609,80.00
2025-12-25 17:35:31.543417,599622254284369609,85.00
2025-12-25 17:35:31.543417,599622254284369609,89.00
2025-12-25 17:35:31.543417,599622254284369609,94.00
2025-12-25 17:35:31.543417,599622254284369609,96.00
2025-12-25 17:35:31.543417,599622254284369609,98.00
2025-12-25 17:35:31.543417,599622254284369609,103.00
2025-12-25 17:35:31.543417,599622254284369609,110.00
2025-12-25 17:35:31.543417,599622254284369609,121.00
2025-12-25 17:35:31.543417,599622254284369609,128.00
2025-12-25 17:35:31.543417,599622254284369609,131.00
2025-12-25 17:35:31.543417,599622254284369609,133.00
2025-12-25 17:35:31.543417,599622254284369609,133.00
2025-12-25 17:35:31.543417,599622254284369609,133.00
2025-12-25 17:35:31.543417,599622254284369609,131.00
2025-12-25 17:35:31.543417,599622254284369609,110.00
2025-12-25 17:35:31.543417,599622254284369609,73.00
2025-12-25 17:35:31.543417,599622254284369609,32.00
2025-12-25 17:35:31.543417,599622254284369609,-6.00
2025-12-25 17:35:31.543417,599622254284369609,-41.00
2025-12-25 17:35:31.543417,599622254284369609,-59.00
2025-12-25 17:35:31.543417,599622254284369609,-66.00
2025-12-25 17:35:31.543417,599622254284369609,-68.00
2025-12-25 17:35:31.543417,599622254284369609,-73.00
2025-12-25 17:35:31.543417,599622254284369609,-78.00
2025-12-25 17:35:31.543417,599622254284369609,-78.00
2025-12-25 17:35:31.543417,599622254284369609,-75.00
2025-12-25 17:35:31.543417,599622254284369609,-73.00
2025-12-25 17:35:31.543417,599622254284369609,-73.00
2025-12-25 17:35:31.543417,599622254284369609,-75.00
2025-12-25 17:35:31.543417,599622254284369609,-73.00
2025-12-25 17:35:31.543417,599622254284369609,-68.00
2025-12-25 17:35:31.543417,599622254284369609,-64.00
2025-12-25 17:35:31.543417,599622254284369609,-64.00
2025-12-25 17:35:31.543417,599622254284369609,-62.00
2025-12-25 17:35:31.543417,599622254284369609,-57.00
2025-12-25 17:35:31.543417,599622254284369609,-52.00
2025-12-25 17:35:31.543417,599622254284369609,-48.00
2025-12-25 17:35:31.543417,599622254284369609,-41.00
2025-12-25 17:35:31.543417,599622254284369609,-39.00
2025-12-25 17:35:31.543417,599622254284369609,-41.00
2025-12-25 17:35:31.543417,599622254284369609,-43.00
2025-12-25 17:35:31.543417,599622254284369609,-43.00
2025-12-25 17:35:31.543417,599622254284369609,-43.00
2025-12-25 17:35:31.543417,599622254284369609,-36.00
2025-12-25 17:35:31.543417,599622254284369609,-34.00
2025-12-25 17:35:31.543417,599622254284369609,-34.00
2025-12-25 17:35:31.543417,599622254284369609,-39.00
2025-12-25 17:35:31.543417,599622254284369609,-41.00
2025-12-25 17:35:31.543417,599622254284369609,-41.00
2025-12-25 17:35:31.543417,599622254284369609,-36.00
2025-12-25 17:35:31.543417,599622254284369609,-39.00
2025-12-25 17:35:31.543417,599622254284369609,-43.00
2025-12-25 17:35:31.543417,599622254284369609,-45.00
2025-12-25 17:35:31.543417,599622254284369609,-48.00
2025-12-25 17:35:31.543417,599622254284369609,-48.00
2025-12-25 17:35:31.543417,599622254284369609,-43.00
2025-12-25 17:35:31.543417,599622254284369609,-43.00
2025-12-25 17:35:32.092774,599622254845285362,-48.00
2025-12-25 17:35:32.092774,599622254845285362,-48.00
2025-12-25 17:35:32.092774,599622254845285362,-52.00
2025-12-25 17:35:32.092774,599622254845285362,-55.00
2025-12-25 17:35:32.092774,599622254845285362,-48.00
2025-12-25 17:35:32.092774,599622254845285362,-41.00
2025-12-25 17:35:32.092774,599622254845285362,-36.00
2025-12-25 17:35:32.092774,599622254845285362,-20.00
2025-12-25 17:35:32.092774,599622254845285362,0.00
2025-12-25 17:35:32.092774,599622254845285362,-2.00
2025-12-25 17:35:32.092774,599622254845285362,-20.00
2025-12-25 17:35:32.092774,599622254845285362,-32.00
2025-12-25 17:35:32.092774,599622254845285362,-39.00
2025-12-25 17:35:32.092774,599622254845285362,-43.00
2025-12-25 17:35:32.092774,599622254845285362,-41.00
2025-12-25 17:35:32.092774,599622254845285362,-39.00
2025-12-25 17:35:32.092774,599622254845285362,-43.00
2025-12-25 17:35:32.092774,599622254845285362,-48.00
2025-12-25 17:35:32.092774,599622254845285362,-48.00
2025-12-25 17:35:32.092774,599622254845285362,-34.00
2025-12-25 17:35:32.092774,599622254845285362,50.00
2025-12-25 17:35:32.092774,599622254845285362,294.00
2025-12-25 17:35:32.092774,599622254845285362,572.00
2025-12-25 17:35:32.092774,599622254845285362,397.00
2025-12-25 17:35:32.092774,599622254845285362,-450.00
2025-12-25 17:35:32.092774,599622254845285362,-1041.00
2025-12-25 17:35:32.092774,599622254845285362,-639.00
2025-12-25 17:35:32.092774,599622254845285362,-94.00
2025-12-25 17:35:32.092774,599622254845285362,-22.00
2025-12-25 17:35:32.092774,599622254845285362,-13.00
2025-12-25 17:35:32.092774,599622254845285362,52.00
2025-12-25 17:35:32.092774,599622254845285362,39.00
2025-12-25 17:35:32.092774,599622254845285362,25.00
2025-12-25 17:35:32.092774,599622254845285362,52.00
2025-12-25 17:35:32.092774,599622254845285362,55.00
2025-12-25 17:35:32.092774,599622254845285362,45.00
2025-12-25 17:35:32.092774,599622254845285362,50.00
2025-12-25 17:35:32.092774,599622254845285362,55.00
2025-12-25 17:35:32.092774,599622254845285362,55.00
2025-12-25 17:35:32.092774,599622254845285362,57.00
2025-12-25 17:35:32.092774,599622254845285362,62.00
2025-12-25 17:35:32.092774,599622254845285362,62.00
2025-12-25 17:35:32.092774,599622254845285362,64.00
2025-12-25 17:35:32.092774,599622254845285362,66.00
2025-12-25 17:35:32.092774,599622254845285362,71.00
2025-12-25 17:35:32.092774,599622254845285362,78.00
2025-12-25 17:35:32.092774,599622254845285362,82.00
2025-12-25 17:35:32.092774,599622254845285362,89.00
2025-12-25 17:35:32.092774,599622254845285362,96.00
2025-12-25 17:35:32.092774,599622254845285362,101.00
2025-12-25 17:35:32.092774,599622254845285362,114.00
2025-12-25 17:35:32.092774,599622254845285362,128.00
2025-12-25 17:35:32.092774,599622254845285362,133.00
2025-12-25 17:35:32.092774,599622254845285362,128.00
2025-12-25 17:35:32.092774,599622254845285362,124.00
2025-12-25 17:35:32.092774,599622254845285362,110.00
2025-12-25 17:35:32.092774,599622254845285362,85.00
2025-12-25 17:35:32.092774,599622254845285362,55.00
2025-12-25 17:35:32.092774,599622254845285362,16.00
2025-12-25 17:35:32.092774,599622254845285362,-22.00
2025-12-25 17:35:32.092774,599622254845285362,-52.00
2025-12-25 17:35:32.092774,599622254845285362,-78.00
2025-12-25 17:35:32.092774,599622254845285362,-94.00
2025-12-25 17:35:32.092774,599622254845285362,-101.00
2025-12-25 17:35:32.092774,599622254845285362,-101.00
2025-12-25 17:35:32.092774,599622254845285362,-101.00
2025-12-25 17:35:32.092774,599622254845285362,-101.00
2025-12-25 17:35:32.092774,599622254845285362,-98.00
2025-12-25 17:35:32.092774,599622254845285362,-94.00
2025-12-25 17:35:32.092774,599622254845285362,-89.00
2025-12-25 17:35:32.092774,599622254845285362,-87.00
2025-12-25 17:35:32.092774,599622254845285362,-87.00
2025-12-25 17:35:32.092774,599622254845285362,-82.00
2025-12-25 17:35:32.717588,599622255406196033,-80.00
2025-12-25 17:35:32.717588,599622255406196033,-78.00
2025-12-25 17:35:32.717588,599622255406196033,-73.00
2025-12-25 17:35:32.717588,599622255406196033,-66.00
2025-12-25 17:35:32.717588,599622255406196033,-59.00
2025-12-25 17:35:32.717588,599622255406196033,-52.00
2025-12-25 17:35:32.717588,599622255406196033,-39.00
2025-12-25 17:35:32.717588,599622255406196033,-22.00
2025-12-25 17:35:32.717588,599622255406196033,-25.00
2025-12-25 17:35:32.717588,599622255406196033,-29.00
2025-12-25 17:35:32.717588,599622255406196033,-25.00
2025-12-25 17:35:32.717588,599622255406196033,-16.00
2025-12-25 17:35:32.717588,599622255406196033,-18.00
2025-12-25 17:35:32.717588,599622255406196033,-22.00
2025-12-25 17:35:32.717588,599622255406196033,-25.00
2025-12-25 17:35:32.717588,599622255406196033,-25.00
2025-12-25 17:35:32.717588,599622255406196033,-29.00
2025-12-25 17:35:32.717588,599622255406196033,-32.00
2025-12-25 17:35:32.717588,599622255406196033,-32.00
2025-12-25 17:35:32.717588,599622255406196033,-29.00
2025-12-25 17:35:32.717588,599622255406196033,-32.00
2025-12-25 17:35:32.717588,599622255406196033,-27.00
2025-12-25 17:35:32.717588,599622255406196033,-22.00
2025-12-25 17:35:32.717588,599622255406196033,-25.00
2025-12-25 17:35:32.717588,599622255406196033,-25.00
2025-12-25 17:35:32.717588,599622255406196033,-22.00
2025-12-25 17:35:32.717588,599622255406196033,-29.00
2025-12-25 17:35:32.717588,599622255406196033,-34.00
2025-12-25 17:35:32.717588,599622255406196033,-34.00
2025-12-25 17:35:32.717588,599622255406196033,-36.00
2025-12-25 17:35:32.717588,599622255406196033,-39.00
2025-12-25 17:35:32.717588,599622255406196033,-41.00
2025-12-25 17:35:32.717588,599622255406196033,-34.00
2025-12-25 17:35:32.717588,599622255406196033,-22.00
2025-12-25 17:35:32.717588,599622255406196033,-9.00
2025-12-25 17:35:32.717588,599622255406196033,6.00
2025-12-25 17:35:32.717588,599622255406196033,0.00
2025-12-25 17:35:32.717588,599622255406196033,-32.00
2025-12-25 17:35:32.717588,599622255406196033,-43.00
2025-12-25 17:35:32.717588,599622255406196033,-41.00
2025-12-25 17:35:32.717588,599622255406196033,-50.00
2025-12-25 17:35:32.717588,599622255406196033,-55.00
2025-12-25 17:35:32.717588,599622255406196033,-50.00
2025-12-25 17:35:32.717588,599622255406196033,-48.00
2025-12-25 17:35:32.717588,599622255406196033,-55.00
2025-12-25 17:35:32.717588,599622255406196033,-57.00
2025-12-25 17:35:32.717588,599622255406196033,-45.00
2025-12-25 17:35:32.717588,599622255406196033,25.00
2025-12-25 17:35:32.717588,599622255406196033,236.00
2025-12-25 17:35:32.717588,599622255406196033,526.00
2025-12-25 17:35:32.717588,599622255406196033,471.00
2025-12-25 17:35:32.717588,599622255406196033,-282.00
2025-12-25 17:35:32.717588,599622255406196033,-1000.00
2025-12-25 17:35:32.717588,599622255406196033,-770.00
2025-12-25 17:35:32.717588,599622255406196033,-200.00
2025-12-25 17:35:32.717588,599622255406196033,-57.00
2025-12-25 17:35:32.717588,599622255406196033,-55.00
2025-12-25 17:35:32.717588,599622255406196033,13.00
2025-12-25 17:35:32.717588,599622255406196033,20.00
2025-12-25 17:35:32.717588,599622255406196033,4.00
2025-12-25 17:35:32.717588,599622255406196033,20.00
2025-12-25 17:35:32.717588,599622255406196033,25.00
2025-12-25 17:35:32.717588,599622255406196033,22.00
2025-12-25 17:35:32.717588,599622255406196033,29.00
2025-12-25 17:35:32.717588,599622255406196033,34.00
2025-12-25 17:35:32.717588,599622255406196033,34.00
2025-12-25 17:35:32.717588,599622255406196033,39.00
2025-12-25 17:35:32.717588,599622255406196033,41.00
2025-12-25 17:35:32.717588,599622255406196033,41.00
2025-12-25 17:35:32.717588,599622255406196033,45.00
2025-12-25 17:35:32.717588,599622255406196033,50.00
2025-12-25 17:35:32.717588,599622255406196033,55.00
2025-12-25 17:35:32.717588,599622255406196033,62.00
2025-12-25 17:35:33.268329,599622255967086354,68.00
2025-12-25 17:35:33.268329,599622255967086354,80.00
2025-12-25 17:35:33.268329,599622255967086354,91.00
2025-12-25 17:35:33.268329,599622255967086354,98.00
2025-12-25 17:35:33.268329,599622255967086354,105.00
2025-12-25 17:35:33.268329,599622255967086354,110.00
2025-12-25 17:35:33.268329,599622255967086354,112.00
2025-12-25 17:35:33.268329,599622255967086354,114.00
2025-12-25 17:35:33.268329,599622255967086354,121.00
2025-12-25 17:35:33.268329,599622255967086354,126.00
2025-12-25 17:35:33.268329,599622255967086354,119.00
2025-12-25 17:35:33.268329,599622255967086354,87.00
2025-12-25 17:35:33.268329,599622255967086354,43.00
2025-12-25 17:35:33.268329,599622255967086354,2.00
2025-12-25 17:35:33.268329,599622255967086354,-18.00
2025-12-25 17:35:33.268329,599622255967086354,-27.00
2025-12-25 17:35:33.268329,599622255967086354,-36.00
2025-12-25 17:35:33.268329,599622255967086354,-52.00
2025-12-25 17:35:33.268329,599622255967086354,-64.00
2025-12-25 17:35:33.268329,599622255967086354,-66.00
2025-12-25 17:35:33.268329,599622255967086354,-66.00
2025-12-25 17:35:33.268329,599622255967086354,-62.00
2025-12-25 17:35:33.268329,599622255967086354,-59.00
2025-12-25 17:35:33.268329,599622255967086354,-64.00
2025-12-25 17:35:33.268329,599622255967086354,-68.00
2025-12-25 17:35:33.268329,599622255967086354,-62.00
2025-12-25 17:35:33.268329,599622255967086354,-55.00
2025-12-25 17:35:33.268329,599622255967086354,-52.00
2025-12-25 17:35:33.268329,599622255967086354,-50.00
2025-12-25 17:35:33.268329,599622255967086354,-43.00
2025-12-25 17:35:33.268329,599622255967086354,-43.00
2025-12-25 17:35:33.268329,599622255967086354,-39.00
2025-12-25 17:35:33.268329,599622255967086354,-34.00
2025-12-25 17:35:33.268329,599622255967086354,-29.00
2025-12-25 17:35:33.268329,599622255967086354,-22.00
2025-12-25 17:35:33.268329,599622255967086354,-22.00
2025-12-25 17:35:33.268329,599622255967086354,-29.00
2025-12-25 17:35:33.268329,599622255967086354,-29.00
2025-12-25 17:35:33.268329,599622255967086354,-27.00
2025-12-25 17:35:33.268329,599622255967086354,-25.00
2025-12-25 17:35:33.268329,599622255967086354,-32.00
2025-12-25 17:35:33.268329,599622255967086354,-36.00
2025-12-25 17:35:33.268329,599622255967086354,-39.00
2025-12-25 17:35:33.268329,599622255967086354,-39.00
2025-12-25 17:35:33.268329,599622255967086354,-39.00
2025-12-25 17:35:33.268329,599622255967086354,-39.00
2025-12-25 17:35:33.268329,599622255967086354,-39.00
2025-12-25 17:35:33.268329,599622255967086354,-41.00
2025-12-25 17:35:33.268329,599622255967086354,-48.00
2025-12-25 17:35:33.268329,599622255967086354,-48.00
2025-12-25 17:35:33.268329,599622255967086354,-41.00
2025-12-25 17:35:33.268329,599622255967086354,-36.00
2025-12-25 17:35:33.268329,599622255967086354,-39.00
2025-12-25 17:35:33.268329,599622255967086354,-45.00
2025-12-25 17:35:33.268329,599622255967086354,-52.00
2025-12-25 17:35:33.268329,599622255967086354,-48.00
2025-12-25 17:35:33.268329,599622255967086354,-32.00
2025-12-25 17:35:33.268329,599622255967086354,-18.00
2025-12-25 17:35:33.268329,599622255967086354,-6.00
2025-12-25 17:35:33.268329,599622255967086354,-9.00
2025-12-25 17:35:33.268329,599622255967086354,-34.00
2025-12-25 17:35:33.268329,599622255967086354,-50.00
2025-12-25 17:35:33.268329,599622255967086354,-45.00
2025-12-25 17:35:33.268329,599622255967086354,-43.00
2025-12-25 17:35:33.268329,599622255967086354,-55.00
2025-12-25 17:35:33.268329,599622255967086354,-52.00
2025-12-25 17:35:33.268329,599622255967086354,-43.00
2025-12-25 17:35:33.268329,599622255967086354,-43.00
2025-12-25 17:35:33.268329,599622255967086354,-45.00
2025-12-25 17:35:33.268329,599622255967086354,-36.00
2025-12-25 17:35:33.268329,599622255967086354,4.00
2025-12-25 17:35:33.268329,599622255967086354,177.00
2025-12-25 17:35:33.268329,599622255967086354,487.00
2025-12-25 17:35:33.819060,599622256528002107,565.00
2025-12-25 17:35:33.819060,599622256528002107,-68.00
2025-12-25 17:35:33.819060,599622256528002107,-901.00
2025-12-25 17:35:33.819060,599622256528002107,-869.00
2025-12-25 17:35:33.819060,599622256528002107,-294.00
2025-12-25 17:35:33.819060,599622256528002107,-73.00
2025-12-25 17:35:33.819060,599622256528002107,-52.00
2025-12-25 17:35:33.819060,599622256528002107,39.00
2025-12-25 17:35:33.819060,599622256528002107,55.00
2025-12-25 17:35:33.819060,599622256528002107,22.00
2025-12-25 17:35:33.819060,599622256528002107,41.00
2025-12-25 17:35:33.819060,599622256528002107,57.00
2025-12-25 17:35:33.819060,599622256528002107,57.00
2025-12-25 17:35:33.819060,599622256528002107,75.00
2025-12-25 17:35:33.819060,599622256528002107,85.00
2025-12-25 17:35:33.819060,599622256528002107,73.00
2025-12-25 17:35:33.819060,599622256528002107,78.00
2025-12-25 17:35:33.819060,599622256528002107,87.00
2025-12-25 17:35:33.819060,599622256528002107,87.00
2025-12-25 17:35:33.819060,599622256528002107,91.00
2025-12-25 17:35:33.819060,599622256528002107,96.00
2025-12-25 17:35:33.819060,599622256528002107,98.00
2025-12-25 17:35:33.819060,599622256528002107,98.00
2025-12-25 17:35:33.819060,599622256528002107,105.00
2025-12-25 17:35:33.819060,599622256528002107,112.00
2025-12-25 17:35:33.819060,599622256528002107,126.00
2025-12-25 17:35:33.819060,599622256528002107,135.00
2025-12-25 17:35:33.819060,599622256528002107,140.00
2025-12-25 17:35:33.819060,599622256528002107,140.00
2025-12-25 17:35:33.819060,599622256528002107,144.00
2025-12-25 17:35:33.819060,599622256528002107,151.00
2025-12-25 17:35:33.819060,599622256528002107,151.00
2025-12-25 17:35:33.819060,599622256528002107,140.00
2025-12-25 17:35:33.819060,599622256528002107,117.00
2025-12-25 17:35:33.819060,599622256528002107,85.00
2025-12-25 17:35:33.819060,599622256528002107,41.00
2025-12-25 17:35:33.819060,599622256528002107,2.00
2025-12-25 17:35:33.819060,599622256528002107,-25.00
2025-12-25 17:35:33.819060,599622256528002107,-48.00
2025-12-25 17:35:33.819060,599622256528002107,-68.00
2025-12-25 17:35:33.819060,599622256528002107,-80.00
2025-12-25 17:35:33.819060,599622256528002107,-82.00
2025-12-25 17:35:33.819060,599622256528002107,-80.00
2025-12-25 17:35:33.819060,599622256528002107,-80.00
2025-12-25 17:35:33.819060,599622256528002107,-80.00
2025-12-25 17:35:33.819060,599622256528002107,-78.00
2025-12-25 17:35:33.819060,599622256528002107,-75.00
2025-12-25 17:35:33.819060,599622256528002107,-73.00
2025-12-25 17:35:33.819060,599622256528002107,-68.00
2025-12-25 17:35:33.819060,599622256528002107,-62.00
2025-12-25 17:35:33.819060,599622256528002107,-59.00
2025-12-25 17:35:33.819060,599622256528002107,-62.00
2025-12-25 17:35:33.819060,599622256528002107,-62.00
2025-12-25 17:35:33.819060,599622256528002107,-59.00
2025-12-25 17:35:33.819060,599622256528002107,-50.00
2025-12-25 17:35:33.819060,599622256528002107,-41.00
2025-12-25 17:35:33.819060,599622256528002107,-36.00
2025-12-25 17:35:33.819060,599622256528002107,-29.00
2025-12-25 17:35:33.819060,599622256528002107,-25.00
2025-12-25 17:35:33.819060,599622256528002107,-25.00
2025-12-25 17:35:33.819060,599622256528002107,-20.00
2025-12-25 17:35:33.819060,599622256528002107,-18.00
2025-12-25 17:35:33.819060,599622256528002107,-22.00
2025-12-25 17:35:33.819060,599622256528002107,-27.00
2025-12-25 17:35:33.819060,599622256528002107,-29.00
2025-12-25 17:35:33.819060,599622256528002107,-32.00
2025-12-25 17:35:33.819060,599622256528002107,-29.00
2025-12-25 17:35:33.819060,599622256528002107,-29.00
2025-12-25 17:35:33.819060,599622256528002107,-34.00
2025-12-25 17:35:33.819060,599622256528002107,-32.00
2025-12-25 17:35:33.819060,599622256528002107,-34.00
2025-12-25 17:35:33.819060,599622256528002107,-36.00
2025-12-25 17:35:33.819060,599622256528002107,-27.00
2025-12-25 17:35:34.444542,599622257088917860,-16.00
2025-12-25 17:35:34.444542,599622257088917860,-18.00
2025-12-25 17:35:34.444542,599622257088917860,-25.00
2025-12-25 17:35:34.444542,599622257088917860,-22.00
2025-12-25 17:35:34.444542,599622257088917860,-20.00
2025-12-25 17:35:34.444542,599622257088917860,-25.00
2025-12-25 17:35:34.444542,599622257088917860,-27.00
2025-12-25 17:35:34.444542,599622257088917860,-32.00
2025-12-25 17:35:34.444542,599622257088917860,-36.00
2025-12-25 17:35:34.444542,599622257088917860,-25.00
2025-12-25 17:35:34.444542,599622257088917860,-4.00
2025-12-25 17:35:34.444542,599622257088917860,13.00
2025-12-25 17:35:34.444542,599622257088917860,29.00
2025-12-25 17:35:34.444542,599622257088917860,27.00
2025-12-25 17:35:34.444542,599622257088917860,0.00
2025-12-25 17:35:34.444542,599622257088917860,-20.00
2025-12-25 17:35:34.444542,599622257088917860,-16.00
2025-12-25 17:35:34.444542,599622257088917860,-18.00
2025-12-25 17:35:34.444542,599622257088917860,-22.00
2025-12-25 17:35:34.444542,599622257088917860,-22.00
2025-12-25 17:35:34.444542,599622257088917860,-27.00
2025-12-25 17:35:34.444542,599622257088917860,-32.00
2025-12-25 17:35:34.444542,599622257088917860,-29.00
2025-12-25 17:35:34.444542,599622257088917860,-29.00
2025-12-25 17:35:34.444542,599622257088917860,6.00
2025-12-25 17:35:34.444542,599622257088917860,170.00
2025-12-25 17:35:34.444542,599622257088917860,478.00
2025-12-25 17:35:34.444542,599622257088917860,600.00
2025-12-25 17:35:34.444542,599622257088917860,22.00
2025-12-25 17:35:34.444542,599622257088917860,-855.00
2025-12-25 17:35:34.444542,599622257088917860,-905.00
2025-12-25 17:35:34.444542,599622257088917860,-289.00
2025-12-25 17:35:34.444542,599622257088917860,-22.00
2025-12-25 17:35:34.444542,599622257088917860,-50.00
2025-12-25 17:35:34.444542,599622257088917860,13.00
2025-12-25 17:35:34.444542,599622257088917860,48.00
2025-12-25 17:35:34.444542,599622257088917860,16.00
2025-12-25 17:35:34.444542,599622257088917860,27.00
2025-12-25 17:35:34.444542,599622257088917860,45.00
2025-12-25 17:35:34.444542,599622257088917860,39.00
2025-12-25 17:35:34.444542,599622257088917860,43.00
2025-12-25 17:35:34.444542,599622257088917860,50.00
2025-12-25 17:35:34.444542,599622257088917860,48.00
2025-12-25 17:35:34.444542,599622257088917860,48.00
2025-12-25 17:35:34.444542,599622257088917860,52.00
2025-12-25 17:35:34.444542,599622257088917860,57.00
2025-12-25 17:35:34.444542,599622257088917860,62.00
2025-12-25 17:35:34.444542,599622257088917860,66.00
2025-12-25 17:35:34.444542,599622257088917860,75.00
2025-12-25 17:35:34.444542,599622257088917860,80.00
2025-12-25 17:35:34.444542,599622257088917860,82.00
2025-12-25 17:35:34.444542,599622257088917860,94.00
2025-12-25 17:35:34.444542,599622257088917860,103.00
2025-12-25 17:35:34.444542,599622257088917860,105.00
2025-12-25 17:35:34.444542,599622257088917860,112.00
2025-12-25 17:35:34.444542,599622257088917860,124.00
2025-12-25 17:35:34.444542,599622257088917860,128.00
2025-12-25 17:35:34.444542,599622257088917860,128.00
2025-12-25 17:35:34.444542,599622257088917860,124.00
2025-12-25 17:35:34.444542,599622257088917860,117.00
2025-12-25 17:35:34.444542,599622257088917860,101.00
2025-12-25 17:35:34.444542,599622257088917860,73.00
2025-12-25 17:35:34.444542,599622257088917860,34.00
2025-12-25 17:35:34.444542,599622257088917860,-2.00
2025-12-25 17:35:34.444542,599622257088917860,-39.00
2025-12-25 17:35:34.444542,599622257088917860,-62.00
2025-12-25 17:35:34.444542,599622257088917860,-71.00
2025-12-25 17:35:34.444542,599622257088917860,-73.00
2025-12-25 17:35:34.444542,599622257088917860,-80.00
2025-12-25 17:35:34.444542,599622257088917860,-82.00
2025-12-25 17:35:34.444542,599622257088917860,-82.00
2025-12-25 17:35:34.444542,599622257088917860,-80.00
2025-12-25 17:35:34.444542,599622257088917860,-80.00
2025-12-25 17:35:34.997777,599622257649833613,-78.00
2025-12-25 17:35:34.997777,599622257649833613,-75.00
2025-12-25 17:35:34.997777,599622257649833613,-71.00
2025-12-25 17:35:34.997777,599622257649833613,-66.00
2025-12-25 17:35:34.997777,599622257649833613,-64.00
2025-12-25 17:35:34.997777,599622257649833613,-59.00
2025-12-25 17:35:34.997777,599622257649833613,-52.00
2025-12-25 17:35:34.997777,599622257649833613,-43.00
2025-12-25 17:35:34.997777,599622257649833613,-34.00
2025-12-25 17:35:34.997777,599622257649833613,-32.00
2025-12-25 17:35:34.997777,599622257649833613,-27.00
2025-12-25 17:35:34.997777,599622257649833613,-25.00
2025-12-25 17:35:34.997777,599622257649833613,-27.00
2025-12-25 17:35:34.997777,599622257649833613,-25.00
2025-12-25 17:35:34.997777,599622257649833613,-20.00
2025-12-25 17:35:34.997777,599622257649833613,-25.00
2025-12-25 17:35:34.997777,599622257649833613,-29.00
2025-12-25 17:35:34.997777,599622257649833613,-29.00
2025-12-25 17:35:34.997777,599622257649833613,-25.00
2025-12-25 17:35:34.997777,599622257649833613,-13.00
2025-12-25 17:35:34.997777,599622257649833613,-9.00
2025-12-25 17:35:34.997777,599622257649833613,-16.00
2025-12-25 17:35:34.997777,599622257649833613,-20.00
2025-12-25 17:35:34.997777,599622257649833613,-18.00
2025-12-25 17:35:34.997777,599622257649833613,-20.00
2025-12-25 17:35:34.997777,599622257649833613,-22.00
2025-12-25 17:35:34.997777,599622257649833613,-25.00
2025-12-25 17:35:34.997777,599622257649833613,-27.00
2025-12-25 17:35:34.997777,599622257649833613,-27.00
2025-12-25 17:35:34.997777,599622257649833613,-27.00
2025-12-25 17:35:34.997777,599622257649833613,-29.00
2025-12-25 17:35:34.997777,599622257649833613,-29.00
2025-12-25 17:35:34.997777,599622257649833613,-29.00
2025-12-25 17:35:34.997777,599622257649833613,-34.00
2025-12-25 17:35:34.997777,599622257649833613,-39.00
2025-12-25 17:35:34.997777,599622257649833613,-36.00
2025-12-25 17:35:34.997777,599622257649833613,-39.00
2025-12-25 17:35:34.997777,599622257649833613,-41.00
2025-12-25 17:35:34.997777,599622257649833613,-29.00
2025-12-25 17:35:34.997777,599622257649833613,-11.00
