Timestamp,Device Timestamp (ns),ECG Value (uV)
2025-12-04 01:52:25.603285,599618962373775994,35.00
2025-12-04 01:52:25.603285,599618962373775994,95.00
2025-12-04 01:52:25.603285,599618962373775994,73.00
2025-12-04 01:52:25.603285,599618962373775994,57.00
2025-12-04 01:52:25.603285,599618962373775994,73.00
2025-12-04 01:52:25.603285,599618962373775994,66.00
2025-12-04 01:52:25.603285,599618962373775994,54.00
2025-12-04 01:52:25.603285,599618962373775994,50.00
2025-12-04 01:52:25.603285,599618962373775994,40.00
2025-12-04 01:52:25.603285,599618962373775994,30.00
2025-12-04 01:52:25.603285,599618962373775994,26.00
2025-12-04 01:52:25.603285,599618962373775994,19.00
2025-12-04 01:52:25.603285,599618962373775994,9.00
2025-12-04 01:52:25.603285,599618962373775994,4.00
2025-12-04 01:52:25.603285,599618962373775994,-4.00
2025-12-04 01:52:25.603285,599618962373775994,-16.00
2025-12-04 01:52:25.603285,599618962373775994,-23.00
2025-12-04 01:52:25.603285,599618962373775994,-26.00
2025-12-04 01:52:25.603285,599618962373775994,-35.00
2025-12-04 01:52:25.603285,599618962373775994,-50.00
2025-12-04 01:52:25.603285,599618962373775994,-57.00
2025-12-04 01:52:25.603285,599618962373775994,-57.00
2025-12-04 01:52:25.603285,599618962373775994,-61.00
2025-12-04 01:52:25.603285,599618962373775994,-66.00
2025-12-04 01:52:25.603285,599618962373775994,-64.00
2025-12-04 01:52:25.603285,599618962373775994,-66.00
2025-12-04 01:52:25.603285,599618962373775994,-64.00
2025-12-04 01:52:25.603285,599618962373775994,-59.00
2025-12-04 01:52:25.603285,599618962373775994,-50.00
2025-12-04 01:52:25.603285,599618962373775994,-33.00
2025-12-04 01:52:25.603285,599618962373775994,-16.00
2025-12-04 01:52:25.603285,599618962373775994,-4.00
2025-12-04 01:52:25.603285,599618962373775994,7.00
2025-12-04 01:52:25.603285,599618962373775994,16.00
2025-12-04 01:52:25.603285,599618962373775994,21.00
2025-12-04 01:52:25.603285,599618962373775994,23.00
2025-12-04 01:52:25.603285,599618962373775994,21.00
2025-12-04 01:52:25.603285,599618962373775994,19.00
2025-12-04 01:52:25.603285,599618962373775994,19.00
2025-12-04 01:52:25.603285,599618962373775994,16.00
2025-12-04 01:52:25.603285,599618962373775994,16.00
2025-12-04 01:52:25.603285,599618962373775994,19.00
2025-12-04 01:52:25.603285,599618962373775994,14.00
2025-12-04 01:52:25.603285,599618962373775994,11.00
2025-12-04 01:52:25.603285,599618962373775994,11.00
2025-12-04 01:52:25.603285,599618962373775994,11.00
2025-12-04 01:52:25.603285,599618962373775994,14.00
2025-12-04 01:52:25.603285,599618962373775994,16.00
2025-12-04 01:52:25.603285,599618962373775994,14.00
2025-12-04 01:52:25.603285,599618962373775994,14.00
2025-12-04 01:52:25.603285,599618962373775994,14.00
2025-12-04 01:52:25.603285,599618962373775994,11.00
2025-12-04 01:52:25.603285,599618962373775994,11.00
2025-12-04 01:52:25.603285,599618962373775994,14.00
2025-12-04 01:52:25.603285,599618962373775994,9.00
2025-12-04 01:52:25.603285,599618962373775994,7.00
2025-12-04 01:52:25.603285,599618962373775994,7.00
2025-12-04 01:52:25.603285,599618962373775994,9.00
2025-12-04 01:52:25.603285,599618962373775994,7.00
2025-12-04 01:52:25.603285,599618962373775994,2.00
2025-12-04 01:52:25.603285,599618962373775994,2.00
2025-12-04 01:52:25.603285,599618962373775994,0.00
2025-12-04 01:52:25.603285,599618962373775994,2.00
2025-12-04 01:52:25.603285,599618962373775994,2.00
2025-12-04 01:52:25.603285,599618962373775994,2.00
2025-12-04 01:52:25.603285,599618962373775994,0.00
2025-12-04 01:52:25.603285,599618962373775994,0.00
2025-12-04 01:52:25.603285,599618962373775994,0.00
2025-12-04 01:52:25.603285,599618962373775994,-2.00
2025-12-04 01:52:25.603285,599618962373775994,-7.00
2025-12-04 01:52:25.603285,599618962373775994,-4.00
2025-12-04 01:52:25.603285,599618962373775994,0.00
2025-12-04 01:52:25.603285,599618962373775994,-2.00
2025-12-04 01:52:25.603800,599618962934534073,-9.00
2025-12-04 01:52:25.603800,599618962934534073,-19.00
2025-12-04 01:52:25.603800,599618962934534073,-23.00
2025-12-04 01:52:25.603800,599618962934534073,-23.00
2025-12-04 01:52:25.603800,599618962934534073,-16.00
2025-12-04 01:52:25.603800,599618962934534073,-14.00
2025-12-04 01:52:25.603800,599618962934534073,-14.00
2025-12-04 01:52:25.603800,599618962934534073,-2.00
2025-12-04 01:52:25.603800,599618962934534073,9.00
2025-12-04 01:52:25.603800,599618962934534073,9.00
2025-12-04 01:52:25.603800,599618962934534073,4.00
2025-12-04 01:52:25.603800,599618962934534073,7.00
2025-12-04 01:52:25.603800,599618962934534073,9.00
2025-12-04 01:52:25.603800,599618962934534073,9.00
2025-12-04 01:52:25.603800,599618962934534073,7.00
2025-12-04 01:52:25.603800,599618962934534073,7.00
2025-12-04 01:52:25.603800,599618962934534073,9.00
2025-12-04 01:52:25.603800,599618962934534073,19.00
2025-12-04 01:52:25.603800,599618962934534073,42.00
2025-12-04 01:52:25.603800,599618962934534073,23.00
2025-12-04 01:52:25.603800,599618962934534073,-112.00
2025-12-04 01:52:25.603800,599618962934534073,-357.00
2025-12-04 01:52:25.603800,599618962934534073,-653.00
2025-12-04 01:52:25.603800,599618962934534073,-815.00
2025-12-04 01:52:25.603800,599618962934534073,-567.00
2025-12-04 01:52:25.603800,599618962934534073,-104.00
2025-12-04 01:52:25.603800,599618962934534073,76.00
2025-12-04 01:52:25.603800,599618962934534073,23.00
2025-12-04 01:52:25.603800,599618962934534073,59.00
2025-12-04 01:52:25.603800,599618962934534073,109.00
2025-12-04 01:52:25.603800,599618962934534073,83.00
2025-12-04 01:52:25.603800,599618962934534073,71.00
2025-12-04 01:52:25.603800,599618962934534073,81.00
2025-12-04 01:52:25.603800,599618962934534073,73.00
2025-12-04 01:52:25.603800,599618962934534073,61.00
2025-12-04 01:52:25.603800,599618962934534073,59.00
2025-12-04 01:52:25.603800,599618962934534073,47.00
2025-12-04 01:52:25.603800,599618962934534073,38.00
2025-12-04 01:52:25.603800,599618962934534073,38.00
2025-12-04 01:52:25.603800,599618962934534073,30.00
2025-12-04 01:52:25.603800,599618962934534073,16.00
2025-12-04 01:52:25.603800,599618962934534073,9.00
2025-12-04 01:52:25.603800,599618962934534073,4.00
2025-12-04 01:52:25.603800,599618962934534073,-2.00
2025-12-04 01:52:25.603800,599618962934534073,-14.00
2025-12-04 01:52:25.603800,599618962934534073,-19.00
2025-12-04 01:52:25.603800,599618962934534073,-23.00
2025-12-04 01:52:25.603800,599618962934534073,-33.00
2025-12-04 01:52:25.603800,599618962934534073,-42.00
2025-12-04 01:52:25.603800,599618962934534073,-47.00
2025-12-04 01:52:25.603800,599618962934534073,-54.00
2025-12-04 01:52:25.603800,599618962934534073,-59.00
2025-12-04 01:52:25.603800,599618962934534073,-54.00
2025-12-04 01:52:25.603800,599618962934534073,-54.00
2025-12-04 01:52:25.603800,599618962934534073,-52.00
2025-12-04 01:52:25.603800,599618962934534073,-45.00
2025-12-04 01:52:25.603800,599618962934534073,-38.00
2025-12-04 01:52:25.603800,599618962934534073,-23.00
2025-12-04 01:52:25.603800,599618962934534073,-7.00
2025-12-04 01:52:25.603800,599618962934534073,7.00
2025-12-04 01:52:25.603800,599618962934534073,16.00
2025-12-04 01:52:25.603800,599618962934534073,21.00
2025-12-04 01:52:25.603800,599618962934534073,28.00
2025-12-04 01:52:25.603800,599618962934534073,30.00
2025-12-04 01:52:25.603800,599618962934534073,28.00
2025-12-04 01:52:25.603800,599618962934534073,28.00
2025-12-04 01:52:25.603800,599618962934534073,28.00
2025-12-04 01:52:25.603800,599618962934534073,23.00
2025-12-04 01:52:25.603800,599618962934534073,16.00
2025-12-04 01:52:25.603800,599618962934534073,16.00
2025-12-04 01:52:25.603800,599618962934534073,19.00
2025-12-04 01:52:25.603800,599618962934534073,21.00
2025-12-04 01:52:25.603800,599618962934534073,16.00
2025-12-04 01:52:25.604193,599618963495271804,14.00
2025-12-04 01:52:25.604193,599618963495271804,19.00
2025-12-04 01:52:25.604193,599618963495271804,16.00
2025-12-04 01:52:25.604193,599618963495271804,11.00
2025-12-04 01:52:25.604193,599618963495271804,14.00
2025-12-04 01:52:25.604193,599618963495271804,19.00
2025-12-04 01:52:25.604193,599618963495271804,19.00
2025-12-04 01:52:25.604193,599618963495271804,19.00
2025-12-04 01:52:25.604193,599618963495271804,21.00
2025-12-04 01:52:25.604193,599618963495271804,16.00
2025-12-04 01:52:25.604193,599618963495271804,14.00
2025-12-04 01:52:25.604193,599618963495271804,16.00
2025-12-04 01:52:25.604193,599618963495271804,14.00
2025-12-04 01:52:25.604193,599618963495271804,7.00
2025-12-04 01:52:25.604193,599618963495271804,7.00
2025-12-04 01:52:25.604193,599618963495271804,14.00
2025-12-04 01:52:25.604193,599618963495271804,16.00
2025-12-04 01:52:25.604193,599618963495271804,14.00
2025-12-04 01:52:25.604193,599618963495271804,11.00
2025-12-04 01:52:25.604193,599618963495271804,9.00
2025-12-04 01:52:25.604193,599618963495271804,7.00
2025-12-04 01:52:25.604193,599618963495271804,9.00
2025-12-04 01:52:25.604193,599618963495271804,7.00
2025-12-04 01:52:25.604193,599618963495271804,4.00
2025-12-04 01:52:25.604193,599618963495271804,7.00
2025-12-04 01:52:25.604193,599618963495271804,4.00
2025-12-04 01:52:25.604193,599618963495271804,-4.00
2025-12-04 01:52:25.604193,599618963495271804,-14.00
2025-12-04 01:52:25.604193,599618963495271804,-19.00
2025-12-04 01:52:25.604193,599618963495271804,-14.00
2025-12-04 01:52:25.604193,599618963495271804,-11.00
2025-12-04 01:52:25.604193,599618963495271804,-7.00
2025-12-04 01:52:25.604193,599618963495271804,2.00
2025-12-04 01:52:25.604193,599618963495271804,9.00
2025-12-04 01:52:25.604193,599618963495271804,9.00
2025-12-04 01:52:25.604193,599618963495271804,4.00
2025-12-04 01:52:25.604193,599618963495271804,0.00
2025-12-04 01:52:25.604193,599618963495271804,4.00
2025-12-04 01:52:25.604193,599618963495271804,9.00
2025-12-04 01:52:25.604193,599618963495271804,7.00
2025-12-04 01:52:25.604193,599618963495271804,7.00
2025-12-04 01:52:25.604193,599618963495271804,2.00
2025-12-04 01:52:25.604193,599618963495271804,7.00
2025-12-04 01:52:25.604193,599618963495271804,33.00
2025-12-04 01:52:25.604193,599618963495271804,50.00
2025-12-04 01:52:25.604193,599618963495271804,-23.00
2025-12-04 01:52:25.604193,599618963495271804,-224.00
2025-12-04 01:52:25.604193,599618963495271804,-519.00
2025-12-04 01:52:25.604193,599618963495271804,-794.00
2025-12-04 01:52:25.604193,599618963495271804,-743.00
2025-12-04 01:52:25.604193,599618963495271804,-295.00
2025-12-04 01:52:25.604193,599618963495271804,59.00
2025-12-04 01:52:25.604193,599618963495271804,47.00
2025-12-04 01:52:25.604193,599618963495271804,21.00
2025-12-04 01:52:25.604193,599618963495271804,97.00
2025-12-04 01:52:25.604193,599618963495271804,102.00
2025-12-04 01:52:25.604193,599618963495271804,69.00
2025-12-04 01:52:25.604193,599618963495271804,76.00
2025-12-04 01:52:25.604193,599618963495271804,76.00
2025-12-04 01:52:25.604193,599618963495271804,61.00
2025-12-04 01:52:25.604193,599618963495271804,54.00
2025-12-04 01:52:25.604193,599618963495271804,50.00
2025-12-04 01:52:25.604193,599618963495271804,40.00
2025-12-04 01:52:25.604193,599618963495271804,28.00
2025-12-04 01:52:25.604193,599618963495271804,19.00
2025-12-04 01:52:25.604193,599618963495271804,11.00
2025-12-04 01:52:25.604193,599618963495271804,2.00
2025-12-04 01:52:25.604193,599618963495271804,-4.00
2025-12-04 01:52:25.604193,599618963495271804,-9.00
2025-12-04 01:52:25.604193,599618963495271804,-11.00
2025-12-04 01:52:25.604193,599618963495271804,-21.00
2025-12-04 01:52:25.604193,599618963495271804,-38.00
2025-12-04 01:52:25.604193,599618963495271804,-42.00
2025-12-04 01:52:25.655377,599618964056019709,-47.00
2025-12-04 01:52:25.655377,599618964056019709,-59.00
2025-12-04 01:52:25.655377,599618964056019709,-66.00
2025-12-04 01:52:25.655377,599618964056019709,-66.00
2025-12-04 01:52:25.655377,599618964056019709,-69.00
2025-12-04 01:52:25.655377,599618964056019709,-66.00
2025-12-04 01:52:25.655377,599618964056019709,-64.00
2025-12-04 01:52:25.655377,599618964056019709,-64.00
2025-12-04 01:52:25.655377,599618964056019709,-50.00
2025-12-04 01:52:25.655377,599618964056019709,-26.00
2025-12-04 01:52:25.655377,599618964056019709,-16.00
2025-12-04 01:52:25.655377,599618964056019709,-4.00
2025-12-04 01:52:25.655377,599618964056019709,14.00
2025-12-04 01:52:25.655377,599618964056019709,26.00
2025-12-04 01:52:25.655377,599618964056019709,26.00
2025-12-04 01:52:25.655377,599618964056019709,23.00
2025-12-04 01:52:25.655377,599618964056019709,23.00
2025-12-04 01:52:25.655377,599618964056019709,23.00
2025-12-04 01:52:25.655377,599618964056019709,19.00
2025-12-04 01:52:25.655377,599618964056019709,16.00
2025-12-04 01:52:25.655377,599618964056019709,19.00
2025-12-04 01:52:25.655377,599618964056019709,21.00
2025-12-04 01:52:25.655377,599618964056019709,11.00
2025-12-04 01:52:25.655377,599618964056019709,9.00
2025-12-04 01:52:25.655377,599618964056019709,14.00
2025-12-04 01:52:25.655377,599618964056019709,14.00
2025-12-04 01:52:25.655377,599618964056019709,14.00
2025-12-04 01:52:25.655377,599618964056019709,16.00
2025-12-04 01:52:25.655377,599618964056019709,14.00
2025-12-04 01:52:25.655377,599618964056019709,11.00
2025-12-04 01:52:25.655377,599618964056019709,16.00
2025-12-04 01:52:25.655377,599618964056019709,16.00
2025-12-04 01:52:25.655377,599618964056019709,11.00
2025-12-04 01:52:25.655377,599618964056019709,11.00
2025-12-04 01:52:25.655377,599618964056019709,11.00
2025-12-04 01:52:25.655377,599618964056019709,7.00
2025-12-04 01:52:25.655377,599618964056019709,7.00
2025-12-04 01:52:25.655377,599618964056019709,9.00
2025-12-04 01:52:25.655377,599618964056019709,11.00
2025-12-04 01:52:25.655377,599618964056019709,11.00
2025-12-04 01:52:25.655377,599618964056019709,7.00
2025-12-04 01:52:25.655377,599618964056019709,2.00
2025-12-04 01:52:25.655377,599618964056019709,0.00
2025-12-04 01:52:25.655377,599618964056019709,0.00
2025-12-04 01:52:25.655377,599618964056019709,2.00
2025-12-04 01:52:25.655377,599618964056019709,7.00
2025-12-04 01:52:25.655377,599618964056019709,4.00
2025-12-04 01:52:25.655377,599618964056019709,0.00
2025-12-04 01:52:25.655377,599618964056019709,-2.00
2025-12-04 01:52:25.655377,599618964056019709,-9.00
2025-12-04 01:52:25.655377,599618964056019709,-23.00
2025-12-04 01:52:25.655377,599618964056019709,-23.00
2025-12-04 01:52:25.655377,599618964056019709,-14.00
2025-12-04 01:52:25.655377,599618964056019709,-11.00
2025-12-04 01:52:25.655377,599618964056019709,-11.00
2025-12-04 01:52:25.655377,599618964056019709,-2.00
2025-12-04 01:52:25.655377,599618964056019709,4.00
2025-12-04 01:52:25.655377,599618964056019709,4.00
2025-12-04 01:52:25.655377,599618964056019709,2.00
2025-12-04 01:52:25.655377,599618964056019709,2.00
2025-12-04 01:52:25.655377,599618964056019709,4.00
2025-12-04 01:52:25.655377,599618964056019709,2.00
2025-12-04 01:52:25.655377,599618964056019709,-2.00
2025-12-04 01:52:25.655377,599618964056019709,0.00
2025-12-04 01:52:25.655377,599618964056019709,7.00
2025-12-04 01:52:25.655377,599618964056019709,19.00
2025-12-04 01:52:25.655377,599618964056019709,45.00
2025-12-04 01:52:25.655377,599618964056019709,14.00
2025-12-04 01:52:25.655377,599618964056019709,-154.00
2025-12-04 01:52:25.655377,599618964056019709,-445.00
2025-12-04 01:52:25.655377,599618964056019709,-765.00
2025-12-04 01:52:25.655377,599618964056019709,-858.00
2025-12-04 01:52:25.655377,599618964056019709,-493.00
2025-12-04 01:52:26.216053,599618964616747268,-11.00
2025-12-04 01:52:26.216053,599618964616747268,85.00
2025-12-04 01:52:26.216053,599618964616747268,14.00
2025-12-04 01:52:26.216053,599618964616747268,71.00
2025-12-04 01:52:26.216053,599618964616747268,114.00
2025-12-04 01:52:26.216053,599618964616747268,83.00
2025-12-04 01:52:26.216053,599618964616747268,78.00
2025-12-04 01:52:26.216053,599618964616747268,85.00
2025-12-04 01:52:26.216053,599618964616747268,71.00
2025-12-04 01:52:26.216053,599618964616747268,61.00
2025-12-04 01:52:26.216053,599618964616747268,57.00
2025-12-04 01:52:26.216053,599618964616747268,42.00
2025-12-04 01:52:26.216053,599618964616747268,35.00
2025-12-04 01:52:26.216053,599618964616747268,30.00
2025-12-04 01:52:26.216053,599618964616747268,21.00
2025-12-04 01:52:26.216053,599618964616747268,16.00
2025-12-04 01:52:26.216053,599618964616747268,14.00
2025-12-04 01:52:26.216053,599618964616747268,2.00
2025-12-04 01:52:26.216053,599618964616747268,-11.00
2025-12-04 01:52:26.216053,599618964616747268,-16.00
2025-12-04 01:52:26.216053,599618964616747268,-21.00
2025-12-04 01:52:26.216053,599618964616747268,-33.00
2025-12-04 01:52:26.216053,599618964616747268,-45.00
2025-12-04 01:52:26.216053,599618964616747268,-52.00
2025-12-04 01:52:26.216053,599618964616747268,-59.00
2025-12-04 01:52:26.216053,599618964616747268,-59.00
2025-12-04 01:52:26.216053,599618964616747268,-59.00
2025-12-04 01:52:26.216053,599618964616747268,-64.00
2025-12-04 01:52:26.216053,599618964616747268,-61.00
2025-12-04 01:52:26.216053,599618964616747268,-57.00
2025-12-04 01:52:26.216053,599618964616747268,-47.00
2025-12-04 01:52:26.216053,599618964616747268,-33.00
2025-12-04 01:52:26.216053,599618964616747268,-14.00
2025-12-04 01:52:26.216053,599618964616747268,2.00
2025-12-04 01:52:26.216053,599618964616747268,14.00
2025-12-04 01:52:26.216053,599618964616747268,23.00
2025-12-04 01:52:26.216053,599618964616747268,30.00
2025-12-04 01:52:26.216053,599618964616747268,33.00
2025-12-04 01:52:26.216053,599618964616747268,30.00
2025-12-04 01:52:26.216053,599618964616747268,28.00
2025-12-04 01:52:26.216053,599618964616747268,23.00
2025-12-04 01:52:26.216053,599618964616747268,21.00
2025-12-04 01:52:26.216053,599618964616747268,19.00
2025-12-04 01:52:26.216053,599618964616747268,11.00
2025-12-04 01:52:26.216053,599618964616747268,9.00
2025-12-04 01:52:26.216053,599618964616747268,9.00
2025-12-04 01:52:26.216053,599618964616747268,11.00
2025-12-04 01:52:26.216053,599618964616747268,14.00
2025-12-04 01:52:26.216053,599618964616747268,14.00
2025-12-04 01:52:26.216053,599618964616747268,14.00
2025-12-04 01:52:26.216053,599618964616747268,11.00
2025-12-04 01:52:26.216053,599618964616747268,9.00
2025-12-04 01:52:26.216053,599618964616747268,14.00
2025-12-04 01:52:26.216053,599618964616747268,16.00
2025-12-04 01:52:26.216053,599618964616747268,9.00
2025-12-04 01:52:26.216053,599618964616747268,4.00
2025-12-04 01:52:26.216053,599618964616747268,11.00
2025-12-04 01:52:26.216053,599618964616747268,14.00
2025-12-04 01:52:26.216053,599618964616747268,11.00
2025-12-04 01:52:26.216053,599618964616747268,9.00
2025-12-04 01:52:26.216053,599618964616747268,7.00
2025-12-04 01:52:26.216053,599618964616747268,7.00
2025-12-04 01:52:26.216053,599618964616747268,2.00
2025-12-04 01:52:26.216053,599618964616747268,0.00
2025-12-04 01:52:26.216053,599618964616747268,2.00
2025-12-04 01:52:26.216053,599618964616747268,0.00
2025-12-04 01:52:26.216053,599618964616747268,-2.00
2025-12-04 01:52:26.216053,599618964616747268,0.00
2025-12-04 01:52:26.216053,599618964616747268,0.00
2025-12-04 01:52:26.216053,599618964616747268,0.00
2025-12-04 01:52:26.216053,599618964616747268,0.00
2025-12-04 01:52:26.216053,599618964616747268,-2.00
2025-12-04 01:52:26.216053,599618964616747268,-4.00
2025-12-04 01:52:26.776536,599618965177505345,-2.00
2025-12-04 01:52:26.776536,599618965177505345,-4.00
2025-12-04 01:52:26.776536,599618965177505345,-11.00
2025-12-04 01:52:26.776536,599618965177505345,-23.00
2025-12-04 01:52:26.776536,599618965177505345,-28.00
2025-12-04 01:52:26.776536,599618965177505345,-30.00
2025-12-04 01:52:26.776536,599618965177505345,-26.00
2025-12-04 01:52:26.776536,599618965177505345,-19.00
2025-12-04 01:52:26.776536,599618965177505345,-14.00
2025-12-04 01:52:26.776536,599618965177505345,-2.00
2025-12-04 01:52:26.776536,599618965177505345,9.00
2025-12-04 01:52:26.776536,599618965177505345,9.00
2025-12-04 01:52:26.776536,599618965177505345,2.00
2025-12-04 01:52:26.776536,599618965177505345,0.00
2025-12-04 01:52:26.776536,599618965177505345,4.00
2025-12-04 01:52:26.776536,599618965177505345,7.00
2025-12-04 01:52:26.776536,599618965177505345,4.00
2025-12-04 01:52:26.776536,599618965177505345,0.00
2025-12-04 01:52:26.776536,599618965177505345,0.00
2025-12-04 01:52:26.776536,599618965177505345,16.00
2025-12-04 01:52:26.776536,599618965177505345,45.00
2025-12-04 01:52:26.776536,599618965177505345,19.00
2025-12-04 01:52:26.776536,599618965177505345,-131.00
2025-12-04 01:52:26.776536,599618965177505345,-395.00
2025-12-04 01:52:26.776536,599618965177505345,-708.00
2025-12-04 01:52:26.776536,599618965177505345,-848.00
2025-12-04 01:52:26.776536,599618965177505345,-543.00
2025-12-04 01:52:26.776536,599618965177505345,-61.00
2025-12-04 01:52:26.776536,599618965177505345,85.00
2025-12-04 01:52:26.776536,599618965177505345,23.00
2025-12-04 01:52:26.776536,599618965177505345,66.00
2025-12-04 01:52:26.776536,599618965177505345,114.00
2025-12-04 01:52:26.776536,599618965177505345,85.00
2025-12-04 01:52:26.776536,599618965177505345,76.00
2025-12-04 01:52:26.776536,599618965177505345,85.00
2025-12-04 01:52:26.776536,599618965177505345,71.00
2025-12-04 01:52:26.776536,599618965177505345,61.00
2025-12-04 01:52:26.776536,599618965177505345,61.00
2025-12-04 01:52:26.776536,599618965177505345,52.00
2025-12-04 01:52:26.776536,599618965177505345,38.00
2025-12-04 01:52:26.776536,599618965177505345,28.00
2025-12-04 01:52:26.776536,599618965177505345,26.00
2025-12-04 01:52:26.776536,599618965177505345,19.00
2025-12-04 01:52:26.776536,599618965177505345,9.00
2025-12-04 01:52:26.776536,599618965177505345,4.00
2025-12-04 01:52:26.776536,599618965177505345,-2.00
2025-12-04 01:52:26.776536,599618965177505345,-14.00
2025-12-04 01:52:26.776536,599618965177505345,-26.00
2025-12-04 01:52:26.776536,599618965177505345,-33.00
2025-12-04 01:52:26.776536,599618965177505345,-40.00
2025-12-04 01:52:26.776536,599618965177505345,-52.00
2025-12-04 01:52:26.776536,599618965177505345,-57.00
2025-12-04 01:52:26.776536,599618965177505345,-57.00
2025-12-04 01:52:26.776536,599618965177505345,-59.00
2025-12-04 01:52:26.776536,599618965177505345,-59.00
2025-12-04 01:52:26.776536,599618965177505345,-54.00
2025-12-04 01:52:26.776536,599618965177505345,-52.00
2025-12-04 01:52:26.776536,599618965177505345,-45.00
2025-12-04 01:52:26.776536,599618965177505345,-35.00
2025-12-04 01:52:26.776536,599618965177505345,-23.00
2025-12-04 01:52:26.776536,599618965177505345,-4.00
2025-12-04 01:52:26.776536,599618965177505345,11.00
2025-12-04 01:52:26.776536,599618965177505345,23.00
2025-12-04 01:52:26.776536,599618965177505345,26.00
2025-12-04 01:52:26.776536,599618965177505345,30.00
2025-12-04 01:52:26.776536,599618965177505345,33.00
2025-12-04 01:52:26.776536,599618965177505345,30.00
2025-12-04 01:52:26.776536,599618965177505345,23.00
2025-12-04 01:52:26.776536,599618965177505345,21.00
2025-12-04 01:52:26.776536,599618965177505345,21.00
2025-12-04 01:52:26.776536,599618965177505345,19.00
2025-12-04 01:52:26.776536,599618965177505345,16.00
2025-12-04 01:52:26.776536,599618965177505345,16.00
2025-12-04 01:52:27.335021,599618965738232904,16.00
2025-12-04 01:52:27.335021,599618965738232904,16.00
2025-12-04 01:52:27.335021,599618965738232904,19.00
2025-12-04 01:52:27.335021,599618965738232904,21.00
2025-12-04 01:52:27.335021,599618965738232904,21.00
2025-12-04 01:52:27.335021,599618965738232904,23.00
2025-12-04 01:52:27.335021,599618965738232904,21.00
2025-12-04 01:52:27.335021,599618965738232904,21.00
2025-12-04 01:52:27.335021,599618965738232904,21.00
2025-12-04 01:52:27.335021,599618965738232904,23.00
2025-12-04 01:52:27.335021,599618965738232904,19.00
2025-12-04 01:52:27.335021,599618965738232904,19.00
2025-12-04 01:52:27.335021,599618965738232904,21.00
2025-12-04 01:52:27.335021,599618965738232904,16.00
2025-12-04 01:52:27.335021,599618965738232904,11.00
2025-12-04 01:52:27.335021,599618965738232904,14.00
2025-12-04 01:52:27.335021,599618965738232904,16.00
2025-12-04 01:52:27.335021,599618965738232904,14.00
2025-12-04 01:52:27.335021,599618965738232904,14.00
2025-12-04 01:52:27.335021,599618965738232904,16.00
2025-12-04 01:52:27.335021,599618965738232904,14.00
2025-12-04 01:52:27.335021,599618965738232904,9.00
2025-12-04 01:52:27.335021,599618965738232904,9.00
2025-12-04 01:52:27.335021,599618965738232904,11.00
2025-12-04 01:52:27.335021,599618965738232904,11.00
2025-12-04 01:52:27.335021,599618965738232904,7.00
2025-12-04 01:52:27.335021,599618965738232904,4.00
2025-12-04 01:52:27.335021,599618965738232904,4.00
2025-12-04 01:52:27.335021,599618965738232904,2.00
2025-12-04 01:52:27.335021,599618965738232904,2.00
2025-12-04 01:52:27.335021,599618965738232904,4.00
2025-12-04 01:52:27.335021,599618965738232904,2.00
2025-12-04 01:52:27.335021,599618965738232904,0.00
2025-12-04 01:52:27.335021,599618965738232904,2.00
2025-12-04 01:52:27.335021,599618965738232904,0.00
2025-12-04 01:52:27.335021,599618965738232904,-4.00
2025-12-04 01:52:27.335021,599618965738232904,-9.00
2025-12-04 01:52:27.335021,599618965738232904,-19.00
2025-12-04 01:52:27.335021,599618965738232904,-23.00
2025-12-04 01:52:27.335021,599618965738232904,-19.00
2025-12-04 01:52:27.335021,599618965738232904,-11.00
2025-12-04 01:52:27.335021,599618965738232904,-9.00
2025-12-04 01:52:27.335021,599618965738232904,-4.00
2025-12-04 01:52:27.335021,599618965738232904,4.00
2025-12-04 01:52:27.335021,599618965738232904,7.00
2025-12-04 01:52:27.335021,599618965738232904,2.00
2025-12-04 01:52:27.335021,599618965738232904,4.00
2025-12-04 01:52:27.335021,599618965738232904,7.00
2025-12-04 01:52:27.335021,599618965738232904,2.00
2025-12-04 01:52:27.335021,599618965738232904,2.00
2025-12-04 01:52:27.335021,599618965738232904,4.00
2025-12-04 01:52:27.335021,599618965738232904,7.00
2025-12-04 01:52:27.335021,599618965738232904,16.00
2025-12-04 01:52:27.335021,599618965738232904,40.00
2025-12-04 01:52:27.335021,599618965738232904,42.00
2025-12-04 01:52:27.335021,599618965738232904,-59.00
2025-12-04 01:52:27.335021,599618965738232904,-286.00
2025-12-04 01:52:27.335021,599618965738232904,-593.00
2025-12-04 01:52:27.335021,599618965738232904,-820.00
2025-12-04 01:52:27.335021,599618965738232904,-670.00
2025-12-04 01:52:27.335021,599618965738232904,-200.00
2025-12-04 01:52:27.335021,599618965738232904,71.00
2025-12-04 01:52:27.335021,599618965738232904,35.00
2025-12-04 01:52:27.335021,599618965738232904,38.00
2025-12-04 01:52:27.335021,599618965738232904,107.00
2025-12-04 01:52:27.335021,599618965738232904,92.00
2025-12-04 01:52:27.335021,599618965738232904,69.00
2025-12-04 01:52:27.335021,599618965738232904,81.00
2025-12-04 01:52:27.335021,599618965738232904,78.00
2025-12-04 01:52:27.335021,599618965738232904,61.00
2025-12-04 01:52:27.335021,599618965738232904,57.00
2025-12-04 01:52:27.335021,599618965738232904,57.00
2025-12-04 01:52:27.335021,599618965738232904,45.00
2025-12-04 01:52:27.945546,599618966298960465,35.00
2025-12-04 01:52:27.945546,599618966298960465,28.00
2025-12-04 01:52:27.945546,599618966298960465,23.00
2025-12-04 01:52:27.945546,599618966298960465,19.00
2025-12-04 01:52:27.945546,599618966298960465,11.00
2025-12-04 01:52:27.945546,599618966298960465,4.00
2025-12-04 01:52:27.945546,599618966298960465,-2.00
2025-12-04 01:52:27.945546,599618966298960465,-9.00
2025-12-04 01:52:27.945546,599618966298960465,-19.00
2025-12-04 01:52:27.945546,599618966298960465,-26.00
2025-12-04 01:52:27.945546,599618966298960465,-33.00
2025-12-04 01:52:27.945546,599618966298960465,-42.00
2025-12-04 01:52:27.945546,599618966298960465,-47.00
2025-12-04 01:52:27.945546,599618966298960465,-50.00
2025-12-04 01:52:27.945546,599618966298960465,-50.00
2025-12-04 01:52:27.945546,599618966298960465,-47.00
2025-12-04 01:52:27.945546,599618966298960465,-47.00
2025-12-04 01:52:27.945546,599618966298960465,-42.00
2025-12-04 01:52:27.945546,599618966298960465,-35.00
2025-12-04 01:52:27.945546,599618966298960465,-26.00
2025-12-04 01:52:27.945546,599618966298960465,-14.00
2025-12-04 01:52:27.945546,599618966298960465,0.00
2025-12-04 01:52:27.945546,599618966298960465,16.00
2025-12-04 01:52:27.945546,599618966298960465,23.00
2025-12-04 01:52:27.945546,599618966298960465,26.00
2025-12-04 01:52:27.945546,599618966298960465,28.00
2025-12-04 01:52:27.945546,599618966298960465,26.00
2025-12-04 01:52:27.945546,599618966298960465,23.00
2025-12-04 01:52:27.945546,599618966298960465,21.00
2025-12-04 01:52:27.945546,599618966298960465,19.00
2025-12-04 01:52:27.945546,599618966298960465,14.00
2025-12-04 01:52:27.945546,599618966298960465,11.00
2025-12-04 01:52:27.945546,599618966298960465,11.00
2025-12-04 01:52:27.945546,599618966298960465,11.00
2025-12-04 01:52:27.945546,599618966298960465,9.00
2025-12-04 01:52:27.945546,599618966298960465,11.00
2025-12-04 01:52:27.945546,599618966298960465,14.00
2025-12-04 01:52:27.945546,599618966298960465,14.00
2025-12-04 01:52:27.945546,599618966298960465,9.00
2025-12-04 01:52:27.945546,599618966298960465,7.00
2025-12-04 01:52:27.945546,599618966298960465,9.00
2025-12-04 01:52:27.945546,599618966298960465,14.00
2025-12-04 01:52:27.945546,599618966298960465,14.00
2025-12-04 01:52:27.945546,599618966298960465,11.00
2025-12-04 01:52:27.945546,599618966298960465,11.00
2025-12-04 01:52:27.945546,599618966298960465,14.00
2025-12-04 01:52:27.945546,599618966298960465,11.00
2025-12-04 01:52:27.945546,599618966298960465,7.00
2025-12-04 01:52:27.945546,599618966298960465,7.00
2025-12-04 01:52:27.945546,599618966298960465,9.00
2025-12-04 01:52:27.945546,599618966298960465,7.00
2025-12-04 01:52:27.945546,599618966298960465,7.00
2025-12-04 01:52:27.945546,599618966298960465,7.00
2025-12-04 01:52:27.945546,599618966298960465,4.00
2025-12-04 01:52:27.945546,599618966298960465,2.00
2025-12-04 01:52:27.945546,599618966298960465,4.00
2025-12-04 01:52:27.945546,599618966298960465,0.00
2025-12-04 01:52:27.945546,599618966298960465,-7.00
2025-12-04 01:52:27.945546,599618966298960465,-7.00
2025-12-04 01:52:27.945546,599618966298960465,-4.00
2025-12-04 01:52:27.945546,599618966298960465,-2.00
2025-12-04 01:52:27.945546,599618966298960465,-4.00
2025-12-04 01:52:27.945546,599618966298960465,-2.00
2025-12-04 01:52:27.945546,599618966298960465,0.00
2025-12-04 01:52:27.945546,599618966298960465,0.00
2025-12-04 01:52:27.945546,599618966298960465,-2.00
2025-12-04 01:52:27.945546,599618966298960465,-7.00
2025-12-04 01:52:27.945546,599618966298960465,-4.00
2025-12-04 01:52:27.945546,599618966298960465,-4.00
2025-12-04 01:52:27.945546,599618966298960465,-9.00
2025-12-04 01:52:27.945546,599618966298960465,-14.00
2025-12-04 01:52:27.945546,599618966298960465,-23.00
2025-12-04 01:52:27.945546,599618966298960465,-33.00
2025-12-04 01:52:28.455101,599618966859688024,-26.00
2025-12-04 01:52:28.455101,599618966859688024,-16.00
2025-12-04 01:52:28.455101,599618966859688024,-16.00
2025-12-04 01:52:28.455101,599618966859688024,-11.00
2025-12-04 01:52:28.455101,599618966859688024,-2.00
2025-12-04 01:52:28.455101,599618966859688024,2.00
2025-12-04 01:52:28.455101,599618966859688024,0.00
2025-12-04 01:52:28.455101,599618966859688024,0.00
2025-12-04 01:52:28.455101,599618966859688024,2.00
2025-12-04 01:52:28.455101,599618966859688024,2.00
2025-12-04 01:52:28.455101,599618966859688024,2.00
2025-12-04 01:52:28.455101,599618966859688024,4.00
2025-12-04 01:52:28.455101,599618966859688024,4.00
2025-12-04 01:52:28.455101,599618966859688024,7.00
2025-12-04 01:52:28.455101,599618966859688024,30.00
2025-12-04 01:52:28.455101,599618966859688024,52.00
2025-12-04 01:52:28.455101,599618966859688024,-11.00
2025-12-04 01:52:28.455101,599618966859688024,-200.00
2025-12-04 01:52:28.455101,599618966859688024,-481.00
2025-12-04 01:52:28.455101,599618966859688024,-765.00
2025-12-04 01:52:28.455101,599618966859688024,-772.00
2025-12-04 01:52:28.455101,599618966859688024,-357.00
2025-12-04 01:52:28.455101,599618966859688024,33.00
2025-12-04 01:52:28.455101,599618966859688024,54.00
2025-12-04 01:52:28.455101,599618966859688024,16.00
2025-12-04 01:52:28.455101,599618966859688024,85.00
2025-12-04 01:52:28.455101,599618966859688024,100.00
2025-12-04 01:52:28.455101,599618966859688024,66.00
2025-12-04 01:52:28.455101,599618966859688024,73.00
2025-12-04 01:52:28.455101,599618966859688024,78.00
2025-12-04 01:52:28.455101,599618966859688024,57.00
2025-12-04 01:52:28.455101,599618966859688024,47.00
2025-12-04 01:52:28.455101,599618966859688024,50.00
2025-12-04 01:52:28.455101,599618966859688024,42.00
2025-12-04 01:52:28.455101,599618966859688024,28.00
2025-12-04 01:52:28.455101,599618966859688024,21.00
2025-12-04 01:52:28.455101,599618966859688024,14.00
2025-12-04 01:52:28.455101,599618966859688024,7.00
2025-12-04 01:52:28.455101,599618966859688024,2.00
2025-12-04 01:52:28.455101,599618966859688024,-7.00
2025-12-04 01:52:28.455101,599618966859688024,-16.00
2025-12-04 01:52:28.455101,599618966859688024,-28.00
2025-12-04 01:52:28.455101,599618966859688024,-38.00
2025-12-04 01:52:28.455101,599618966859688024,-45.00
2025-12-04 01:52:28.455101,599618966859688024,-50.00
2025-12-04 01:52:28.455101,599618966859688024,-54.00
2025-12-04 01:52:28.455101,599618966859688024,-64.00
2025-12-04 01:52:28.455101,599618966859688024,-71.00
2025-12-04 01:52:28.455101,599618966859688024,-71.00
2025-12-04 01:52:28.455101,599618966859688024,-64.00
2025-12-04 01:52:28.455101,599618966859688024,-66.00
2025-12-04 01:52:28.455101,599618966859688024,-61.00
2025-12-04 01:52:28.455101,599618966859688024,-52.00
2025-12-04 01:52:28.455101,599618966859688024,-50.00
2025-12-04 01:52:28.455101,599618966859688024,-33.00
2025-12-04 01:52:28.455101,599618966859688024,-4.00
2025-12-04 01:52:28.455101,599618966859688024,11.00
2025-12-04 01:52:28.455101,599618966859688024,19.00
2025-12-04 01:52:28.455101,599618966859688024,26.00
2025-12-04 01:52:28.455101,599618966859688024,33.00
2025-12-04 01:52:28.455101,599618966859688024,30.00
2025-12-04 01:52:28.455101,599618966859688024,23.00
2025-12-04 01:52:28.455101,599618966859688024,21.00
2025-12-04 01:52:28.455101,599618966859688024,23.00
2025-12-04 01:52:28.455101,599618966859688024,21.00
2025-12-04 01:52:28.455101,599618966859688024,21.00
2025-12-04 01:52:28.455101,599618966859688024,19.00
2025-12-04 01:52:28.455101,599618966859688024,14.00
2025-12-04 01:52:28.455101,599618966859688024,11.00
2025-12-04 01:52:28.455101,599618966859688024,16.00
2025-12-04 01:52:28.455101,599618966859688024,16.00
2025-12-04 01:52:28.455101,599618966859688024,14.00
2025-12-04 01:52:28.455101,599618966859688024,11.00
2025-12-04 01:52:29.016566,599618967420430841,16.00
2025-12-04 01:52:29.016566,599618967420430841,23.00
2025-12-04 01:52:29.016566,599618967420430841,21.00
2025-12-04 01:52:29.016566,599618967420430841,16.00
2025-12-04 01:52:29.016566,599618967420430841,19.00
2025-12-04 01:52:29.016566,599618967420430841,16.00
2025-12-04 01:52:29.016566,599618967420430841,11.00
2025-12-04 01:52:29.016566,599618967420430841,16.00
2025-12-04 01:52:29.016566,599618967420430841,21.00
2025-12-04 01:52:29.016566,599618967420430841,19.00
2025-12-04 01:52:29.016566,599618967420430841,19.00
2025-12-04 01:52:29.016566,599618967420430841,14.00
2025-12-04 01:52:29.016566,599618967420430841,9.00
2025-12-04 01:52:29.016566,599618967420430841,14.00
2025-12-04 01:52:29.016566,599618967420430841,19.00
2025-12-04 01:52:29.016566,599618967420430841,16.00
2025-12-04 01:52:29.016566,599618967420430841,11.00
2025-12-04 01:52:29.016566,599618967420430841,11.00
2025-12-04 01:52:29.016566,599618967420430841,11.00
2025-12-04 01:52:29.016566,599618967420430841,11.00
2025-12-04 01:52:29.016566,599618967420430841,14.00
2025-12-04 01:52:29.016566,599618967420430841,9.00
2025-12-04 01:52:29.016566,599618967420430841,0.00
2025-12-04 01:52:29.016566,599618967420430841,-7.00
2025-12-04 01:52:29.016566,599618967420430841,-2.00
2025-12-04 01:52:29.016566,599618967420430841,-2.00
2025-12-04 01:52:29.016566,599618967420430841,-4.00
2025-12-04 01:52:29.016566,599618967420430841,2.00
2025-12-04 01:52:29.016566,599618967420430841,16.00
2025-12-04 01:52:29.016566,599618967420430841,19.00
2025-12-04 01:52:29.016566,599618967420430841,19.00
2025-12-04 01:52:29.016566,599618967420430841,28.00
2025-12-04 01:52:29.016566,599618967420430841,28.00
2025-12-04 01:52:29.016566,599618967420430841,21.00
2025-12-04 01:52:29.016566,599618967420430841,19.00
2025-12-04 01:52:29.016566,599618967420430841,21.00
2025-12-04 01:52:29.016566,599618967420430841,23.00
2025-12-04 01:52:29.016566,599618967420430841,30.00
2025-12-04 01:52:29.016566,599618967420430841,42.00
2025-12-04 01:52:29.016566,599618967420430841,66.00
2025-12-04 01:52:29.016566,599618967420430841,54.00
2025-12-04 01:52:29.016566,599618967420430841,-73.00
2025-12-04 01:52:29.016566,599618967420430841,-338.00
2025-12-04 01:52:29.016566,599618967420430841,-667.00
2025-12-04 01:52:29.016566,599618967420430841,-858.00
2025-12-04 01:52:29.016566,599618967420430841,-605.00
2025-12-04 01:52:29.016566,599618967420430841,-85.00
2025-12-04 01:52:29.016566,599618967420430841,126.00
2025-12-04 01:52:29.016566,599618967420430841,52.00
2025-12-04 01:52:29.016566,599618967420430841,81.00
2025-12-04 01:52:29.016566,599618967420430841,140.00
2025-12-04 01:52:29.016566,599618967420430841,112.00
2025-12-04 01:52:29.016566,599618967420430841,97.00
2025-12-04 01:52:29.016566,599618967420430841,112.00
2025-12-04 01:52:29.016566,599618967420430841,97.00
2025-12-04 01:52:29.016566,599618967420430841,85.00
2025-12-04 01:52:29.016566,599618967420430841,88.00
2025-12-04 01:52:29.016566,599618967420430841,78.00
2025-12-04 01:52:29.016566,599618967420430841,64.00
2025-12-04 01:52:29.016566,599618967420430841,54.00
2025-12-04 01:52:29.016566,599618967420430841,50.00
2025-12-04 01:52:29.016566,599618967420430841,42.00
2025-12-04 01:52:29.016566,599618967420430841,35.00
2025-12-04 01:52:29.016566,599618967420430841,23.00
2025-12-04 01:52:29.016566,599618967420430841,16.00
2025-12-04 01:52:29.016566,599618967420430841,11.00
2025-12-04 01:52:29.016566,599618967420430841,2.00
2025-12-04 01:52:29.016566,599618967420430841,-11.00
2025-12-04 01:52:29.016566,599618967420430841,-21.00
2025-12-04 01:52:29.016566,599618967420430841,-28.00
2025-12-04 01:52:29.016566,599618967420430841,-30.00
2025-12-04 01:52:29.016566,599618967420430841,-35.00
2025-12-04 01:52:29.016566,599618967420430841,-45.00
2025-12-04 01:52:29.577040,599618967981173660,-45.00
2025-12-04 01:52:29.577040,599618967981173660,-35.00
2025-12-04 01:52:29.577040,599618967981173660,-28.00
2025-12-04 01:52:29.577040,599618967981173660,-23.00
2025-12-04 01:52:29.577040,599618967981173660,-14.00
2025-12-04 01:52:29.577040,599618967981173660,4.00
2025-12-04 01:52:29.577040,599618967981173660,23.00
2025-12-04 01:52:29.577040,599618967981173660,35.00
2025-12-04 01:52:29.577040,599618967981173660,45.00
2025-12-04 01:52:29.577040,599618967981173660,57.00
2025-12-04 01:52:29.577040,599618967981173660,59.00
2025-12-04 01:52:29.577040,599618967981173660,54.00
2025-12-04 01:52:29.577040,599618967981173660,54.00
2025-12-04 01:52:29.577040,599618967981173660,54.00
2025-12-04 01:52:29.577040,599618967981173660,47.00
2025-12-04 01:52:29.577040,599618967981173660,40.00
2025-12-04 01:52:29.577040,599618967981173660,40.00
2025-12-04 01:52:29.577040,599618967981173660,42.00
2025-12-04 01:52:29.577040,599618967981173660,38.00
2025-12-04 01:52:29.577040,599618967981173660,30.00
2025-12-04 01:52:29.577040,599618967981173660,28.00
2025-12-04 01:52:29.577040,599618967981173660,28.00
2025-12-04 01:52:29.577040,599618967981173660,26.00
2025-12-04 01:52:29.577040,599618967981173660,26.00
2025-12-04 01:52:29.577040,599618967981173660,30.00
2025-12-04 01:52:29.577040,599618967981173660,30.00
2025-12-04 01:52:29.577040,599618967981173660,28.00
2025-12-04 01:52:29.577040,599618967981173660,30.00
2025-12-04 01:52:29.577040,599618967981173660,26.00
2025-12-04 01:52:29.577040,599618967981173660,26.00
2025-12-04 01:52:29.577040,599618967981173660,28.00
2025-12-04 01:52:29.577040,599618967981173660,28.00
2025-12-04 01:52:29.577040,599618967981173660,21.00
2025-12-04 01:52:29.577040,599618967981173660,21.00
2025-12-04 01:52:29.577040,599618967981173660,26.00
2025-12-04 01:52:29.577040,599618967981173660,26.00
2025-12-04 01:52:29.577040,599618967981173660,23.00
2025-12-04 01:52:29.577040,599618967981173660,21.00
2025-12-04 01:52:29.577040,599618967981173660,23.00
2025-12-04 01:52:29.577040,599618967981173660,26.00
2025-12-04 01:52:29.577040,599618967981173660,26.00
2025-12-04 01:52:29.577040,599618967981173660,26.00
2025-12-04 01:52:29.577040,599618967981173660,28.00
2025-12-04 01:52:29.577040,599618967981173660,23.00
2025-12-04 01:52:29.577040,599618967981173660,14.00
2025-12-04 01:52:29.577040,599618967981173660,7.00
2025-12-04 01:52:29.577040,599618967981173660,7.00
2025-12-04 01:52:29.577040,599618967981173660,9.00
2025-12-04 01:52:29.577040,599618967981173660,11.00
2025-12-04 01:52:29.577040,599618967981173660,16.00
2025-12-04 01:52:29.577040,599618967981173660,26.00
2025-12-04 01:52:29.577040,599618967981173660,33.00
2025-12-04 01:52:29.577040,599618967981173660,30.00
2025-12-04 01:52:29.577040,599618967981173660,28.00
2025-12-04 01:52:29.577040,599618967981173660,26.00
2025-12-04 01:52:29.577040,599618967981173660,28.00
2025-12-04 01:52:29.577040,599618967981173660,28.00
2025-12-04 01:52:29.577040,599618967981173660,28.00
2025-12-04 01:52:29.577040,599618967981173660,35.00
2025-12-04 01:52:29.577040,599618967981173660,47.00
2025-12-04 01:52:29.577040,599618967981173660,71.00
2025-12-04 01:52:29.577040,599618967981173660,50.00
2025-12-04 01:52:29.577040,599618967981173660,-92.00
2025-12-04 01:52:29.577040,599618967981173660,-371.00
2025-12-04 01:52:29.577040,599618967981173660,-712.00
2025-12-04 01:52:29.577040,599618967981173660,-865.00
2025-12-04 01:52:29.577040,599618967981173660,-531.00
2025-12-04 01:52:29.577040,599618967981173660,-9.00
2025-12-04 01:52:29.577040,599618967981173660,135.00
2025-12-04 01:52:29.577040,599618967981173660,47.00
2025-12-04 01:52:29.577040,599618967981173660,90.00
2025-12-04 01:52:29.577040,599618967981173660,145.00
2025-12-04 01:52:29.577040,599618967981173660,112.00
2025-12-04 01:52:30.138009,599618968541926649,100.00
2025-12-04 01:52:30.138009,599618968541926649,114.00
2025-12-04 01:52:30.138009,599618968541926649,100.00
2025-12-04 01:52:30.138009,599618968541926649,85.00
2025-12-04 01:52:30.138009,599618968541926649,85.00
2025-12-04 01:52:30.138009,599618968541926649,76.00
2025-12-04 01:52:30.138009,599618968541926649,66.00
2025-12-04 01:52:30.138009,599618968541926649,61.00
2025-12-04 01:52:30.138009,599618968541926649,52.00
2025-12-04 01:52:30.138009,599618968541926649,40.00
2025-12-04 01:52:30.138009,599618968541926649,33.00
2025-12-04 01:52:30.138009,599618968541926649,28.00
2025-12-04 01:52:30.138009,599618968541926649,19.00
2025-12-04 01:52:30.138009,599618968541926649,9.00
2025-12-04 01:52:30.138009,599618968541926649,0.00
2025-12-04 01:52:30.138009,599618968541926649,-11.00
2025-12-04 01:52:30.138009,599618968541926649,-21.00
2025-12-04 01:52:30.138009,599618968541926649,-30.00
2025-12-04 01:52:30.138009,599618968541926649,-42.00
2025-12-04 01:52:30.138009,599618968541926649,-47.00
2025-12-04 01:52:30.138009,599618968541926649,-47.00
2025-12-04 01:52:30.138009,599618968541926649,-50.00
2025-12-04 01:52:30.138009,599618968541926649,-50.00
2025-12-04 01:52:30.138009,599618968541926649,-47.00
2025-12-04 01:52:30.138009,599618968541926649,-40.00
2025-12-04 01:52:30.138009,599618968541926649,-26.00
2025-12-04 01:52:30.138009,599618968541926649,-7.00
2025-12-04 01:52:30.138009,599618968541926649,9.00
2025-12-04 01:52:30.138009,599618968541926649,19.00
2025-12-04 01:52:30.138009,599618968541926649,26.00
2025-12-04 01:52:30.138009,599618968541926649,33.00
2025-12-04 01:52:30.138009,599618968541926649,33.00
2025-12-04 01:52:30.138009,599618968541926649,33.00
2025-12-04 01:52:30.138009,599618968541926649,35.00
2025-12-04 01:52:30.138009,599618968541926649,33.00
2025-12-04 01:52:30.138009,599618968541926649,26.00
2025-12-04 01:52:30.138009,599618968541926649,21.00
2025-12-04 01:52:30.138009,599618968541926649,19.00
2025-12-04 01:52:30.138009,599618968541926649,21.00
2025-12-04 01:52:30.138009,599618968541926649,19.00
2025-12-04 01:52:30.138009,599618968541926649,16.00
2025-12-04 01:52:30.138009,599618968541926649,19.00
2025-12-04 01:52:30.138009,599618968541926649,19.00
2025-12-04 01:52:30.138009,599618968541926649,19.00
2025-12-04 01:52:30.138009,599618968541926649,16.00
2025-12-04 01:52:30.138009,599618968541926649,16.00
2025-12-04 01:52:30.138009,599618968541926649,19.00
2025-12-04 01:52:30.138009,599618968541926649,21.00
2025-12-04 01:52:30.138009,599618968541926649,16.00
2025-12-04 01:52:30.138009,599618968541926649,14.00
2025-12-04 01:52:30.138009,599618968541926649,16.00
2025-12-04 01:52:30.138009,599618968541926649,16.00
2025-12-04 01:52:30.138009,599618968541926649,16.00
2025-12-04 01:52:30.138009,599618968541926649,16.00
2025-12-04 01:52:30.138009,599618968541926649,16.00
2025-12-04 01:52:30.138009,599618968541926649,9.00
2025-12-04 01:52:30.138009,599618968541926649,9.00
2025-12-04 01:52:30.138009,599618968541926649,14.00
2025-12-04 01:52:30.138009,599618968541926649,11.00
2025-12-04 01:52:30.138009,599618968541926649,-4.00
2025-12-04 01:52:30.138009,599618968541926649,-16.00
2025-12-04 01:52:30.138009,599618968541926649,-16.00
2025-12-04 01:52:30.138009,599618968541926649,-11.00
2025-12-04 01:52:30.138009,599618968541926649,-4.00
2025-12-04 01:52:30.138009,599618968541926649,-2.00
2025-12-04 01:52:30.138009,599618968541926649,4.00
2025-12-04 01:52:30.138009,599618968541926649,16.00
2025-12-04 01:52:30.138009,599618968541926649,14.00
2025-12-04 01:52:30.138009,599618968541926649,9.00
2025-12-04 01:52:30.138009,599618968541926649,11.00
2025-12-04 01:52:30.138009,599618968541926649,14.00
2025-12-04 01:52:30.138009,599618968541926649,11.00
2025-12-04 01:52:30.138009,599618968541926649,11.00
2025-12-04 01:52:30.698508,599618969102659296,14.00
2025-12-04 01:52:30.698508,599618969102659296,16.00
2025-12-04 01:52:30.698508,599618969102659296,28.00
2025-12-04 01:52:30.698508,599618969102659296,50.00
2025-12-04 01:52:30.698508,599618969102659296,4.00
2025-12-04 01:52:30.698508,599618969102659296,-176.00
2025-12-04 01:52:30.698508,599618969102659296,-472.00
2025-12-04 01:52:30.698508,599618969102659296,-784.00
2025-12-04 01:52:30.698508,599618969102659296,-834.00
2025-12-04 01:52:30.698508,599618969102659296,-422.00
2025-12-04 01:52:30.698508,599618969102659296,38.00
2025-12-04 01:52:30.698508,599618969102659296,92.00
2025-12-04 01:52:30.698508,599618969102659296,23.00
2025-12-04 01:52:30.698508,599618969102659296,92.00
2025-12-04 01:52:30.698508,599618969102659296,121.00
2025-12-04 01:52:30.698508,599618969102659296,83.00
2025-12-04 01:52:30.698508,599618969102659296,90.00
2025-12-04 01:52:30.698508,599618969102659296,97.00
2025-12-04 01:52:30.698508,599618969102659296,76.00
2025-12-04 01:52:30.698508,599618969102659296,64.00
2025-12-04 01:52:30.698508,599618969102659296,64.00
2025-12-04 01:52:30.698508,599618969102659296,54.00
2025-12-04 01:52:30.698508,599618969102659296,45.00
2025-12-04 01:52:30.698508,599618969102659296,38.00
2025-12-04 01:52:30.698508,599618969102659296,26.00
2025-12-04 01:52:30.698508,599618969102659296,19.00
2025-12-04 01:52:30.698508,599618969102659296,19.00
2025-12-04 01:52:30.698508,599618969102659296,9.00
2025-12-04 01:52:30.698508,599618969102659296,-2.00
2025-12-04 01:52:30.698508,599618969102659296,-4.00
2025-12-04 01:52:30.698508,599618969102659296,-14.00
2025-12-04 01:52:30.698508,599618969102659296,-26.00
2025-12-04 01:52:30.698508,599618969102659296,-35.00
2025-12-04 01:52:30.698508,599618969102659296,-42.00
2025-12-04 01:52:30.698508,599618969102659296,-45.00
2025-12-04 01:52:30.698508,599618969102659296,-45.00
2025-12-04 01:52:30.698508,599618969102659296,-47.00
2025-12-04 01:52:30.698508,599618969102659296,-50.00
2025-12-04 01:52:30.698508,599618969102659296,-45.00
2025-12-04 01:52:30.698508,599618969102659296,-35.00
2025-12-04 01:52:30.698508,599618969102659296,-26.00
2025-12-04 01:52:30.698508,599618969102659296,-16.00
2025-12-04 01:52:30.698508,599618969102659296,-2.00
2025-12-04 01:52:30.698508,599618969102659296,16.00
2025-12-04 01:52:30.698508,599618969102659296,26.00
2025-12-04 01:52:30.698508,599618969102659296,28.00
2025-12-04 01:52:30.698508,599618969102659296,30.00
2025-12-04 01:52:30.698508,599618969102659296,35.00
2025-12-04 01:52:30.698508,599618969102659296,35.00
2025-12-04 01:52:30.698508,599618969102659296,28.00
2025-12-04 01:52:30.698508,599618969102659296,21.00
2025-12-04 01:52:30.698508,599618969102659296,23.00
2025-12-04 01:52:30.698508,599618969102659296,23.00
2025-12-04 01:52:30.698508,599618969102659296,19.00
2025-12-04 01:52:30.698508,599618969102659296,16.00
2025-12-04 01:52:30.698508,599618969102659296,16.00
2025-12-04 01:52:30.698508,599618969102659296,16.00
2025-12-04 01:52:30.698508,599618969102659296,14.00
2025-12-04 01:52:30.698508,599618969102659296,11.00
2025-12-04 01:52:30.698508,599618969102659296,14.00
2025-12-04 01:52:30.698508,599618969102659296,16.00
2025-12-04 01:52:30.698508,599618969102659296,11.00
2025-12-04 01:52:30.698508,599618969102659296,9.00
2025-12-04 01:52:30.698508,599618969102659296,16.00
2025-12-04 01:52:30.698508,599618969102659296,16.00
2025-12-04 01:52:30.698508,599618969102659296,9.00
2025-12-04 01:52:30.698508,599618969102659296,9.00
2025-12-04 01:52:30.698508,599618969102659296,11.00
2025-12-04 01:52:30.698508,599618969102659296,7.00
2025-12-04 01:52:30.698508,599618969102659296,7.00
2025-12-04 01:52:30.698508,599618969102659296,7.00
2025-12-04 01:52:30.698508,599618969102659296,2.00
2025-12-04 01:52:30.698508,599618969102659296,-11.00
2025-12-04 01:52:31.309659,599618969663391943,-19.00
2025-12-04 01:52:31.309659,599618969663391943,-16.00
2025-12-04 01:52:31.309659,599618969663391943,-9.00
2025-12-04 01:52:31.309659,599618969663391943,-4.00
2025-12-04 01:52:31.309659,599618969663391943,2.00
2025-12-04 01:52:31.309659,599618969663391943,11.00
2025-12-04 01:52:31.309659,599618969663391943,14.00
2025-12-04 01:52:31.309659,599618969663391943,11.00
2025-12-04 01:52:31.309659,599618969663391943,14.00
2025-12-04 01:52:31.309659,599618969663391943,11.00
2025-12-04 01:52:31.309659,599618969663391943,9.00
2025-12-04 01:52:31.309659,599618969663391943,11.00
2025-12-04 01:52:31.309659,599618969663391943,11.00
2025-12-04 01:52:31.309659,599618969663391943,9.00
2025-12-04 01:52:31.309659,599618969663391943,16.00
2025-12-04 01:52:31.309659,599618969663391943,38.00
2025-12-04 01:52:31.309659,599618969663391943,40.00
2025-12-04 01:52:31.309659,599618969663391943,-59.00
2025-12-04 01:52:31.309659,599618969663391943,-283.00
2025-12-04 01:52:31.309659,599618969663391943,-600.00
2025-12-04 01:52:31.309659,599618969663391943,-853.00
2025-12-04 01:52:31.309659,599618969663391943,-722.00
2025-12-04 01:52:31.309659,599618969663391943,-221.00
2025-12-04 01:52:31.309659,599618969663391943,92.00
2025-12-04 01:52:31.309659,599618969663391943,50.00
2025-12-04 01:52:31.309659,599618969663391943,40.00
2025-12-04 01:52:31.309659,599618969663391943,116.00
2025-12-04 01:52:31.309659,599618969663391943,102.00
2025-12-04 01:52:31.309659,599618969663391943,73.00
2025-12-04 01:52:31.309659,599618969663391943,90.00
2025-12-04 01:52:31.309659,599618969663391943,81.00
2025-12-04 01:52:31.309659,599618969663391943,59.00
2025-12-04 01:52:31.309659,599618969663391943,59.00
2025-12-04 01:52:31.309659,599618969663391943,54.00
2025-12-04 01:52:31.309659,599618969663391943,38.00
2025-12-04 01:52:31.309659,599618969663391943,28.00
2025-12-04 01:52:31.309659,599618969663391943,26.00
2025-12-04 01:52:31.309659,599618969663391943,14.00
2025-12-04 01:52:31.309659,599618969663391943,2.00
2025-12-04 01:52:31.309659,599618969663391943,-4.00
2025-12-04 01:52:31.309659,599618969663391943,-11.00
2025-12-04 01:52:31.309659,599618969663391943,-16.00
2025-12-04 01:52:31.309659,599618969663391943,-26.00
2025-12-04 01:52:31.309659,599618969663391943,-35.00
2025-12-04 01:52:31.309659,599618969663391943,-42.00
2025-12-04 01:52:31.309659,599618969663391943,-47.00
2025-12-04 01:52:31.309659,599618969663391943,-52.00
2025-12-04 01:52:31.309659,599618969663391943,-57.00
2025-12-04 01:52:31.309659,599618969663391943,-59.00
2025-12-04 01:52:31.309659,599618969663391943,-57.00
2025-12-04 01:52:31.309659,599618969663391943,-57.00
2025-12-04 01:52:31.309659,599618969663391943,-52.00
2025-12-04 01:52:31.309659,599618969663391943,-40.00
2025-12-04 01:52:31.309659,599618969663391943,-30.00
2025-12-04 01:52:31.309659,599618969663391943,-21.00
2025-12-04 01:52:31.309659,599618969663391943,-2.00
2025-12-04 01:52:31.309659,599618969663391943,16.00
2025-12-04 01:52:31.309659,599618969663391943,26.00
2025-12-04 01:52:31.309659,599618969663391943,28.00
2025-12-04 01:52:31.309659,599618969663391943,30.00
2025-12-04 01:52:31.309659,599618969663391943,33.00
2025-12-04 01:52:31.309659,599618969663391943,30.00
2025-12-04 01:52:31.309659,599618969663391943,23.00
2025-12-04 01:52:31.309659,599618969663391943,19.00
2025-12-04 01:52:31.309659,599618969663391943,19.00
2025-12-04 01:52:31.309659,599618969663391943,19.00
2025-12-04 01:52:31.309659,599618969663391943,16.00
2025-12-04 01:52:31.309659,599618969663391943,14.00
2025-12-04 01:52:31.309659,599618969663391943,14.00
2025-12-04 01:52:31.309659,599618969663391943,11.00
2025-12-04 01:52:31.309659,599618969663391943,9.00
2025-12-04 01:52:31.309659,599618969663391943,9.00
2025-12-04 01:52:31.309659,599618969663391943,11.00
2025-12-04 01:52:31.827203,599618970224144934,11.00
2025-12-04 01:52:31.827203,599618970224144934,11.00
2025-12-04 01:52:31.827203,599618970224144934,11.00
2025-12-04 01:52:31.827203,599618970224144934,11.00
2025-12-04 01:52:31.827203,599618970224144934,9.00
2025-12-04 01:52:31.827203,599618970224144934,9.00
2025-12-04 01:52:31.827203,599618970224144934,11.00
2025-12-04 01:52:31.827203,599618970224144934,11.00
2025-12-04 01:52:31.827203,599618970224144934,9.00
2025-12-04 01:52:31.827203,599618970224144934,7.00
2025-12-04 01:52:31.827203,599618970224144934,7.00
2025-12-04 01:52:31.827203,599618970224144934,7.00
2025-12-04 01:52:31.827203,599618970224144934,2.00
2025-12-04 01:52:31.827203,599618970224144934,-7.00
2025-12-04 01:52:31.827203,599618970224144934,-14.00
2025-12-04 01:52:31.827203,599618970224144934,-11.00
2025-12-04 01:52:31.827203,599618970224144934,-9.00
2025-12-04 01:52:31.827203,599618970224144934,-4.00
2025-12-04 01:52:31.827203,599618970224144934,0.00
2025-12-04 01:52:31.827203,599618970224144934,7.00
2025-12-04 01:52:31.827203,599618970224144934,14.00
2025-12-04 01:52:31.827203,599618970224144934,14.00
2025-12-04 01:52:31.827203,599618970224144934,11.00
2025-12-04 01:52:31.827203,599618970224144934,9.00
2025-12-04 01:52:31.827203,599618970224144934,9.00
2025-12-04 01:52:31.827203,599618970224144934,11.00
2025-12-04 01:52:31.827203,599618970224144934,11.00
2025-12-04 01:52:31.827203,599618970224144934,9.00
2025-12-04 01:52:31.827203,599618970224144934,11.00
2025-12-04 01:52:31.827203,599618970224144934,21.00
2025-12-04 01:52:31.827203,599618970224144934,42.00
2025-12-04 01:52:31.827203,599618970224144934,35.00
2025-12-04 01:52:31.827203,599618970224144934,-76.00
2025-12-04 01:52:31.827203,599618970224144934,-298.00
2025-12-04 01:52:31.827203,599618970224144934,-577.00
2025-12-04 01:52:31.827203,599618970224144934,-770.00
2025-12-04 01:52:31.827203,599618970224144934,-591.00
2025-12-04 01:52:31.827203,599618970224144934,-131.00
2025-12-04 01:52:31.827203,599618970224144934,88.00
2025-12-04 01:52:31.827203,599618970224144934,26.00
2025-12-04 01:52:31.827203,599618970224144934,38.00
2025-12-04 01:52:31.827203,599618970224144934,102.00
2025-12-04 01:52:31.827203,599618970224144934,83.00
2025-12-04 01:52:31.827203,599618970224144934,64.00
2025-12-04 01:52:31.827203,599618970224144934,76.00
2025-12-04 01:52:31.827203,599618970224144934,66.00
2025-12-04 01:52:31.827203,599618970224144934,50.00
2025-12-04 01:52:31.827203,599618970224144934,52.00
2025-12-04 01:52:31.827203,599618970224144934,47.00
2025-12-04 01:52:31.827203,599618970224144934,35.00
2025-12-04 01:52:31.827203,599618970224144934,33.00
2025-12-04 01:52:31.827203,599618970224144934,26.00
2025-12-04 01:52:31.827203,599618970224144934,14.00
2025-12-04 01:52:31.827203,599618970224144934,7.00
2025-12-04 01:52:31.827203,599618970224144934,2.00
2025-12-04 01:52:31.827203,599618970224144934,-9.00
2025-12-04 01:52:31.827203,599618970224144934,-16.00
2025-12-04 01:52:31.827203,599618970224144934,-19.00
2025-12-04 01:52:31.827203,599618970224144934,-30.00
2025-12-04 01:52:31.827203,599618970224144934,-40.00
2025-12-04 01:52:31.827203,599618970224144934,-45.00
2025-12-04 01:52:31.827203,599618970224144934,-45.00
2025-12-04 01:52:31.827203,599618970224144934,-47.00
2025-12-04 01:52:31.827203,599618970224144934,-47.00
2025-12-04 01:52:31.827203,599618970224144934,-47.00
2025-12-04 01:52:31.827203,599618970224144934,-52.00
2025-12-04 01:52:31.827203,599618970224144934,-52.00
2025-12-04 01:52:31.827203,599618970224144934,-42.00
2025-12-04 01:52:31.827203,599618970224144934,-28.00
2025-12-04 01:52:31.827203,599618970224144934,-14.00
2025-12-04 01:52:31.827203,599618970224144934,0.00
2025-12-04 01:52:31.827203,599618970224144934,11.00
2025-12-04 01:52:31.827203,599618970224144934,21.00
2025-12-04 01:52:32.389443,599618970784872493,26.00
2025-12-04 01:52:32.389443,599618970784872493,28.00
2025-12-04 01:52:32.389443,599618970784872493,33.00
2025-12-04 01:52:32.389443,599618970784872493,35.00
2025-12-04 01:52:32.389443,599618970784872493,35.00
2025-12-04 01:52:32.389443,599618970784872493,33.00
2025-12-04 01:52:32.389443,599618970784872493,30.00
2025-12-04 01:52:32.389443,599618970784872493,33.00
2025-12-04 01:52:32.389443,599618970784872493,35.00
2025-12-04 01:52:32.389443,599618970784872493,30.00
2025-12-04 01:52:32.389443,599618970784872493,28.00
2025-12-04 01:52:32.389443,599618970784872493,30.00
2025-12-04 01:52:32.389443,599618970784872493,30.00
2025-12-04 01:52:32.389443,599618970784872493,28.00
2025-12-04 01:52:32.389443,599618970784872493,28.00
2025-12-04 01:52:32.389443,599618970784872493,30.00
2025-12-04 01:52:32.389443,599618970784872493,30.00
2025-12-04 01:52:32.389443,599618970784872493,28.00
2025-12-04 01:52:32.389443,599618970784872493,28.00
2025-12-04 01:52:32.389443,599618970784872493,28.00
2025-12-04 01:52:32.389443,599618970784872493,26.00
2025-12-04 01:52:32.389443,599618970784872493,21.00
2025-12-04 01:52:32.389443,599618970784872493,19.00
2025-12-04 01:52:32.389443,599618970784872493,21.00
2025-12-04 01:52:32.389443,599618970784872493,19.00
2025-12-04 01:52:32.389443,599618970784872493,14.00
2025-12-04 01:52:32.389443,599618970784872493,16.00
2025-12-04 01:52:32.389443,599618970784872493,16.00
2025-12-04 01:52:32.389443,599618970784872493,14.00
2025-12-04 01:52:32.389443,599618970784872493,11.00
2025-12-04 01:52:32.389443,599618970784872493,14.00
2025-12-04 01:52:32.389443,599618970784872493,11.00
2025-12-04 01:52:32.389443,599618970784872493,7.00
2025-12-04 01:52:32.389443,599618970784872493,7.00
2025-12-04 01:52:32.389443,599618970784872493,7.00
2025-12-04 01:52:32.389443,599618970784872493,2.00
2025-12-04 01:52:32.389443,599618970784872493,-7.00
2025-12-04 01:52:32.389443,599618970784872493,-16.00
2025-12-04 01:52:32.389443,599618970784872493,-14.00
2025-12-04 01:52:32.389443,599618970784872493,-4.00
2025-12-04 01:52:32.389443,599618970784872493,-7.00
2025-12-04 01:52:32.389443,599618970784872493,-2.00
2025-12-04 01:52:32.389443,599618970784872493,9.00
2025-12-04 01:52:32.389443,599618970784872493,16.00
2025-12-04 01:52:32.389443,599618970784872493,11.00
2025-12-04 01:52:32.389443,599618970784872493,9.00
2025-12-04 01:52:32.389443,599618970784872493,9.00
2025-12-04 01:52:32.389443,599618970784872493,9.00
2025-12-04 01:52:32.389443,599618970784872493,7.00
2025-12-04 01:52:32.389443,599618970784872493,7.00
2025-12-04 01:52:32.389443,599618970784872493,9.00
2025-12-04 01:52:32.389443,599618970784872493,9.00
2025-12-04 01:52:32.389443,599618970784872493,14.00
2025-12-04 01:52:32.389443,599618970784872493,38.00
2025-12-04 01:52:32.389443,599618970784872493,33.00
2025-12-04 01:52:32.389443,599618970784872493,-81.00
2025-12-04 01:52:32.389443,599618970784872493,-312.00
2025-12-04 01:52:32.389443,599618970784872493,-603.00
2025-12-04 01:52:32.389443,599618970784872493,-777.00
2025-12-04 01:52:32.389443,599618970784872493,-557.00
2025-12-04 01:52:32.389443,599618970784872493,-97.00
2025-12-04 01:52:32.389443,599618970784872493,83.00
2025-12-04 01:52:32.389443,599618970784872493,11.00
2025-12-04 01:52:32.389443,599618970784872493,35.00
2025-12-04 01:52:32.389443,599618970784872493,95.00
2025-12-04 01:52:32.389443,599618970784872493,69.00
2025-12-04 01:52:32.389443,599618970784872493,57.00
2025-12-04 01:52:32.389443,599618970784872493,73.00
2025-12-04 01:52:32.389443,599618970784872493,64.00
2025-12-04 01:52:32.389443,599618970784872493,50.00
2025-12-04 01:52:32.389443,599618970784872493,47.00
2025-12-04 01:52:32.389443,599618970784872493,38.00
2025-12-04 01:52:32.389443,599618970784872493,28.00
2025-12-04 01:52:32.952496,599618971345630570,26.00
2025-12-04 01:52:32.952496,599618971345630570,23.00
2025-12-04 01:52:32.952496,599618971345630570,11.00
2025-12-04 01:52:32.952496,599618971345630570,0.00
2025-12-04 01:52:32.952496,599618971345630570,-4.00
2025-12-04 01:52:32.952496,599618971345630570,-9.00
2025-12-04 01:52:32.952496,599618971345630570,-16.00
2025-12-04 01:52:32.952496,599618971345630570,-26.00
2025-12-04 01:52:32.952496,599618971345630570,-33.00
2025-12-04 01:52:32.952496,599618971345630570,-38.00
2025-12-04 01:52:32.952496,599618971345630570,-40.00
2025-12-04 01:52:32.952496,599618971345630570,-47.00
2025-12-04 01:52:32.952496,599618971345630570,-54.00
2025-12-04 01:52:32.952496,599618971345630570,-57.00
2025-12-04 01:52:32.952496,599618971345630570,-57.00
2025-12-04 01:52:32.952496,599618971345630570,-61.00
2025-12-04 01:52:32.952496,599618971345630570,-61.00
2025-12-04 01:52:32.952496,599618971345630570,-52.00
2025-12-04 01:52:32.952496,599618971345630570,-42.00
2025-12-04 01:52:32.952496,599618971345630570,-33.00
2025-12-04 01:52:32.952496,599618971345630570,-19.00
2025-12-04 01:52:32.952496,599618971345630570,-2.00
2025-12-04 01:52:32.952496,599618971345630570,9.00
2025-12-04 01:52:32.952496,599618971345630570,16.00
2025-12-04 01:52:32.952496,599618971345630570,21.00
2025-12-04 01:52:32.952496,599618971345630570,23.00
2025-12-04 01:52:32.952496,599618971345630570,23.00
2025-12-04 01:52:32.952496,599618971345630570,21.00
2025-12-04 01:52:32.952496,599618971345630570,19.00
2025-12-04 01:52:32.952496,599618971345630570,19.00
2025-12-04 01:52:32.952496,599618971345630570,19.00
2025-12-04 01:52:32.952496,599618971345630570,16.00
2025-12-04 01:52:32.952496,599618971345630570,19.00
2025-12-04 01:52:32.952496,599618971345630570,21.00
2025-12-04 01:52:32.952496,599618971345630570,21.00
2025-12-04 01:52:32.952496,599618971345630570,16.00
2025-12-04 01:52:32.952496,599618971345630570,14.00
2025-12-04 01:52:32.952496,599618971345630570,19.00
2025-12-04 01:52:32.952496,599618971345630570,21.00
2025-12-04 01:52:32.952496,599618971345630570,16.00
2025-12-04 01:52:32.952496,599618971345630570,16.00
2025-12-04 01:52:32.952496,599618971345630570,16.00
2025-12-04 01:52:32.952496,599618971345630570,11.00
2025-12-04 01:52:32.952496,599618971345630570,9.00
2025-12-04 01:52:32.952496,599618971345630570,11.00
2025-12-04 01:52:32.952496,599618971345630570,11.00
2025-12-04 01:52:32.952496,599618971345630570,7.00
2025-12-04 01:52:32.952496,599618971345630570,7.00
2025-12-04 01:52:32.952496,599618971345630570,9.00
2025-12-04 01:52:32.952496,599618971345630570,7.00
2025-12-04 01:52:32.952496,599618971345630570,7.00
2025-12-04 01:52:32.952496,599618971345630570,4.00
2025-12-04 01:52:32.952496,599618971345630570,0.00
2025-12-04 01:52:32.952496,599618971345630570,0.00
2025-12-04 01:52:32.952496,599618971345630570,2.00
2025-12-04 01:52:32.952496,599618971345630570,4.00
2025-12-04 01:52:32.952496,599618971345630570,2.00
2025-12-04 01:52:32.952496,599618971345630570,0.00
2025-12-04 01:52:32.952496,599618971345630570,2.00
2025-12-04 01:52:32.952496,599618971345630570,-4.00
2025-12-04 01:52:32.952496,599618971345630570,-21.00
2025-12-04 01:52:32.952496,599618971345630570,-30.00
2025-12-04 01:52:32.952496,599618971345630570,-14.00
2025-12-04 01:52:32.952496,599618971345630570,-4.00
2025-12-04 01:52:32.952496,599618971345630570,-11.00
2025-12-04 01:52:32.952496,599618971345630570,0.00
2025-12-04 01:52:32.952496,599618971345630570,9.00
2025-12-04 01:52:32.952496,599618971345630570,4.00
2025-12-04 01:52:32.952496,599618971345630570,0.00
2025-12-04 01:52:32.952496,599618971345630570,4.00
2025-12-04 01:52:32.952496,599618971345630570,0.00
2025-12-04 01:52:32.952496,599618971345630570,-4.00
2025-12-04 01:52:32.952496,599618971345630570,2.00
2025-12-04 01:52:33.513196,599618971906358129,2.00
2025-12-04 01:52:33.513196,599618971906358129,-4.00
2025-12-04 01:52:33.513196,599618971906358129,2.00
2025-12-04 01:52:33.513196,599618971906358129,28.00
2025-12-04 01:52:33.513196,599618971906358129,42.00
2025-12-04 01:52:33.513196,599618971906358129,-30.00
2025-12-04 01:52:33.513196,599618971906358129,-231.00
2025-12-04 01:52:33.513196,599618971906358129,-526.00
2025-12-04 01:52:33.513196,599618971906358129,-805.00
2025-12-04 01:52:33.513196,599618971906358129,-760.00
2025-12-04 01:52:33.513196,599618971906358129,-295.00
2025-12-04 01:52:33.513196,599618971906358129,71.00
2025-12-04 01:52:33.513196,599618971906358129,47.00
2025-12-04 01:52:33.513196,599618971906358129,2.00
2025-12-04 01:52:33.513196,599618971906358129,83.00
2025-12-04 01:52:33.513196,599618971906358129,90.00
2025-12-04 01:52:33.513196,599618971906358129,54.00
2025-12-04 01:52:33.513196,599618971906358129,61.00
2025-12-04 01:52:33.513196,599618971906358129,61.00
2025-12-04 01:52:33.513196,599618971906358129,45.00
2025-12-04 01:52:33.513196,599618971906358129,38.00
2025-12-04 01:52:33.513196,599618971906358129,35.00
2025-12-04 01:52:33.513196,599618971906358129,26.00
2025-12-04 01:52:33.513196,599618971906358129,14.00
2025-12-04 01:52:33.513196,599618971906358129,7.00
2025-12-04 01:52:33.513196,599618971906358129,0.00
2025-12-04 01:52:33.513196,599618971906358129,-9.00
2025-12-04 01:52:33.513196,599618971906358129,-16.00
2025-12-04 01:52:33.513196,599618971906358129,-21.00
2025-12-04 01:52:33.513196,599618971906358129,-28.00
2025-12-04 01:52:33.513196,599618971906358129,-35.00
2025-12-04 01:52:33.513196,599618971906358129,-45.00
2025-12-04 01:52:33.513196,599618971906358129,-54.00
2025-12-04 01:52:33.513196,599618971906358129,-57.00
2025-12-04 01:52:33.513196,599618971906358129,-61.00
2025-12-04 01:52:33.513196,599618971906358129,-66.00
2025-12-04 01:52:33.513196,599618971906358129,-69.00
2025-12-04 01:52:33.513196,599618971906358129,-71.00
2025-12-04 01:52:33.513196,599618971906358129,-71.00
2025-12-04 01:52:33.513196,599618971906358129,-71.00
2025-12-04 01:52:33.513196,599618971906358129,-66.00
2025-12-04 01:52:33.513196,599618971906358129,-57.00
2025-12-04 01:52:33.513196,599618971906358129,-45.00
2025-12-04 01:52:33.513196,599618971906358129,-28.00
2025-12-04 01:52:33.513196,599618971906358129,-11.00
2025-12-04 01:52:33.513196,599618971906358129,-2.00
2025-12-04 01:52:33.513196,599618971906358129,0.00
2025-12-04 01:52:33.513196,599618971906358129,2.00
2025-12-04 01:52:33.513196,599618971906358129,11.00
2025-12-04 01:52:33.513196,599618971906358129,14.00
2025-12-04 01:52:33.513196,599618971906358129,11.00
2025-12-04 01:52:33.513196,599618971906358129,7.00
2025-12-04 01:52:33.513196,599618971906358129,7.00
2025-12-04 01:52:33.513196,599618971906358129,11.00
2025-12-04 01:52:33.513196,599618971906358129,11.00
2025-12-04 01:52:33.513196,599618971906358129,9.00
2025-12-04 01:52:33.513196,599618971906358129,11.00
2025-12-04 01:52:33.513196,599618971906358129,9.00
2025-12-04 01:52:33.513196,599618971906358129,7.00
2025-12-04 01:52:33.513196,599618971906358129,11.00
2025-12-04 01:52:33.513196,599618971906358129,11.00
2025-12-04 01:52:33.513196,599618971906358129,4.00
2025-12-04 01:52:33.513196,599618971906358129,4.00
2025-12-04 01:52:33.513196,599618971906358129,7.00
2025-12-04 01:52:33.513196,599618971906358129,4.00
2025-12-04 01:52:33.513196,599618971906358129,7.00
2025-12-04 01:52:33.513196,599618971906358129,7.00
2025-12-04 01:52:33.513196,599618971906358129,4.00
2025-12-04 01:52:33.513196,599618971906358129,2.00
2025-12-04 01:52:33.513196,599618971906358129,2.00
2025-12-04 01:52:33.513196,599618971906358129,0.00
2025-12-04 01:52:33.513196,599618971906358129,-2.00
2025-12-04 01:52:33.513196,599618971906358129,-4.00
2025-12-04 01:52:34.030213,599618972467085688,-4.00
2025-12-04 01:52:34.030213,599618972467085688,-7.00
2025-12-04 01:52:34.030213,599618972467085688,-7.00
2025-12-04 01:52:34.030213,599618972467085688,-9.00
2025-12-04 01:52:34.030213,599618972467085688,-7.00
2025-12-04 01:52:34.030213,599618972467085688,-7.00
2025-12-04 01:52:34.030213,599618972467085688,-9.00
2025-12-04 01:52:34.030213,599618972467085688,-11.00
2025-12-04 01:52:34.030213,599618972467085688,-14.00
2025-12-04 01:52:34.030213,599618972467085688,-14.00
2025-12-04 01:52:34.030213,599618972467085688,-14.00
2025-12-04 01:52:34.030213,599618972467085688,-14.00
2025-12-04 01:52:34.030213,599618972467085688,-14.00
2025-12-04 01:52:34.030213,599618972467085688,-16.00
2025-12-04 01:52:34.030213,599618972467085688,-21.00
2025-12-04 01:52:34.030213,599618972467085688,-28.00
2025-12-04 01:52:34.030213,599618972467085688,-40.00
2025-12-04 01:52:34.030213,599618972467085688,-45.00
2025-12-04 01:52:34.030213,599618972467085688,-38.00
2025-12-04 01:52:34.030213,599618972467085688,-30.00
2025-12-04 01:52:34.030213,599618972467085688,-26.00
2025-12-04 01:52:34.030213,599618972467085688,-19.00
2025-12-04 01:52:34.030213,599618972467085688,-9.00
2025-12-04 01:52:34.030213,599618972467085688,-9.00
2025-12-04 01:52:34.030213,599618972467085688,-11.00
2025-12-04 01:52:34.030213,599618972467085688,-11.00
2025-12-04 01:52:34.030213,599618972467085688,-9.00
2025-12-04 01:52:34.030213,599618972467085688,-9.00
2025-12-04 01:52:34.030213,599618972467085688,-14.00
2025-12-04 01:52:34.030213,599618972467085688,-14.00
2025-12-04 01:52:34.030213,599618972467085688,-9.00
2025-12-04 01:52:34.030213,599618972467085688,7.00
2025-12-04 01:52:34.030213,599618972467085688,28.00
2025-12-04 01:52:34.030213,599618972467085688,-9.00
2025-12-04 01:52:34.030213,599618972467085688,-171.00
2025-12-04 01:52:34.030213,599618972467085688,-441.00
2025-12-04 01:52:34.030213,599618972467085688,-746.00
2025-12-04 01:52:34.030213,599618972467085688,-827.00
2025-12-04 01:52:34.030213,599618972467085688,-462.00
2025-12-04 01:52:34.030213,599618972467085688,-14.00
2025-12-04 01:52:34.030213,599618972467085688,57.00
2025-12-04 01:52:34.030213,599618972467085688,-4.00
2025-12-04 01:52:34.030213,599618972467085688,57.00
2025-12-04 01:52:34.030213,599618972467085688,85.00
2025-12-04 01:52:34.030213,599618972467085688,50.00
2025-12-04 01:52:34.030213,599618972467085688,54.00
2025-12-04 01:52:34.030213,599618972467085688,66.00
2025-12-04 01:52:34.030213,599618972467085688,47.00
2025-12-04 01:52:34.030213,599618972467085688,35.00
2025-12-04 01:52:34.030213,599618972467085688,40.00
2025-12-04 01:52:34.030213,599618972467085688,35.00
2025-12-04 01:52:34.030213,599618972467085688,26.00
2025-12-04 01:52:34.030213,599618972467085688,21.00
2025-12-04 01:52:34.030213,599618972467085688,11.00
2025-12-04 01:52:34.030213,599618972467085688,0.00
2025-12-04 01:52:34.030213,599618972467085688,-7.00
2025-12-04 01:52:34.030213,599618972467085688,-11.00
2025-12-04 01:52:34.030213,599618972467085688,-19.00
2025-12-04 01:52:34.030213,599618972467085688,-26.00
2025-12-04 01:52:34.030213,599618972467085688,-33.00
2025-12-04 01:52:34.030213,599618972467085688,-42.00
2025-12-04 01:52:34.030213,599618972467085688,-47.00
2025-12-04 01:52:34.030213,599618972467085688,-52.00
2025-12-04 01:52:34.030213,599618972467085688,-54.00
2025-12-04 01:52:34.030213,599618972467085688,-54.00
2025-12-04 01:52:34.030213,599618972467085688,-54.00
2025-12-04 01:52:34.030213,599618972467085688,-54.00
2025-12-04 01:52:34.030213,599618972467085688,-59.00
2025-12-04 01:52:34.030213,599618972467085688,-61.00
2025-12-04 01:52:34.030213,599618972467085688,-52.00
2025-12-04 01:52:34.030213,599618972467085688,-40.00
2025-12-04 01:52:34.030213,599618972467085688,-28.00
2025-12-04 01:52:34.030213,599618972467085688,-14.00
2025-12-04 01:52:34.642598,599618973027813249,2.00
2025-12-04 01:52:34.642598,599618973027813249,14.00
2025-12-04 01:52:34.642598,599618973027813249,19.00
2025-12-04 01:52:34.642598,599618973027813249,23.00
2025-12-04 01:52:34.642598,599618973027813249,26.00
2025-12-04 01:52:34.642598,599618973027813249,23.00
2025-12-04 01:52:34.642598,599618973027813249,19.00
2025-12-04 01:52:34.642598,599618973027813249,16.00
2025-12-04 01:52:34.642598,599618973027813249,16.00
2025-12-04 01:52:34.642598,599618973027813249,16.00
2025-12-04 01:52:34.642598,599618973027813249,14.00
2025-12-04 01:52:34.642598,599618973027813249,14.00
2025-12-04 01:52:34.642598,599618973027813249,14.00
2025-12-04 01:52:34.642598,599618973027813249,16.00
2025-12-04 01:52:34.642598,599618973027813249,14.00
2025-12-04 01:52:34.642598,599618973027813249,11.00
2025-12-04 01:52:34.642598,599618973027813249,14.00
2025-12-04 01:52:34.642598,599618973027813249,11.00
2025-12-04 01:52:34.642598,599618973027813249,9.00
2025-12-04 01:52:34.642598,599618973027813249,7.00
2025-12-04 01:52:34.642598,599618973027813249,11.00
2025-12-04 01:52:34.642598,599618973027813249,11.00
2025-12-04 01:52:34.642598,599618973027813249,9.00
2025-12-04 01:52:34.642598,599618973027813249,7.00
2025-12-04 01:52:34.642598,599618973027813249,2.00
2025-12-04 01:52:34.642598,599618973027813249,4.00
2025-12-04 01:52:34.642598,599618973027813249,7.00
2025-12-04 01:52:34.642598,599618973027813249,2.00
2025-12-04 01:52:34.642598,599618973027813249,0.00
2025-12-04 01:52:34.642598,599618973027813249,0.00
2025-12-04 01:52:34.642598,599618973027813249,0.00
2025-12-04 01:52:34.642598,599618973027813249,2.00
2025-12-04 01:52:34.642598,599618973027813249,2.00
2025-12-04 01:52:34.642598,599618973027813249,2.00
2025-12-04 01:52:34.642598,599618973027813249,0.00
2025-12-04 01:52:34.642598,599618973027813249,-4.00
2025-12-04 01:52:34.642598,599618973027813249,-2.00
2025-12-04 01:52:34.642598,599618973027813249,-7.00
2025-12-04 01:52:34.642598,599618973027813249,-11.00
2025-12-04 01:52:34.642598,599618973027813249,-9.00
2025-12-04 01:52:34.642598,599618973027813249,-4.00
2025-12-04 01:52:34.642598,599618973027813249,-2.00
2025-12-04 01:52:34.642598,599618973027813249,-4.00
2025-12-04 01:52:34.642598,599618973027813249,-7.00
2025-12-04 01:52:34.642598,599618973027813249,-9.00
2025-12-04 01:52:34.642598,599618973027813249,-11.00
2025-12-04 01:52:34.642598,599618973027813249,-11.00
2025-12-04 01:52:34.642598,599618973027813249,-11.00
2025-12-04 01:52:34.642598,599618973027813249,-11.00
2025-12-04 01:52:34.642598,599618973027813249,-16.00
2025-12-04 01:52:34.642598,599618973027813249,-26.00
2025-12-04 01:52:34.642598,599618973027813249,-28.00
2025-12-04 01:52:34.642598,599618973027813249,-30.00
2025-12-04 01:52:34.642598,599618973027813249,-28.00
2025-12-04 01:52:34.642598,599618973027813249,-23.00
2025-12-04 01:52:34.642598,599618973027813249,-23.00
2025-12-04 01:52:34.642598,599618973027813249,-19.00
2025-12-04 01:52:34.642598,599618973027813249,-9.00
2025-12-04 01:52:34.642598,599618973027813249,-4.00
2025-12-04 01:52:34.642598,599618973027813249,-9.00
2025-12-04 01:52:34.642598,599618973027813249,-9.00
2025-12-04 01:52:34.642598,599618973027813249,-4.00
2025-12-04 01:52:34.642598,599618973027813249,-4.00
2025-12-04 01:52:34.642598,599618973027813249,-2.00
2025-12-04 01:52:34.642598,599618973027813249,-2.00
2025-12-04 01:52:34.642598,599618973027813249,-4.00
2025-12-04 01:52:34.642598,599618973027813249,4.00
2025-12-04 01:52:34.642598,599618973027813249,30.00
2025-12-04 01:52:34.642598,599618973027813249,14.00
2025-12-04 01:52:34.642598,599618973027813249,-116.00
2025-12-04 01:52:34.642598,599618973027813249,-352.00
2025-12-04 01:52:34.642598,599618973027813249,-643.00
2025-12-04 01:52:34.642598,599618973027813249,-808.00
2025-12-04 01:52:35.203862,599618973588540808,-565.00
2025-12-04 01:52:35.203862,599618973588540808,-100.00
2025-12-04 01:52:35.203862,599618973588540808,71.00
2025-12-04 01:52:35.203862,599618973588540808,9.00
2025-12-04 01:52:35.203862,599618973588540808,40.00
2025-12-04 01:52:35.203862,599618973588540808,95.00
2025-12-04 01:52:35.203862,599618973588540808,69.00
2025-12-04 01:52:35.203862,599618973588540808,61.00
2025-12-04 01:52:35.203862,599618973588540808,76.00
2025-12-04 01:52:35.203862,599618973588540808,64.00
2025-12-04 01:52:35.203862,599618973588540808,52.00
2025-12-04 01:52:35.203862,599618973588540808,50.00
2025-12-04 01:52:35.203862,599618973588540808,45.00
2025-12-04 01:52:35.203862,599618973588540808,33.00
2025-12-04 01:52:35.203862,599618973588540808,23.00
2025-12-04 01:52:35.203862,599618973588540808,16.00
2025-12-04 01:52:35.203862,599618973588540808,9.00
2025-12-04 01:52:35.203862,599618973588540808,2.00
2025-12-04 01:52:35.203862,599618973588540808,-4.00
2025-12-04 01:52:35.203862,599618973588540808,-11.00
2025-12-04 01:52:35.203862,599618973588540808,-16.00
2025-12-04 01:52:35.203862,599618973588540808,-21.00
2025-12-04 01:52:35.203862,599618973588540808,-30.00
2025-12-04 01:52:35.203862,599618973588540808,-38.00
2025-12-04 01:52:35.203862,599618973588540808,-42.00
2025-12-04 01:52:35.203862,599618973588540808,-50.00
2025-12-04 01:52:35.203862,599618973588540808,-52.00
2025-12-04 01:52:35.203862,599618973588540808,-52.00
2025-12-04 01:52:35.203862,599618973588540808,-52.00
2025-12-04 01:52:35.203862,599618973588540808,-54.00
2025-12-04 01:52:35.203862,599618973588540808,-54.00
2025-12-04 01:52:35.203862,599618973588540808,-52.00
2025-12-04 01:52:35.203862,599618973588540808,-45.00
2025-12-04 01:52:35.203862,599618973588540808,-30.00
2025-12-04 01:52:35.203862,599618973588540808,-14.00
2025-12-04 01:52:35.203862,599618973588540808,-2.00
2025-12-04 01:52:35.203862,599618973588540808,9.00
2025-12-04 01:52:35.203862,599618973588540808,19.00
2025-12-04 01:52:35.203862,599618973588540808,21.00
2025-12-04 01:52:35.203862,599618973588540808,21.00
2025-12-04 01:52:35.203862,599618973588540808,21.00
2025-12-04 01:52:35.203862,599618973588540808,21.00
2025-12-04 01:52:35.203862,599618973588540808,21.00
2025-12-04 01:52:35.203862,599618973588540808,21.00
2025-12-04 01:52:35.203862,599618973588540808,21.00
2025-12-04 01:52:35.203862,599618973588540808,16.00
2025-12-04 01:52:35.203862,599618973588540808,14.00
2025-12-04 01:52:35.203862,599618973588540808,19.00
2025-12-04 01:52:35.203862,599618973588540808,19.00
2025-12-04 01:52:35.203862,599618973588540808,14.00
2025-12-04 01:52:35.203862,599618973588540808,14.00
2025-12-04 01:52:35.203862,599618973588540808,16.00
2025-12-04 01:52:35.203862,599618973588540808,16.00
2025-12-04 01:52:35.203862,599618973588540808,16.00
2025-12-04 01:52:35.203862,599618973588540808,19.00
2025-12-04 01:52:35.203862,599618973588540808,16.00
2025-12-04 01:52:35.203862,599618973588540808,16.00
2025-12-04 01:52:35.203862,599618973588540808,14.00
2025-12-04 01:52:35.203862,599618973588540808,11.00
2025-12-04 01:52:35.203862,599618973588540808,11.00
2025-12-04 01:52:35.203862,599618973588540808,9.00
2025-12-04 01:52:35.203862,599618973588540808,4.00
2025-12-04 01:52:35.203862,599618973588540808,4.00
2025-12-04 01:52:35.203862,599618973588540808,7.00
2025-12-04 01:52:35.203862,599618973588540808,9.00
2025-12-04 01:52:35.203862,599618973588540808,9.00
2025-12-04 01:52:35.203862,599618973588540808,7.00
2025-12-04 01:52:35.203862,599618973588540808,4.00
2025-12-04 01:52:35.203862,599618973588540808,4.00
2025-12-04 01:52:35.203862,599618973588540808,4.00
2025-12-04 01:52:35.203862,599618973588540808,2.00
2025-12-04 01:52:35.203862,599618973588540808,-4.00
2025-12-04 01:52:35.203862,599618973588540808,-7.00
2025-12-04 01:52:35.766253,599618974149268367,-7.00
2025-12-04 01:52:35.766253,599618974149268367,-7.00
2025-12-04 01:52:35.766253,599618974149268367,-2.00
2025-12-04 01:52:35.766253,599618974149268367,-2.00
2025-12-04 01:52:35.766253,599618974149268367,-4.00
2025-12-04 01:52:35.766253,599618974149268367,-4.00
2025-12-04 01:52:35.766253,599618974149268367,-4.00
2025-12-04 01:52:35.766253,599618974149268367,-4.00
2025-12-04 01:52:35.766253,599618974149268367,-7.00
2025-12-04 01:52:35.766253,599618974149268367,-11.00
2025-12-04 01:52:35.766253,599618974149268367,-11.00
2025-12-04 01:52:35.766253,599618974149268367,-7.00
2025-12-04 01:52:35.766253,599618974149268367,-7.00
2025-12-04 01:52:35.766253,599618974149268367,-11.00
2025-12-04 01:52:35.766253,599618974149268367,-21.00
2025-12-04 01:52:35.766253,599618974149268367,-26.00
2025-12-04 01:52:35.766253,599618974149268367,-23.00
2025-12-04 01:52:35.766253,599618974149268367,-21.00
2025-12-04 01:52:35.766253,599618974149268367,-16.00
2025-12-04 01:52:35.766253,599618974149268367,-9.00
2025-12-04 01:52:35.766253,599618974149268367,0.00
2025-12-04 01:52:35.766253,599618974149268367,0.00
2025-12-04 01:52:35.766253,599618974149268367,2.00
2025-12-04 01:52:35.766253,599618974149268367,2.00
2025-12-04 01:52:35.766253,599618974149268367,4.00
2025-12-04 01:52:35.766253,599618974149268367,4.00
2025-12-04 01:52:35.766253,599618974149268367,7.00
2025-12-04 01:52:35.766253,599618974149268367,4.00
2025-12-04 01:52:35.766253,599618974149268367,4.00
2025-12-04 01:52:35.766253,599618974149268367,9.00
2025-12-04 01:52:35.766253,599618974149268367,33.00
2025-12-04 01:52:35.766253,599618974149268367,42.00
2025-12-04 01:52:35.766253,599618974149268367,-52.00
2025-12-04 01:52:35.766253,599618974149268367,-262.00
2025-12-04 01:52:35.766253,599618974149268367,-538.00
2025-12-04 01:52:35.766253,599618974149268367,-765.00
2025-12-04 01:52:35.766253,599618974149268367,-658.00
2025-12-04 01:52:35.766253,599618974149268367,-214.00
2025-12-04 01:52:35.766253,599618974149268367,66.00
2025-12-04 01:52:35.766253,599618974149268367,26.00
2025-12-04 01:52:35.766253,599618974149268367,19.00
2025-12-04 01:52:35.766253,599618974149268367,90.00
2025-12-04 01:52:35.766253,599618974149268367,81.00
2025-12-04 01:52:35.766253,599618974149268367,59.00
2025-12-04 01:52:35.766253,599618974149268367,73.00
2025-12-04 01:52:35.766253,599618974149268367,66.00
2025-12-04 01:52:35.766253,599618974149268367,45.00
2025-12-04 01:52:35.766253,599618974149268367,42.00
2025-12-04 01:52:35.766253,599618974149268367,40.00
2025-12-04 01:52:35.766253,599618974149268367,30.00
2025-12-04 01:52:35.766253,599618974149268367,26.00
2025-12-04 01:52:35.766253,599618974149268367,19.00
2025-12-04 01:52:35.766253,599618974149268367,7.00
2025-12-04 01:52:35.766253,599618974149268367,-2.00
2025-12-04 01:52:35.766253,599618974149268367,-4.00
2025-12-04 01:52:35.766253,599618974149268367,-11.00
2025-12-04 01:52:35.766253,599618974149268367,-19.00
2025-12-04 01:52:35.766253,599618974149268367,-23.00
2025-12-04 01:52:35.766253,599618974149268367,-30.00
2025-12-04 01:52:35.766253,599618974149268367,-40.00
2025-12-04 01:52:35.766253,599618974149268367,-47.00
2025-12-04 01:52:35.766253,599618974149268367,-50.00
2025-12-04 01:52:35.766253,599618974149268367,-52.00
2025-12-04 01:52:35.766253,599618974149268367,-54.00
2025-12-04 01:52:35.766253,599618974149268367,-57.00
2025-12-04 01:52:35.766253,599618974149268367,-57.00
2025-12-04 01:52:35.766253,599618974149268367,-57.00
2025-12-04 01:52:35.766253,599618974149268367,-54.00
2025-12-04 01:52:35.766253,599618974149268367,-50.00
2025-12-04 01:52:35.766253,599618974149268367,-38.00
2025-12-04 01:52:35.766253,599618974149268367,-21.00
2025-12-04 01:52:35.766253,599618974149268367,-7.00
2025-12-04 01:52:35.766253,599618974149268367,4.00
2025-12-04 01:52:36.276529,599618974710016270,14.00
2025-12-04 01:52:36.276529,599618974710016270,19.00
2025-12-04 01:52:36.276529,599618974710016270,21.00
2025-12-04 01:52:36.276529,599618974710016270,23.00
2025-12-04 01:52:36.276529,599618974710016270,26.00
2025-12-04 01:52:36.276529,599618974710016270,23.00
2025-12-04 01:52:36.276529,599618974710016270,21.00
2025-12-04 01:52:36.276529,599618974710016270,21.00
2025-12-04 01:52:36.276529,599618974710016270,21.00
2025-12-04 01:52:36.276529,599618974710016270,21.00
2025-12-04 01:52:36.276529,599618974710016270,19.00
2025-12-04 01:52:36.276529,599618974710016270,19.00
2025-12-04 01:52:36.276529,599618974710016270,21.00
2025-12-04 01:52:36.276529,599618974710016270,19.00
2025-12-04 01:52:36.276529,599618974710016270,14.00
2025-12-04 01:52:36.276529,599618974710016270,16.00
2025-12-04 01:52:36.276529,599618974710016270,21.00
2025-12-04 01:52:36.276529,599618974710016270,16.00
2025-12-04 01:52:36.276529,599618974710016270,14.00
2025-12-04 01:52:36.276529,599618974710016270,19.00
2025-12-04 01:52:36.276529,599618974710016270,23.00
2025-12-04 01:52:36.276529,599618974710016270,21.00
2025-12-04 01:52:36.276529,599618974710016270,19.00
2025-12-04 01:52:36.276529,599618974710016270,21.00
2025-12-04 01:52:36.276529,599618974710016270,19.00
2025-12-04 01:52:36.276529,599618974710016270,16.00
2025-12-04 01:52:36.276529,599618974710016270,16.00
2025-12-04 01:52:36.276529,599618974710016270,16.00
2025-12-04 01:52:36.276529,599618974710016270,16.00
2025-12-04 01:52:36.276529,599618974710016270,16.00
2025-12-04 01:52:36.276529,599618974710016270,16.00
2025-12-04 01:52:36.276529,599618974710016270,14.00
2025-12-04 01:52:36.276529,599618974710016270,11.00
2025-12-04 01:52:36.276529,599618974710016270,9.00
2025-12-04 01:52:36.276529,599618974710016270,7.00
2025-12-04 01:52:36.276529,599618974710016270,9.00
2025-12-04 01:52:36.276529,599618974710016270,9.00
2025-12-04 01:52:36.276529,599618974710016270,7.00
2025-12-04 01:52:36.276529,599618974710016270,4.00
2025-12-04 01:52:36.276529,599618974710016270,7.00
2025-12-04 01:52:36.276529,599618974710016270,4.00
2025-12-04 01:52:36.276529,599618974710016270,2.00
2025-12-04 01:52:36.276529,599618974710016270,2.00
2025-12-04 01:52:36.276529,599618974710016270,2.00
2025-12-04 01:52:36.276529,599618974710016270,2.00
2025-12-04 01:52:36.276529,599618974710016270,4.00
2025-12-04 01:52:36.276529,599618974710016270,4.00
2025-12-04 01:52:36.276529,599618974710016270,2.00
2025-12-04 01:52:36.276529,599618974710016270,-2.00
2025-12-04 01:52:36.276529,599618974710016270,-9.00
2025-12-04 01:52:36.276529,599618974710016270,-16.00
2025-12-04 01:52:36.276529,599618974710016270,-11.00
2025-12-04 01:52:36.276529,599618974710016270,-11.00
2025-12-04 01:52:36.276529,599618974710016270,-9.00
2025-12-04 01:52:36.276529,599618974710016270,2.00
2025-12-04 01:52:36.276529,599618974710016270,11.00
2025-12-04 01:52:36.276529,599618974710016270,7.00
2025-12-04 01:52:36.276529,599618974710016270,2.00
2025-12-04 01:52:36.276529,599618974710016270,7.00
2025-12-04 01:52:36.276529,599618974710016270,11.00
2025-12-04 01:52:36.276529,599618974710016270,9.00
2025-12-04 01:52:36.276529,599618974710016270,7.00
2025-12-04 01:52:36.276529,599618974710016270,7.00
2025-12-04 01:52:36.276529,599618974710016270,7.00
2025-12-04 01:52:36.276529,599618974710016270,11.00
2025-12-04 01:52:36.276529,599618974710016270,35.00
2025-12-04 01:52:36.276529,599618974710016270,35.00
2025-12-04 01:52:36.276529,599618974710016270,-71.00
2025-12-04 01:52:36.276529,599618974710016270,-312.00
2025-12-04 01:52:36.276529,599618974710016270,-622.00
2025-12-04 01:52:36.276529,599618974710016270,-813.00
2025-12-04 01:52:36.276529,599618974710016270,-593.00
2025-12-04 01:52:36.276529,599618974710016270,-109.00
2025-12-04 01:52:36.844724,599618975270754003,95.00
2025-12-04 01:52:36.844724,599618975270754003,21.00
2025-12-04 01:52:36.844724,599618975270754003,38.00
2025-12-04 01:52:36.844724,599618975270754003,102.00
2025-12-04 01:52:36.844724,599618975270754003,78.00
2025-12-04 01:52:36.844724,599618975270754003,61.00
2025-12-04 01:52:36.844724,599618975270754003,73.00
2025-12-04 01:52:36.844724,599618975270754003,61.00
2025-12-04 01:52:36.844724,599618975270754003,47.00
2025-12-04 01:52:36.844724,599618975270754003,45.00
2025-12-04 01:52:36.844724,599618975270754003,40.00
2025-12-04 01:52:36.844724,599618975270754003,30.00
2025-12-04 01:52:36.844724,599618975270754003,26.00
2025-12-04 01:52:36.844724,599618975270754003,23.00
2025-12-04 01:52:36.844724,599618975270754003,16.00
2025-12-04 01:52:36.844724,599618975270754003,2.00
2025-12-04 01:52:36.844724,599618975270754003,-4.00
2025-12-04 01:52:36.844724,599618975270754003,-9.00
2025-12-04 01:52:36.844724,599618975270754003,-21.00
2025-12-04 01:52:36.844724,599618975270754003,-33.00
2025-12-04 01:52:36.844724,599618975270754003,-38.00
2025-12-04 01:52:36.844724,599618975270754003,-45.00
2025-12-04 01:52:36.844724,599618975270754003,-52.00
2025-12-04 01:52:36.844724,599618975270754003,-57.00
2025-12-04 01:52:36.844724,599618975270754003,-59.00
2025-12-04 01:52:36.844724,599618975270754003,-61.00
2025-12-04 01:52:36.844724,599618975270754003,-64.00
2025-12-04 01:52:36.844724,599618975270754003,-64.00
2025-12-04 01:52:36.844724,599618975270754003,-61.00
2025-12-04 01:52:36.844724,599618975270754003,-54.00
2025-12-04 01:52:36.844724,599618975270754003,-50.00
2025-12-04 01:52:36.844724,599618975270754003,-38.00
2025-12-04 01:52:36.844724,599618975270754003,-21.00
2025-12-04 01:52:36.844724,599618975270754003,-4.00
2025-12-04 01:52:36.844724,599618975270754003,9.00
2025-12-04 01:52:36.844724,599618975270754003,21.00
2025-12-04 01:52:36.844724,599618975270754003,23.00
2025-12-04 01:52:36.844724,599618975270754003,26.00
2025-12-04 01:52:36.844724,599618975270754003,23.00
2025-12-04 01:52:36.844724,599618975270754003,21.00
2025-12-04 01:52:36.844724,599618975270754003,21.00
2025-12-04 01:52:36.844724,599618975270754003,21.00
2025-12-04 01:52:36.844724,599618975270754003,16.00
2025-12-04 01:52:36.844724,599618975270754003,9.00
2025-12-04 01:52:36.844724,599618975270754003,9.00
2025-12-04 01:52:36.844724,599618975270754003,16.00
2025-12-04 01:52:36.844724,599618975270754003,16.00
2025-12-04 01:52:36.844724,599618975270754003,11.00
2025-12-04 01:52:36.844724,599618975270754003,14.00
2025-12-04 01:52:36.844724,599618975270754003,19.00
2025-12-04 01:52:36.844724,599618975270754003,14.00
2025-12-04 01:52:36.844724,599618975270754003,11.00
2025-12-04 01:52:36.844724,599618975270754003,16.00
2025-12-04 01:52:36.844724,599618975270754003,16.00
2025-12-04 01:52:36.844724,599618975270754003,9.00
2025-12-04 01:52:36.844724,599618975270754003,11.00
2025-12-04 01:52:36.844724,599618975270754003,16.00
2025-12-04 01:52:36.844724,599618975270754003,11.00
2025-12-04 01:52:36.844724,599618975270754003,7.00
2025-12-04 01:52:36.844724,599618975270754003,11.00
2025-12-04 01:52:36.844724,599618975270754003,11.00
2025-12-04 01:52:36.844724,599618975270754003,7.00
2025-12-04 01:52:36.844724,599618975270754003,7.00
2025-12-04 01:52:36.844724,599618975270754003,7.00
2025-12-04 01:52:36.844724,599618975270754003,4.00
2025-12-04 01:52:36.844724,599618975270754003,4.00
2025-12-04 01:52:36.844724,599618975270754003,7.00
2025-12-04 01:52:36.844724,599618975270754003,0.00
2025-12-04 01:52:36.844724,599618975270754003,-2.00
2025-12-04 01:52:36.844724,599618975270754003,2.00
2025-12-04 01:52:36.844724,599618975270754003,2.00
2025-12-04 01:52:36.844724,599618975270754003,-2.00
2025-12-04 01:52:36.844724,599618975270754003,-2.00
2025-12-04 01:52:37.406557,599618975831481562,-2.00
2025-12-04 01:52:37.406557,599618975831481562,-4.00
2025-12-04 01:52:37.406557,599618975831481562,-4.00
2025-12-04 01:52:37.406557,599618975831481562,-2.00
2025-12-04 01:52:37.406557,599618975831481562,-2.00
2025-12-04 01:52:37.406557,599618975831481562,-11.00
2025-12-04 01:52:37.406557,599618975831481562,-21.00
2025-12-04 01:52:37.406557,599618975831481562,-19.00
2025-12-04 01:52:37.406557,599618975831481562,-16.00
2025-12-04 01:52:37.406557,599618975831481562,-19.00
2025-12-04 01:52:37.406557,599618975831481562,-16.00
2025-12-04 01:52:37.406557,599618975831481562,-9.00
2025-12-04 01:52:37.406557,599618975831481562,-2.00
2025-12-04 01:52:37.406557,599618975831481562,0.00
2025-12-04 01:52:37.406557,599618975831481562,-2.00
2025-12-04 01:52:37.406557,599618975831481562,-4.00
2025-12-04 01:52:37.406557,599618975831481562,-2.00
2025-12-04 01:52:37.406557,599618975831481562,-2.00
2025-12-04 01:52:37.406557,599618975831481562,-2.00
2025-12-04 01:52:37.406557,599618975831481562,-2.00
2025-12-04 01:52:37.406557,599618975831481562,0.00
2025-12-04 01:52:37.406557,599618975831481562,11.00
2025-12-04 01:52:37.406557,599618975831481562,35.00
2025-12-04 01:52:37.406557,599618975831481562,9.00
2025-12-04 01:52:37.406557,599618975831481562,-133.00
2025-12-04 01:52:37.406557,599618975831481562,-402.00
2025-12-04 01:52:37.406557,599618975831481562,-720.00
2025-12-04 01:52:37.406557,599618975831481562,-853.00
2025-12-04 01:52:37.406557,599618975831481562,-529.00
2025-12-04 01:52:37.406557,599618975831481562,-40.00
2025-12-04 01:52:37.406557,599618975831481562,83.00
2025-12-04 01:52:37.406557,599618975831481562,4.00
2025-12-04 01:52:37.406557,599618975831481562,54.00
2025-12-04 01:52:37.406557,599618975831481562,100.00
2025-12-04 01:52:37.406557,599618975831481562,61.00
2025-12-04 01:52:37.406557,599618975831481562,59.00
2025-12-04 01:52:37.406557,599618975831481562,73.00
2025-12-04 01:52:37.406557,599618975831481562,57.00
2025-12-04 01:52:37.406557,599618975831481562,38.00
2025-12-04 01:52:37.406557,599618975831481562,40.00
2025-12-04 01:52:37.406557,599618975831481562,38.00
2025-12-04 01:52:37.406557,599618975831481562,26.00
2025-12-04 01:52:37.406557,599618975831481562,19.00
2025-12-04 01:52:37.406557,599618975831481562,11.00
2025-12-04 01:52:37.406557,599618975831481562,2.00
2025-12-04 01:52:37.406557,599618975831481562,-9.00
2025-12-04 01:52:37.406557,599618975831481562,-16.00
2025-12-04 01:52:37.406557,599618975831481562,-26.00
2025-12-04 01:52:37.406557,599618975831481562,-35.00
2025-12-04 01:52:37.406557,599618975831481562,-40.00
2025-12-04 01:52:37.406557,599618975831481562,-45.00
2025-12-04 01:52:37.406557,599618975831481562,-50.00
2025-12-04 01:52:37.406557,599618975831481562,-59.00
2025-12-04 01:52:37.406557,599618975831481562,-64.00
2025-12-04 01:52:37.406557,599618975831481562,-66.00
2025-12-04 01:52:37.406557,599618975831481562,-69.00
2025-12-04 01:52:37.406557,599618975831481562,-73.00
2025-12-04 01:52:37.406557,599618975831481562,-71.00
2025-12-04 01:52:37.406557,599618975831481562,-64.00
2025-12-04 01:52:37.406557,599618975831481562,-59.00
2025-12-04 01:52:37.406557,599618975831481562,-47.00
2025-12-04 01:52:37.406557,599618975831481562,-30.00
2025-12-04 01:52:37.406557,599618975831481562,-14.00
2025-12-04 01:52:37.406557,599618975831481562,2.00
2025-12-04 01:52:37.406557,599618975831481562,14.00
2025-12-04 01:52:37.406557,599618975831481562,21.00
2025-12-04 01:52:37.406557,599618975831481562,21.00
2025-12-04 01:52:37.406557,599618975831481562,21.00
2025-12-04 01:52:37.406557,599618975831481562,23.00
2025-12-04 01:52:37.406557,599618975831481562,21.00
2025-12-04 01:52:37.406557,599618975831481562,21.00
2025-12-04 01:52:37.406557,599618975831481562,23.00
2025-12-04 01:52:37.406557,599618975831481562,21.00
2025-12-04 01:52:38.018990,599618976392209123,16.00
2025-12-04 01:52:38.018990,599618976392209123,14.00
2025-12-04 01:52:38.018990,599618976392209123,14.00
2025-12-04 01:52:38.018990,599618976392209123,16.00
2025-12-04 01:52:38.018990,599618976392209123,21.00
2025-12-04 01:52:38.018990,599618976392209123,21.00
2025-12-04 01:52:38.018990,599618976392209123,16.00
2025-12-04 01:52:38.018990,599618976392209123,16.00
2025-12-04 01:52:38.018990,599618976392209123,21.00
2025-12-04 01:52:38.018990,599618976392209123,23.00
2025-12-04 01:52:38.018990,599618976392209123,21.00
2025-12-04 01:52:38.018990,599618976392209123,16.00
2025-12-04 01:52:38.018990,599618976392209123,19.00
2025-12-04 01:52:38.018990,599618976392209123,19.00
2025-12-04 01:52:38.018990,599618976392209123,19.00
2025-12-04 01:52:38.018990,599618976392209123,21.00
2025-12-04 01:52:38.018990,599618976392209123,16.00
2025-12-04 01:52:38.018990,599618976392209123,11.00
2025-12-04 01:52:38.018990,599618976392209123,14.00
2025-12-04 01:52:38.018990,599618976392209123,14.00
2025-12-04 01:52:38.018990,599618976392209123,9.00
2025-12-04 01:52:38.018990,599618976392209123,9.00
2025-12-04 01:52:38.018990,599618976392209123,11.00
2025-12-04 01:52:38.018990,599618976392209123,9.00
2025-12-04 01:52:38.018990,599618976392209123,7.00
2025-12-04 01:52:38.018990,599618976392209123,7.00
2025-12-04 01:52:38.018990,599618976392209123,9.00
2025-12-04 01:52:38.018990,599618976392209123,9.00
2025-12-04 01:52:38.018990,599618976392209123,9.00
2025-12-04 01:52:38.018990,599618976392209123,9.00
2025-12-04 01:52:38.018990,599618976392209123,4.00
2025-12-04 01:52:38.018990,599618976392209123,4.00
2025-12-04 01:52:38.018990,599618976392209123,7.00
2025-12-04 01:52:38.018990,599618976392209123,2.00
2025-12-04 01:52:38.018990,599618976392209123,0.00
2025-12-04 01:52:38.018990,599618976392209123,0.00
2025-12-04 01:52:38.018990,599618976392209123,-4.00
2025-12-04 01:52:38.018990,599618976392209123,-16.00
2025-12-04 01:52:38.018990,599618976392209123,-21.00
2025-12-04 01:52:38.018990,599618976392209123,-14.00
2025-12-04 01:52:38.018990,599618976392209123,-7.00
2025-12-04 01:52:38.018990,599618976392209123,-7.00
2025-12-04 01:52:38.018990,599618976392209123,0.00
2025-12-04 01:52:38.018990,599618976392209123,7.00
2025-12-04 01:52:38.018990,599618976392209123,7.00
2025-12-04 01:52:38.018990,599618976392209123,7.00
2025-12-04 01:52:38.018990,599618976392209123,7.00
2025-12-04 01:52:38.018990,599618976392209123,4.00
2025-12-04 01:52:38.018990,599618976392209123,4.00
2025-12-04 01:52:38.018990,599618976392209123,4.00
2025-12-04 01:52:38.018990,599618976392209123,4.00
2025-12-04 01:52:38.018990,599618976392209123,2.00
2025-12-04 01:52:38.018990,599618976392209123,16.00
2025-12-04 01:52:38.018990,599618976392209123,42.00
2025-12-04 01:52:38.018990,599618976392209123,26.00
2025-12-04 01:52:38.018990,599618976392209123,-104.00
2025-12-04 01:52:38.018990,599618976392209123,-352.00
2025-12-04 01:52:38.018990,599618976392209123,-660.00
2025-12-04 01:52:38.018990,599618976392209123,-832.00
2025-12-04 01:52:38.018990,599618976392209123,-574.00
2025-12-04 01:52:38.018990,599618976392209123,-92.00
2025-12-04 01:52:38.018990,599618976392209123,81.00
2025-12-04 01:52:38.018990,599618976392209123,11.00
2025-12-04 01:52:38.018990,599618976392209123,47.00
2025-12-04 01:52:38.018990,599618976392209123,104.00
2025-12-04 01:52:38.018990,599618976392209123,76.00
2025-12-04 01:52:38.018990,599618976392209123,64.00
2025-12-04 01:52:38.018990,599618976392209123,76.00
2025-12-04 01:52:38.018990,599618976392209123,61.00
2025-12-04 01:52:38.018990,599618976392209123,47.00
2025-12-04 01:52:38.018990,599618976392209123,47.00
2025-12-04 01:52:38.018990,599618976392209123,38.00
2025-12-04 01:52:38.018990,599618976392209123,26.00
2025-12-04 01:52:38.578637,599618976952936682,26.00
2025-12-04 01:52:38.578637,599618976952936682,19.00
2025-12-04 01:52:38.578637,599618976952936682,9.00
2025-12-04 01:52:38.578637,599618976952936682,0.00
2025-12-04 01:52:38.578637,599618976952936682,-7.00
2025-12-04 01:52:38.578637,599618976952936682,-11.00
2025-12-04 01:52:38.578637,599618976952936682,-21.00
2025-12-04 01:52:38.578637,599618976952936682,-30.00
2025-12-04 01:52:38.578637,599618976952936682,-35.00
2025-12-04 01:52:38.578637,599618976952936682,-40.00
2025-12-04 01:52:38.578637,599618976952936682,-52.00
2025-12-04 01:52:38.578637,599618976952936682,-61.00
2025-12-04 01:52:38.578637,599618976952936682,-61.00
2025-12-04 01:52:38.578637,599618976952936682,-66.00
2025-12-04 01:52:38.578637,599618976952936682,-64.00
2025-12-04 01:52:38.578637,599618976952936682,-61.00
2025-12-04 01:52:38.578637,599618976952936682,-61.00
2025-12-04 01:52:38.578637,599618976952936682,-59.00
2025-12-04 01:52:38.578637,599618976952936682,-50.00
2025-12-04 01:52:38.578637,599618976952936682,-33.00
2025-12-04 01:52:38.578637,599618976952936682,-11.00
2025-12-04 01:52:38.578637,599618976952936682,4.00
2025-12-04 01:52:38.578637,599618976952936682,11.00
2025-12-04 01:52:38.578637,599618976952936682,19.00
2025-12-04 01:52:38.578637,599618976952936682,23.00
2025-12-04 01:52:38.578637,599618976952936682,26.00
2025-12-04 01:52:38.578637,599618976952936682,26.00
2025-12-04 01:52:38.578637,599618976952936682,23.00
2025-12-04 01:52:38.578637,599618976952936682,21.00
2025-12-04 01:52:38.578637,599618976952936682,19.00
2025-12-04 01:52:38.578637,599618976952936682,14.00
2025-12-04 01:52:38.578637,599618976952936682,11.00
2025-12-04 01:52:38.578637,599618976952936682,11.00
2025-12-04 01:52:38.578637,599618976952936682,14.00
2025-12-04 01:52:38.578637,599618976952936682,14.00
2025-12-04 01:52:38.578637,599618976952936682,14.00
2025-12-04 01:52:38.578637,599618976952936682,14.00
2025-12-04 01:52:38.578637,599618976952936682,14.00
2025-12-04 01:52:38.578637,599618976952936682,14.00
2025-12-04 01:52:38.578637,599618976952936682,16.00
2025-12-04 01:52:38.578637,599618976952936682,16.00
2025-12-04 01:52:38.578637,599618976952936682,14.00
2025-12-04 01:52:38.578637,599618976952936682,9.00
2025-12-04 01:52:38.578637,599618976952936682,9.00
2025-12-04 01:52:38.578637,599618976952936682,11.00
2025-12-04 01:52:38.578637,599618976952936682,11.00
2025-12-04 01:52:38.578637,599618976952936682,11.00
2025-12-04 01:52:38.578637,599618976952936682,9.00
2025-12-04 01:52:38.578637,599618976952936682,7.00
2025-12-04 01:52:38.578637,599618976952936682,7.00
2025-12-04 01:52:38.578637,599618976952936682,7.00
2025-12-04 01:52:38.578637,599618976952936682,4.00
2025-12-04 01:52:38.578637,599618976952936682,2.00
2025-12-04 01:52:38.578637,599618976952936682,4.00
2025-12-04 01:52:38.578637,599618976952936682,2.00
2025-12-04 01:52:38.578637,599618976952936682,-2.00
2025-12-04 01:52:38.578637,599618976952936682,2.00
2025-12-04 01:52:38.578637,599618976952936682,7.00
2025-12-04 01:52:38.578637,599618976952936682,0.00
2025-12-04 01:52:38.578637,599618976952936682,-2.00
2025-12-04 01:52:38.578637,599618976952936682,2.00
2025-12-04 01:52:38.578637,599618976952936682,0.00
2025-12-04 01:52:38.578637,599618976952936682,0.00
2025-12-04 01:52:38.578637,599618976952936682,0.00
2025-12-04 01:52:38.578637,599618976952936682,-2.00
2025-12-04 01:52:38.578637,599618976952936682,-4.00
2025-12-04 01:52:38.578637,599618976952936682,-7.00
2025-12-04 01:52:38.578637,599618976952936682,-7.00
2025-12-04 01:52:38.578637,599618976952936682,-4.00
2025-12-04 01:52:38.578637,599618976952936682,-9.00
2025-12-04 01:52:38.578637,599618976952936682,-16.00
2025-12-04 01:52:38.578637,599618976952936682,-26.00
2025-12-04 01:52:38.578637,599618976952936682,-30.00
2025-12-04 01:52:39.141870,599618977513679499,-26.00
2025-12-04 01:52:39.141870,599618977513679499,-21.00
2025-12-04 01:52:39.141870,599618977513679499,-19.00
2025-12-04 01:52:39.141870,599618977513679499,-14.00
2025-12-04 01:52:39.141870,599618977513679499,-4.00
2025-12-04 01:52:39.141870,599618977513679499,0.00
2025-12-04 01:52:39.141870,599618977513679499,-4.00
2025-12-04 01:52:39.141870,599618977513679499,-2.00
2025-12-04 01:52:39.141870,599618977513679499,0.00
2025-12-04 01:52:39.141870,599618977513679499,0.00
2025-12-04 01:52:39.141870,599618977513679499,-2.00
2025-12-04 01:52:39.141870,599618977513679499,-2.00
2025-12-04 01:52:39.141870,599618977513679499,-2.00
2025-12-04 01:52:39.141870,599618977513679499,4.00
2025-12-04 01:52:39.141870,599618977513679499,30.00
2025-12-04 01:52:39.141870,599618977513679499,30.00
2025-12-04 01:52:39.141870,599618977513679499,-76.00
2025-12-04 01:52:39.141870,599618977513679499,-300.00
2025-12-04 01:52:39.141870,599618977513679499,-598.00
2025-12-04 01:52:39.141870,599618977513679499,-813.00
2025-12-04 01:52:39.141870,599618977513679499,-648.00
2025-12-04 01:52:39.141870,599618977513679499,-178.00
2025-12-04 01:52:39.141870,599618977513679499,71.00
2025-12-04 01:52:39.141870,599618977513679499,21.00
2025-12-04 01:52:39.141870,599618977513679499,28.00
2025-12-04 01:52:39.141870,599618977513679499,95.00
2025-12-04 01:52:39.141870,599618977513679499,78.00
2025-12-04 01:52:39.141870,599618977513679499,57.00
2025-12-04 01:52:39.141870,599618977513679499,64.00
2025-12-04 01:52:39.141870,599618977513679499,57.00
2025-12-04 01:52:39.141870,599618977513679499,40.00
2025-12-04 01:52:39.141870,599618977513679499,38.00
2025-12-04 01:52:39.141870,599618977513679499,35.00
2025-12-04 01:52:39.141870,599618977513679499,26.00
2025-12-04 01:52:39.141870,599618977513679499,16.00
2025-12-04 01:52:39.141870,599618977513679499,11.00
2025-12-04 01:52:39.141870,599618977513679499,2.00
2025-12-04 01:52:39.141870,599618977513679499,-4.00
2025-12-04 01:52:39.141870,599618977513679499,-14.00
2025-12-04 01:52:39.141870,599618977513679499,-21.00
2025-12-04 01:52:39.141870,599618977513679499,-30.00
2025-12-04 01:52:39.141870,599618977513679499,-38.00
2025-12-04 01:52:39.141870,599618977513679499,-45.00
2025-12-04 01:52:39.141870,599618977513679499,-54.00
2025-12-04 01:52:39.141870,599618977513679499,-64.00
2025-12-04 01:52:39.141870,599618977513679499,-66.00
2025-12-04 01:52:39.141870,599618977513679499,-66.00
2025-12-04 01:52:39.141870,599618977513679499,-69.00
2025-12-04 01:52:39.141870,599618977513679499,-69.00
2025-12-04 01:52:39.141870,599618977513679499,-66.00
2025-12-04 01:52:39.141870,599618977513679499,-64.00
2025-12-04 01:52:39.141870,599618977513679499,-64.00
2025-12-04 01:52:39.141870,599618977513679499,-54.00
2025-12-04 01:52:39.141870,599618977513679499,-38.00
2025-12-04 01:52:39.141870,599618977513679499,-23.00
2025-12-04 01:52:39.141870,599618977513679499,-4.00
2025-12-04 01:52:39.141870,599618977513679499,11.00
2025-12-04 01:52:39.141870,599618977513679499,19.00
2025-12-04 01:52:39.141870,599618977513679499,21.00
2025-12-04 01:52:39.141870,599618977513679499,26.00
2025-12-04 01:52:39.141870,599618977513679499,23.00
2025-12-04 01:52:39.141870,599618977513679499,23.00
2025-12-04 01:52:39.141870,599618977513679499,23.00
2025-12-04 01:52:39.141870,599618977513679499,19.00
2025-12-04 01:52:39.141870,599618977513679499,11.00
2025-12-04 01:52:39.141870,599618977513679499,9.00
2025-12-04 01:52:39.141870,599618977513679499,9.00
2025-12-04 01:52:39.141870,599618977513679499,9.00
2025-12-04 01:52:39.141870,599618977513679499,9.00
2025-12-04 01:52:39.141870,599618977513679499,4.00
2025-12-04 01:52:39.141870,599618977513679499,2.00
2025-12-04 01:52:39.141870,599618977513679499,4.00
2025-12-04 01:52:39.141870,599618977513679499,9.00
2025-12-04 01:52:39.698527,599618978074412144,9.00
2025-12-04 01:52:39.698527,599618978074412144,7.00
2025-12-04 01:52:39.698527,599618978074412144,7.00
2025-12-04 01:52:39.698527,599618978074412144,7.00
2025-12-04 01:52:39.698527,599618978074412144,4.00
2025-12-04 01:52:39.698527,599618978074412144,7.00
2025-12-04 01:52:39.698527,599618978074412144,9.00
2025-12-04 01:52:39.698527,599618978074412144,9.00
2025-12-04 01:52:39.698527,599618978074412144,7.00
2025-12-04 01:52:39.698527,599618978074412144,4.00
2025-12-04 01:52:39.698527,599618978074412144,4.00
2025-12-04 01:52:39.698527,599618978074412144,4.00
2025-12-04 01:52:39.698527,599618978074412144,2.00
2025-12-04 01:52:39.698527,599618978074412144,4.00
2025-12-04 01:52:39.698527,599618978074412144,4.00
2025-12-04 01:52:39.698527,599618978074412144,2.00
2025-12-04 01:52:39.698527,599618978074412144,4.00
2025-12-04 01:52:39.698527,599618978074412144,7.00
2025-12-04 01:52:39.698527,599618978074412144,2.00
2025-12-04 01:52:39.698527,599618978074412144,2.00
2025-12-04 01:52:39.698527,599618978074412144,2.00
2025-12-04 01:52:39.698527,599618978074412144,0.00
2025-12-04 01:52:39.698527,599618978074412144,0.00
2025-12-04 01:52:39.698527,599618978074412144,4.00
2025-12-04 01:52:39.698527,599618978074412144,4.00
2025-12-04 01:52:39.698527,599618978074412144,0.00
2025-12-04 01:52:39.698527,599618978074412144,0.00
2025-12-04 01:52:39.698527,599618978074412144,-2.00
2025-12-04 01:52:39.698527,599618978074412144,-4.00
2025-12-04 01:52:39.698527,599618978074412144,-2.00
2025-12-04 01:52:39.698527,599618978074412144,-2.00
2025-12-04 01:52:39.698527,599618978074412144,-7.00
2025-12-04 01:52:39.698527,599618978074412144,-14.00
2025-12-04 01:52:39.698527,599618978074412144,-21.00
2025-12-04 01:52:39.698527,599618978074412144,-28.00
2025-12-04 01:52:39.698527,599618978074412144,-23.00
2025-12-04 01:52:39.698527,599618978074412144,-14.00
2025-12-04 01:52:39.698527,599618978074412144,-14.00
2025-12-04 01:52:39.698527,599618978074412144,-11.00
2025-12-04 01:52:39.698527,599618978074412144,-4.00
2025-12-04 01:52:39.698527,599618978074412144,0.00
2025-12-04 01:52:39.698527,599618978074412144,4.00
2025-12-04 01:52:39.698527,599618978074412144,7.00
2025-12-04 01:52:39.698527,599618978074412144,0.00
2025-12-04 01:52:39.698527,599618978074412144,-2.00
2025-12-04 01:52:39.698527,599618978074412144,2.00
2025-12-04 01:52:39.698527,599618978074412144,4.00
2025-12-04 01:52:39.698527,599618978074412144,4.00
2025-12-04 01:52:39.698527,599618978074412144,9.00
2025-12-04 01:52:39.698527,599618978074412144,28.00
2025-12-04 01:52:39.698527,599618978074412144,47.00
2025-12-04 01:52:39.698527,599618978074412144,-19.00
2025-12-04 01:52:39.698527,599618978074412144,-216.00
2025-12-04 01:52:39.698527,599618978074412144,-512.00
2025-12-04 01:52:39.698527,599618978074412144,-784.00
2025-12-04 01:52:39.698527,599618978074412144,-748.00
2025-12-04 01:52:39.698527,599618978074412144,-312.00
2025-12-04 01:52:39.698527,599618978074412144,54.00
2025-12-04 01:52:39.698527,599618978074412144,45.00
2025-12-04 01:52:39.698527,599618978074412144,7.00
2025-12-04 01:52:39.698527,599618978074412144,88.00
2025-12-04 01:52:39.698527,599618978074412144,97.00
2025-12-04 01:52:39.698527,599618978074412144,59.00
2025-12-04 01:52:39.698527,599618978074412144,69.00
2025-12-04 01:52:39.698527,599618978074412144,71.00
2025-12-04 01:52:39.698527,599618978074412144,50.00
2025-12-04 01:52:39.698527,599618978074412144,40.00
2025-12-04 01:52:39.698527,599618978074412144,40.00
2025-12-04 01:52:39.698527,599618978074412144,28.00
2025-12-04 01:52:39.698527,599618978074412144,21.00
2025-12-04 01:52:39.698527,599618978074412144,16.00
2025-12-04 01:52:39.698527,599618978074412144,11.00
2025-12-04 01:52:39.698527,599618978074412144,2.00
2025-12-04 01:52:40.207986,599618978635149877,0.00
2025-12-04 01:52:40.207986,599618978635149877,-9.00
2025-12-04 01:52:40.207986,599618978635149877,-21.00
2025-12-04 01:52:40.207986,599618978635149877,-28.00
2025-12-04 01:52:40.207986,599618978635149877,-38.00
2025-12-04 01:52:40.207986,599618978635149877,-50.00
2025-12-04 01:52:40.207986,599618978635149877,-54.00
2025-12-04 01:52:40.207986,599618978635149877,-57.00
2025-12-04 01:52:40.207986,599618978635149877,-61.00
2025-12-04 01:52:40.207986,599618978635149877,-66.00
2025-12-04 01:52:40.207986,599618978635149877,-69.00
2025-12-04 01:52:40.207986,599618978635149877,-71.00
2025-12-04 01:52:40.207986,599618978635149877,-69.00
2025-12-04 01:52:40.207986,599618978635149877,-61.00
2025-12-04 01:52:40.207986,599618978635149877,-54.00
2025-12-04 01:52:40.207986,599618978635149877,-40.00
2025-12-04 01:52:40.207986,599618978635149877,-23.00
2025-12-04 01:52:40.207986,599618978635149877,-7.00
2025-12-04 01:52:40.207986,599618978635149877,14.00
2025-12-04 01:52:40.207986,599618978635149877,26.00
2025-12-04 01:52:40.207986,599618978635149877,28.00
2025-12-04 01:52:40.207986,599618978635149877,33.00
2025-12-04 01:52:40.207986,599618978635149877,30.00
2025-12-04 01:52:40.207986,599618978635149877,28.00
2025-12-04 01:52:40.207986,599618978635149877,28.00
2025-12-04 01:52:40.207986,599618978635149877,26.00
2025-12-04 01:52:40.207986,599618978635149877,19.00
2025-12-04 01:52:40.207986,599618978635149877,16.00
2025-12-04 01:52:40.207986,599618978635149877,19.00
2025-12-04 01:52:40.207986,599618978635149877,11.00
2025-12-04 01:52:40.207986,599618978635149877,4.00
2025-12-04 01:52:40.207986,599618978635149877,9.00
2025-12-04 01:52:40.207986,599618978635149877,14.00
2025-12-04 01:52:40.207986,599618978635149877,7.00
2025-12-04 01:52:40.207986,599618978635149877,9.00
2025-12-04 01:52:40.207986,599618978635149877,14.00
2025-12-04 01:52:40.207986,599618978635149877,16.00
2025-12-04 01:52:40.207986,599618978635149877,14.00
2025-12-04 01:52:40.207986,599618978635149877,14.00
2025-12-04 01:52:40.207986,599618978635149877,14.00
2025-12-04 01:52:40.207986,599618978635149877,16.00
2025-12-04 01:52:40.207986,599618978635149877,14.00
2025-12-04 01:52:40.207986,599618978635149877,11.00
2025-12-04 01:52:40.207986,599618978635149877,14.00
2025-12-04 01:52:40.207986,599618978635149877,16.00
2025-12-04 01:52:40.207986,599618978635149877,11.00
2025-12-04 01:52:40.207986,599618978635149877,7.00
2025-12-04 01:52:40.207986,599618978635149877,7.00
2025-12-04 01:52:40.207986,599618978635149877,7.00
2025-12-04 01:52:40.207986,599618978635149877,7.00
2025-12-04 01:52:40.207986,599618978635149877,2.00
2025-12-04 01:52:40.207986,599618978635149877,2.00
2025-12-04 01:52:40.207986,599618978635149877,4.00
2025-12-04 01:52:40.207986,599618978635149877,2.00
2025-12-04 01:52:40.207986,599618978635149877,2.00
2025-12-04 01:52:40.207986,599618978635149877,0.00
2025-12-04 01:52:40.207986,599618978635149877,-2.00
2025-12-04 01:52:40.207986,599618978635149877,-2.00
2025-12-04 01:52:40.207986,599618978635149877,0.00
2025-12-04 01:52:40.207986,599618978635149877,2.00
2025-12-04 01:52:40.207986,599618978635149877,0.00
2025-12-04 01:52:40.207986,599618978635149877,0.00
2025-12-04 01:52:40.207986,599618978635149877,2.00
2025-12-04 01:52:40.207986,599618978635149877,-2.00
2025-12-04 01:52:40.207986,599618978635149877,-11.00
2025-12-04 01:52:40.207986,599618978635149877,-19.00
2025-12-04 01:52:40.207986,599618978635149877,-26.00
2025-12-04 01:52:40.207986,599618978635149877,-28.00
2025-12-04 01:52:40.207986,599618978635149877,-26.00
2025-12-04 01:52:40.207986,599618978635149877,-19.00
2025-12-04 01:52:40.207986,599618978635149877,-7.00
2025-12-04 01:52:40.207986,599618978635149877,-4.00
2025-12-04 01:52:40.207986,599618978635149877,-9.00
