Timestamp,Device Timestamp (ns),ECG Value (uV)
2025-06-06 11:24:34.387542,599616039573046642,-738.00
2025-06-06 11:24:34.387542,599616039573046642,-750.00
2025-06-06 11:24:34.387542,599616039573046642,-750.00
2025-06-06 11:24:34.387542,599616039573046642,-743.00
2025-06-06 11:24:34.387542,599616039573046642,-740.00
2025-06-06 11:24:34.387542,599616039573046642,-740.00
2025-06-06 11:24:34.387542,599616039573046642,-738.00
2025-06-06 11:24:34.387542,599616039573046642,-736.00
2025-06-06 11:24:34.387542,599616039573046642,-728.00
2025-06-06 11:24:34.387542,599616039573046642,-728.00
2025-06-06 11:24:34.387542,599616039573046642,-726.00
2025-06-06 11:24:34.387542,599616039573046642,-716.00
2025-06-06 11:24:34.387542,599616039573046642,-714.00
2025-06-06 11:24:34.387542,599616039573046642,-716.00
2025-06-06 11:24:34.387542,599616039573046642,-718.00
2025-06-06 11:24:34.387542,599616039573046642,-716.00
2025-06-06 11:24:34.387542,599616039573046642,-711.00
2025-06-06 11:24:34.387542,599616039573046642,-716.00
2025-06-06 11:24:34.387542,599616039573046642,-721.00
2025-06-06 11:24:34.387542,599616039573046642,-718.00
2025-06-06 11:24:34.387542,599616039573046642,-714.00
2025-06-06 11:24:34.387542,599616039573046642,-709.00
2025-06-06 11:24:34.387542,599616039573046642,-709.00
2025-06-06 11:24:34.387542,599616039573046642,-709.00
2025-06-06 11:24:34.387542,599616039573046642,-706.00
2025-06-06 11:24:34.387542,599616039573046642,-704.00
2025-06-06 11:24:34.387542,599616039573046642,-706.00
2025-06-06 11:24:34.387542,599616039573046642,-704.00
2025-06-06 11:24:34.387542,599616039573046642,-699.00
2025-06-06 11:24:34.387542,599616039573046642,-701.00
2025-06-06 11:24:34.387542,599616039573046642,-704.00
2025-06-06 11:24:34.387542,599616039573046642,-701.00
2025-06-06 11:24:34.387542,599616039573046642,-696.00
2025-06-06 11:24:34.387542,599616039573046642,-692.00
2025-06-06 11:24:34.387542,599616039573046642,-689.00
2025-06-06 11:24:34.387542,599616039573046642,-692.00
2025-06-06 11:24:34.387542,599616039573046642,-692.00
2025-06-06 11:24:34.387542,599616039573046642,-689.00
2025-06-06 11:24:34.387542,599616039573046642,-689.00
2025-06-06 11:24:34.387542,599616039573046642,-684.00
2025-06-06 11:24:34.387542,599616039573046642,-682.00
2025-06-06 11:24:34.387542,599616039573046642,-682.00
2025-06-06 11:24:34.387542,599616039573046642,-687.00
2025-06-06 11:24:34.387542,599616039573046642,-687.00
2025-06-06 11:24:34.387542,599616039573046642,-684.00
2025-06-06 11:24:34.387542,599616039573046642,-682.00
2025-06-06 11:24:34.387542,599616039573046642,-674.00
2025-06-06 11:24:34.387542,599616039573046642,-677.00
2025-06-06 11:24:34.387542,599616039573046642,-679.00
2025-06-06 11:24:34.387542,599616039573046642,-679.00
2025-06-06 11:24:34.387542,599616039573046642,-677.00
2025-06-06 11:24:34.387542,599616039573046642,-674.00
2025-06-06 11:24:34.387542,599616039573046642,-667.00
2025-06-06 11:24:34.387542,599616039573046642,-660.00
2025-06-06 11:24:34.387542,599616039573046642,-660.00
2025-06-06 11:24:34.387542,599616039573046642,-662.00
2025-06-06 11:24:34.387542,599616039573046642,-662.00
2025-06-06 11:24:34.387542,599616039573046642,-662.00
2025-06-06 11:24:34.387542,599616039573046642,-667.00
2025-06-06 11:24:34.387542,599616039573046642,-674.00
2025-06-06 11:24:34.387542,599616039573046642,-674.00
2025-06-06 11:24:34.387542,599616039573046642,-674.00
2025-06-06 11:24:34.387542,599616039573046642,-672.00
2025-06-06 11:24:34.387542,599616039573046642,-670.00
2025-06-06 11:24:34.387542,599616039573046642,-672.00
2025-06-06 11:24:34.387542,599616039573046642,-674.00
2025-06-06 11:24:34.387542,599616039573046642,-674.00
2025-06-06 11:24:34.387542,599616039573046642,-689.00
2025-06-06 11:24:34.387542,599616039573046642,-694.00
2025-06-06 11:24:34.387542,599616039573046642,-633.00
2025-06-06 11:24:34.387542,599616039573046642,-481.00
2025-06-06 11:24:34.387542,599616039573046642,-246.00
2025-06-06 11:24:34.387542,599616039573046642,-29.00
2025-06-06 11:24:34.928272,599616040133652129,-85.00
2025-06-06 11:24:34.928272,599616040133652129,-498.00
2025-06-06 11:24:34.928272,599616040133652129,-821.00
2025-06-06 11:24:34.928272,599616040133652129,-767.00
2025-06-06 11:24:34.928272,599616040133652129,-679.00
2025-06-06 11:24:34.928272,599616040133652129,-738.00
2025-06-06 11:24:34.928272,599616040133652129,-736.00
2025-06-06 11:24:34.928272,599616040133652129,-692.00
2025-06-06 11:24:34.928272,599616040133652129,-699.00
2025-06-06 11:24:34.928272,599616040133652129,-701.00
2025-06-06 11:24:34.928272,599616040133652129,-684.00
2025-06-06 11:24:34.928272,599616040133652129,-679.00
2025-06-06 11:24:34.928272,599616040133652129,-677.00
2025-06-06 11:24:34.928272,599616040133652129,-665.00
2025-06-06 11:24:34.928272,599616040133652129,-662.00
2025-06-06 11:24:34.928272,599616040133652129,-662.00
2025-06-06 11:24:34.928272,599616040133652129,-655.00
2025-06-06 11:24:34.928272,599616040133652129,-645.00
2025-06-06 11:24:34.928272,599616040133652129,-635.00
2025-06-06 11:24:34.928272,599616040133652129,-630.00
2025-06-06 11:24:34.928272,599616040133652129,-626.00
2025-06-06 11:24:34.928272,599616040133652129,-618.00
2025-06-06 11:24:34.928272,599616040133652129,-611.00
2025-06-06 11:24:34.928272,599616040133652129,-601.00
2025-06-06 11:24:34.928272,599616040133652129,-594.00
2025-06-06 11:24:34.928272,599616040133652129,-589.00
2025-06-06 11:24:34.928272,599616040133652129,-584.00
2025-06-06 11:24:34.928272,599616040133652129,-582.00
2025-06-06 11:24:34.928272,599616040133652129,-582.00
2025-06-06 11:24:34.928272,599616040133652129,-582.00
2025-06-06 11:24:34.928272,599616040133652129,-577.00
2025-06-06 11:24:34.928272,599616040133652129,-582.00
2025-06-06 11:24:34.928272,599616040133652129,-589.00
2025-06-06 11:24:34.928272,599616040133652129,-601.00
2025-06-06 11:24:34.928272,599616040133652129,-623.00
2025-06-06 11:24:34.928272,599616040133652129,-640.00
2025-06-06 11:24:34.928272,599616040133652129,-648.00
2025-06-06 11:24:34.928272,599616040133652129,-657.00
2025-06-06 11:24:34.928272,599616040133652129,-667.00
2025-06-06 11:24:34.928272,599616040133652129,-665.00
2025-06-06 11:24:34.928272,599616040133652129,-660.00
2025-06-06 11:24:34.928272,599616040133652129,-657.00
2025-06-06 11:24:34.928272,599616040133652129,-657.00
2025-06-06 11:24:34.928272,599616040133652129,-657.00
2025-06-06 11:24:34.928272,599616040133652129,-655.00
2025-06-06 11:24:34.928272,599616040133652129,-648.00
2025-06-06 11:24:34.928272,599616040133652129,-648.00
2025-06-06 11:24:34.928272,599616040133652129,-652.00
2025-06-06 11:24:34.928272,599616040133652129,-648.00
2025-06-06 11:24:34.928272,599616040133652129,-640.00
2025-06-06 11:24:34.928272,599616040133652129,-645.00
2025-06-06 11:24:34.928272,599616040133652129,-650.00
2025-06-06 11:24:34.928272,599616040133652129,-643.00
2025-06-06 11:24:34.928272,599616040133652129,-638.00
2025-06-06 11:24:34.928272,599616040133652129,-643.00
2025-06-06 11:24:34.928272,599616040133652129,-643.00
2025-06-06 11:24:34.928272,599616040133652129,-640.00
2025-06-06 11:24:34.928272,599616040133652129,-640.00
2025-06-06 11:24:34.928272,599616040133652129,-645.00
2025-06-06 11:24:34.928272,599616040133652129,-648.00
2025-06-06 11:24:34.928272,599616040133652129,-645.00
2025-06-06 11:24:34.928272,599616040133652129,-643.00
2025-06-06 11:24:34.928272,599616040133652129,-640.00
2025-06-06 11:24:34.928272,599616040133652129,-640.00
2025-06-06 11:24:34.928272,599616040133652129,-640.00
2025-06-06 11:24:34.928272,599616040133652129,-640.00
2025-06-06 11:24:34.928272,599616040133652129,-638.00
2025-06-06 11:24:34.928272,599616040133652129,-638.00
2025-06-06 11:24:34.928272,599616040133652129,-638.00
2025-06-06 11:24:34.928272,599616040133652129,-635.00
2025-06-06 11:24:34.928272,599616040133652129,-635.00
2025-06-06 11:24:34.928272,599616040133652129,-638.00
2025-06-06 11:24:34.928272,599616040133652129,-633.00
2025-06-06 11:24:35.497513,599616040694257616,-635.00
2025-06-06 11:24:35.497513,599616040694257616,-638.00
2025-06-06 11:24:35.497513,599616040694257616,-635.00
2025-06-06 11:24:35.497513,599616040694257616,-633.00
2025-06-06 11:24:35.497513,599616040694257616,-633.00
2025-06-06 11:24:35.497513,599616040694257616,-635.00
2025-06-06 11:24:35.497513,599616040694257616,-635.00
2025-06-06 11:24:35.497513,599616040694257616,-628.00
2025-06-06 11:24:35.497513,599616040694257616,-630.00
2025-06-06 11:24:35.497513,599616040694257616,-635.00
2025-06-06 11:24:35.497513,599616040694257616,-630.00
2025-06-06 11:24:35.497513,599616040694257616,-626.00
2025-06-06 11:24:35.497513,599616040694257616,-630.00
2025-06-06 11:24:35.497513,599616040694257616,-633.00
2025-06-06 11:24:35.497513,599616040694257616,-628.00
2025-06-06 11:24:35.497513,599616040694257616,-626.00
2025-06-06 11:24:35.497513,599616040694257616,-630.00
2025-06-06 11:24:35.497513,599616040694257616,-628.00
2025-06-06 11:24:35.497513,599616040694257616,-618.00
2025-06-06 11:24:35.497513,599616040694257616,-613.00
2025-06-06 11:24:35.497513,599616040694257616,-618.00
2025-06-06 11:24:35.497513,599616040694257616,-618.00
2025-06-06 11:24:35.497513,599616040694257616,-618.00
2025-06-06 11:24:35.497513,599616040694257616,-621.00
2025-06-06 11:24:35.497513,599616040694257616,-628.00
2025-06-06 11:24:35.497513,599616040694257616,-635.00
2025-06-06 11:24:35.497513,599616040694257616,-638.00
2025-06-06 11:24:35.497513,599616040694257616,-638.00
2025-06-06 11:24:35.497513,599616040694257616,-640.00
2025-06-06 11:24:35.497513,599616040694257616,-635.00
2025-06-06 11:24:35.497513,599616040694257616,-633.00
2025-06-06 11:24:35.497513,599616040694257616,-638.00
2025-06-06 11:24:35.497513,599616040694257616,-645.00
2025-06-06 11:24:35.497513,599616040694257616,-657.00
2025-06-06 11:24:35.497513,599616040694257616,-660.00
2025-06-06 11:24:35.497513,599616040694257616,-589.00
2025-06-06 11:24:35.497513,599616040694257616,-423.00
2025-06-06 11:24:35.497513,599616040694257616,-183.00
2025-06-06 11:24:35.497513,599616040694257616,7.00
2025-06-06 11:24:35.497513,599616040694257616,-117.00
2025-06-06 11:24:35.497513,599616040694257616,-545.00
2025-06-06 11:24:35.497513,599616040694257616,-802.00
2025-06-06 11:24:35.497513,599616040694257616,-721.00
2025-06-06 11:24:35.497513,599616040694257616,-665.00
2025-06-06 11:24:35.497513,599616040694257616,-723.00
2025-06-06 11:24:35.497513,599616040694257616,-711.00
2025-06-06 11:24:35.497513,599616040694257616,-677.00
2025-06-06 11:24:35.497513,599616040694257616,-684.00
2025-06-06 11:24:35.497513,599616040694257616,-687.00
2025-06-06 11:24:35.497513,599616040694257616,-672.00
2025-06-06 11:24:35.497513,599616040694257616,-667.00
2025-06-06 11:24:35.497513,599616040694257616,-665.00
2025-06-06 11:24:35.497513,599616040694257616,-657.00
2025-06-06 11:24:35.497513,599616040694257616,-652.00
2025-06-06 11:24:35.497513,599616040694257616,-650.00
2025-06-06 11:24:35.497513,599616040694257616,-648.00
2025-06-06 11:24:35.497513,599616040694257616,-645.00
2025-06-06 11:24:35.497513,599616040694257616,-638.00
2025-06-06 11:24:35.497513,599616040694257616,-635.00
2025-06-06 11:24:35.497513,599616040694257616,-628.00
2025-06-06 11:24:35.497513,599616040694257616,-618.00
2025-06-06 11:24:35.497513,599616040694257616,-613.00
2025-06-06 11:24:35.497513,599616040694257616,-608.00
2025-06-06 11:24:35.497513,599616040694257616,-599.00
2025-06-06 11:24:35.497513,599616040694257616,-594.00
2025-06-06 11:24:35.497513,599616040694257616,-594.00
2025-06-06 11:24:35.497513,599616040694257616,-589.00
2025-06-06 11:24:35.497513,599616040694257616,-589.00
2025-06-06 11:24:35.497513,599616040694257616,-596.00
2025-06-06 11:24:35.497513,599616040694257616,-596.00
2025-06-06 11:24:35.497513,599616040694257616,-601.00
2025-06-06 11:24:35.497513,599616040694257616,-613.00
2025-06-06 11:24:35.497513,599616040694257616,-628.00
2025-06-06 11:24:36.069711,599616041254858019,-645.00
2025-06-06 11:24:36.069711,599616041254858019,-665.00
2025-06-06 11:24:36.069711,599616041254858019,-682.00
2025-06-06 11:24:36.069711,599616041254858019,-692.00
2025-06-06 11:24:36.069711,599616041254858019,-696.00
2025-06-06 11:24:36.069711,599616041254858019,-701.00
2025-06-06 11:24:36.069711,599616041254858019,-709.00
2025-06-06 11:24:36.069711,599616041254858019,-709.00
2025-06-06 11:24:36.069711,599616041254858019,-706.00
2025-06-06 11:24:36.069711,599616041254858019,-704.00
2025-06-06 11:24:36.069711,599616041254858019,-699.00
2025-06-06 11:24:36.069711,599616041254858019,-714.00
2025-06-06 11:24:36.069711,599616041254858019,-738.00
2025-06-06 11:24:36.069711,599616041254858019,-723.00
2025-06-06 11:24:36.069711,599616041254858019,-692.00
2025-06-06 11:24:36.069711,599616041254858019,-704.00
2025-06-06 11:24:36.069711,599616041254858019,-723.00
2025-06-06 11:24:36.069711,599616041254858019,-706.00
2025-06-06 11:24:36.069711,599616041254858019,-711.00
2025-06-06 11:24:36.069711,599616041254858019,-743.00
2025-06-06 11:24:36.069711,599616041254858019,-750.00
2025-06-06 11:24:36.069711,599616041254858019,-753.00
2025-06-06 11:24:36.069711,599616041254858019,-775.00
2025-06-06 11:24:36.069711,599616041254858019,-775.00
2025-06-06 11:24:36.069711,599616041254858019,-767.00
2025-06-06 11:24:36.069711,599616041254858019,-772.00
2025-06-06 11:24:36.069711,599616041254858019,-780.00
2025-06-06 11:24:36.069711,599616041254858019,-775.00
2025-06-06 11:24:36.069711,599616041254858019,-772.00
2025-06-06 11:24:36.069711,599616041254858019,-777.00
2025-06-06 11:24:36.069711,599616041254858019,-775.00
2025-06-06 11:24:36.069711,599616041254858019,-770.00
2025-06-06 11:24:36.069711,599616041254858019,-777.00
2025-06-06 11:24:36.069711,599616041254858019,-782.00
2025-06-06 11:24:36.069711,599616041254858019,-772.00
2025-06-06 11:24:36.069711,599616041254858019,-767.00
2025-06-06 11:24:36.069711,599616041254858019,-772.00
2025-06-06 11:24:36.069711,599616041254858019,-777.00
2025-06-06 11:24:36.069711,599616041254858019,-780.00
2025-06-06 11:24:36.069711,599616041254858019,-780.00
2025-06-06 11:24:36.069711,599616041254858019,-772.00
2025-06-06 11:24:36.069711,599616041254858019,-772.00
2025-06-06 11:24:36.069711,599616041254858019,-772.00
2025-06-06 11:24:36.069711,599616041254858019,-775.00
2025-06-06 11:24:36.069711,599616041254858019,-780.00
2025-06-06 11:24:36.069711,599616041254858019,-777.00
2025-06-06 11:24:36.069711,599616041254858019,-767.00
2025-06-06 11:24:36.069711,599616041254858019,-765.00
2025-06-06 11:24:36.069711,599616041254858019,-772.00
2025-06-06 11:24:36.069711,599616041254858019,-777.00
2025-06-06 11:24:36.069711,599616041254858019,-772.00
2025-06-06 11:24:36.069711,599616041254858019,-762.00
2025-06-06 11:24:36.069711,599616041254858019,-765.00
2025-06-06 11:24:36.069711,599616041254858019,-777.00
2025-06-06 11:24:36.069711,599616041254858019,-777.00
2025-06-06 11:24:36.069711,599616041254858019,-765.00
2025-06-06 11:24:36.069711,599616041254858019,-758.00
2025-06-06 11:24:36.069711,599616041254858019,-760.00
2025-06-06 11:24:36.069711,599616041254858019,-767.00
2025-06-06 11:24:36.069711,599616041254858019,-762.00
2025-06-06 11:24:36.069711,599616041254858019,-762.00
2025-06-06 11:24:36.069711,599616041254858019,-777.00
2025-06-06 11:24:36.069711,599616041254858019,-784.00
2025-06-06 11:24:36.069711,599616041254858019,-780.00
2025-06-06 11:24:36.069711,599616041254858019,-777.00
2025-06-06 11:24:36.069711,599616041254858019,-775.00
2025-06-06 11:24:36.069711,599616041254858019,-775.00
2025-06-06 11:24:36.069711,599616041254858019,-777.00
2025-06-06 11:24:36.069711,599616041254858019,-780.00
2025-06-06 11:24:36.069711,599616041254858019,-780.00
2025-06-06 11:24:36.069711,599616041254858019,-792.00
2025-06-06 11:24:36.069711,599616041254858019,-802.00
2025-06-06 11:24:36.069711,599616041254858019,-748.00
2025-06-06 11:24:36.640119,599616041815458420,-586.00
2025-06-06 11:24:36.640119,599616041815458420,-332.00
2025-06-06 11:24:36.640119,599616041815458420,-97.00
2025-06-06 11:24:36.640119,599616041815458420,-149.00
2025-06-06 11:24:36.640119,599616041815458420,-582.00
2025-06-06 11:24:36.640119,599616041815458420,-929.00
2025-06-06 11:24:36.640119,599616041815458420,-875.00
2025-06-06 11:24:36.640119,599616041815458420,-787.00
2025-06-06 11:24:36.640119,599616041815458420,-841.00
2025-06-06 11:24:36.640119,599616041815458420,-833.00
2025-06-06 11:24:36.640119,599616041815458420,-792.00
2025-06-06 11:24:36.640119,599616041815458420,-802.00
2025-06-06 11:24:36.640119,599616041815458420,-802.00
2025-06-06 11:24:36.640119,599616041815458420,-775.00
2025-06-06 11:24:36.640119,599616041815458420,-762.00
2025-06-06 11:24:36.640119,599616041815458420,-762.00
2025-06-06 11:24:36.640119,599616041815458420,-755.00
2025-06-06 11:24:36.640119,599616041815458420,-745.00
2025-06-06 11:24:36.640119,599616041815458420,-736.00
2025-06-06 11:24:36.640119,599616041815458420,-728.00
2025-06-06 11:24:36.640119,599616041815458420,-726.00
2025-06-06 11:24:36.640119,599616041815458420,-718.00
2025-06-06 11:24:36.640119,599616041815458420,-709.00
2025-06-06 11:24:36.640119,599616041815458420,-696.00
2025-06-06 11:24:36.640119,599616041815458420,-687.00
2025-06-06 11:24:36.640119,599616041815458420,-679.00
2025-06-06 11:24:36.640119,599616041815458420,-670.00
2025-06-06 11:24:36.640119,599616041815458420,-660.00
2025-06-06 11:24:36.640119,599616041815458420,-650.00
2025-06-06 11:24:36.640119,599616041815458420,-643.00
2025-06-06 11:24:36.640119,599616041815458420,-638.00
2025-06-06 11:24:36.640119,599616041815458420,-635.00
2025-06-06 11:24:36.640119,599616041815458420,-633.00
2025-06-06 11:24:36.640119,599616041815458420,-638.00
2025-06-06 11:24:36.640119,599616041815458420,-648.00
2025-06-06 11:24:36.640119,599616041815458420,-655.00
2025-06-06 11:24:36.640119,599616041815458420,-667.00
2025-06-06 11:24:36.640119,599616041815458420,-684.00
2025-06-06 11:24:36.640119,599616041815458420,-699.00
2025-06-06 11:24:36.640119,599616041815458420,-701.00
2025-06-06 11:24:36.640119,599616041815458420,-709.00
2025-06-06 11:24:36.640119,599616041815458420,-723.00
2025-06-06 11:24:36.640119,599616041815458420,-726.00
2025-06-06 11:24:36.640119,599616041815458420,-721.00
2025-06-06 11:24:36.640119,599616041815458420,-711.00
2025-06-06 11:24:36.640119,599616041815458420,-701.00
2025-06-06 11:24:36.640119,599616041815458420,-687.00
2025-06-06 11:24:36.640119,599616041815458420,-630.00
2025-06-06 11:24:36.640119,599616041815458420,-538.00
2025-06-06 11:24:36.640119,599616041815458420,-518.00
2025-06-06 11:24:36.640119,599616041815458420,-569.00
2025-06-06 11:24:36.640119,599616041815458420,-555.00
2025-06-06 11:24:36.640119,599616041815458420,-503.00
2025-06-06 11:24:36.640119,599616041815458420,-508.00
2025-06-06 11:24:36.640119,599616041815458420,-515.00
2025-06-06 11:24:36.640119,599616041815458420,-479.00
2025-06-06 11:24:36.640119,599616041815458420,-481.00
2025-06-06 11:24:36.640119,599616041815458420,-604.00
2025-06-06 11:24:36.640119,599616041815458420,-723.00
2025-06-06 11:24:36.640119,599616041815458420,-650.00
2025-06-06 11:24:36.640119,599616041815458420,-508.00
2025-06-06 11:24:36.640119,599616041815458420,-530.00
2025-06-06 11:24:36.640119,599616041815458420,-618.00
2025-06-06 11:24:36.640119,599616041815458420,-608.00
2025-06-06 11:24:36.640119,599616041815458420,-606.00
2025-06-06 11:24:36.640119,599616041815458420,-665.00
2025-06-06 11:24:36.640119,599616041815458420,-660.00
2025-06-06 11:24:36.640119,599616041815458420,-582.00
2025-06-06 11:24:36.640119,599616041815458420,-523.00
2025-06-06 11:24:36.640119,599616041815458420,-535.00
2025-06-06 11:24:36.640119,599616041815458420,-604.00
2025-06-06 11:24:36.640119,599616041815458420,-645.00
2025-06-06 11:24:36.640119,599616041815458420,-640.00
2025-06-06 11:24:37.179137,599616042376043561,-667.00
2025-06-06 11:24:37.179137,599616042376043561,-701.00
2025-06-06 11:24:37.179137,599616042376043561,-687.00
2025-06-06 11:24:37.179137,599616042376043561,-665.00
2025-06-06 11:24:37.179137,599616042376043561,-665.00
2025-06-06 11:24:37.179137,599616042376043561,-662.00
2025-06-06 11:24:37.179137,599616042376043561,-655.00
2025-06-06 11:24:37.179137,599616042376043561,-655.00
2025-06-06 11:24:37.179137,599616042376043561,-657.00
2025-06-06 11:24:37.179137,599616042376043561,-657.00
2025-06-06 11:24:37.179137,599616042376043561,-652.00
2025-06-06 11:24:37.179137,599616042376043561,-650.00
2025-06-06 11:24:37.179137,599616042376043561,-660.00
2025-06-06 11:24:37.179137,599616042376043561,-662.00
2025-06-06 11:24:37.179137,599616042376043561,-655.00
2025-06-06 11:24:37.179137,599616042376043561,-657.00
2025-06-06 11:24:37.179137,599616042376043561,-667.00
2025-06-06 11:24:37.179137,599616042376043561,-665.00
2025-06-06 11:24:37.179137,599616042376043561,-655.00
2025-06-06 11:24:37.179137,599616042376043561,-648.00
2025-06-06 11:24:37.179137,599616042376043561,-635.00
2025-06-06 11:24:37.179137,599616042376043561,-635.00
2025-06-06 11:24:37.179137,599616042376043561,-650.00
2025-06-06 11:24:37.179137,599616042376043561,-655.00
2025-06-06 11:24:37.179137,599616042376043561,-648.00
2025-06-06 11:24:37.179137,599616042376043561,-650.00
2025-06-06 11:24:37.179137,599616042376043561,-655.00
2025-06-06 11:24:37.179137,599616042376043561,-638.00
2025-06-06 11:24:37.179137,599616042376043561,-621.00
2025-06-06 11:24:37.179137,599616042376043561,-630.00
2025-06-06 11:24:37.179137,599616042376043561,-645.00
2025-06-06 11:24:37.179137,599616042376043561,-635.00
2025-06-06 11:24:37.179137,599616042376043561,-623.00
2025-06-06 11:24:37.179137,599616042376043561,-618.00
2025-06-06 11:24:37.179137,599616042376043561,-623.00
2025-06-06 11:24:37.179137,599616042376043561,-616.00
2025-06-06 11:24:37.179137,599616042376043561,-528.00
2025-06-06 11:24:37.179137,599616042376043561,-339.00
2025-06-06 11:24:37.179137,599616042376043561,-107.00
2025-06-06 11:24:37.179137,599616042376043561,-17.00
2025-06-06 11:24:37.179137,599616042376043561,-293.00
2025-06-06 11:24:37.179137,599616042376043561,-728.00
2025-06-06 11:24:37.179137,599616042376043561,-836.00
2025-06-06 11:24:37.179137,599616042376043561,-718.00
2025-06-06 11:24:37.179137,599616042376043561,-728.00
2025-06-06 11:24:37.179137,599616042376043561,-765.00
2025-06-06 11:24:37.179137,599616042376043561,-716.00
2025-06-06 11:24:37.179137,599616042376043561,-701.00
2025-06-06 11:24:37.179137,599616042376043561,-721.00
2025-06-06 11:24:37.179137,599616042376043561,-704.00
2025-06-06 11:24:37.179137,599616042376043561,-689.00
2025-06-06 11:24:37.179137,599616042376043561,-694.00
2025-06-06 11:24:37.179137,599616042376043561,-689.00
2025-06-06 11:24:37.179137,599616042376043561,-677.00
2025-06-06 11:24:37.179137,599616042376043561,-677.00
2025-06-06 11:24:37.179137,599616042376043561,-672.00
2025-06-06 11:24:37.179137,599616042376043561,-662.00
2025-06-06 11:24:37.179137,599616042376043561,-657.00
2025-06-06 11:24:37.179137,599616042376043561,-655.00
2025-06-06 11:24:37.179137,599616042376043561,-648.00
2025-06-06 11:24:37.179137,599616042376043561,-643.00
2025-06-06 11:24:37.179137,599616042376043561,-635.00
2025-06-06 11:24:37.179137,599616042376043561,-623.00
2025-06-06 11:24:37.179137,599616042376043561,-611.00
2025-06-06 11:24:37.179137,599616042376043561,-606.00
2025-06-06 11:24:37.179137,599616042376043561,-601.00
2025-06-06 11:24:37.179137,599616042376043561,-596.00
2025-06-06 11:24:37.179137,599616042376043561,-599.00
2025-06-06 11:24:37.179137,599616042376043561,-601.00
2025-06-06 11:24:37.179137,599616042376043561,-596.00
2025-06-06 11:24:37.179137,599616042376043561,-594.00
2025-06-06 11:24:37.179137,599616042376043561,-606.00
2025-06-06 11:24:37.179137,599616042376043561,-623.00
2025-06-06 11:24:37.780738,599616042936649048,-635.00
2025-06-06 11:24:37.780738,599616042936649048,-652.00
2025-06-06 11:24:37.780738,599616042936649048,-674.00
2025-06-06 11:24:37.780738,599616042936649048,-687.00
2025-06-06 11:24:37.780738,599616042936649048,-689.00
2025-06-06 11:24:37.780738,599616042936649048,-699.00
2025-06-06 11:24:37.780738,599616042936649048,-709.00
2025-06-06 11:24:37.780738,599616042936649048,-706.00
2025-06-06 11:24:37.780738,599616042936649048,-699.00
2025-06-06 11:24:37.780738,599616042936649048,-699.00
2025-06-06 11:24:37.780738,599616042936649048,-704.00
2025-06-06 11:24:37.780738,599616042936649048,-701.00
2025-06-06 11:24:37.780738,599616042936649048,-699.00
2025-06-06 11:24:37.780738,599616042936649048,-696.00
2025-06-06 11:24:37.780738,599616042936649048,-699.00
2025-06-06 11:24:37.780738,599616042936649048,-704.00
2025-06-06 11:24:37.780738,599616042936649048,-714.00
2025-06-06 11:24:37.780738,599616042936649048,-731.00
2025-06-06 11:24:37.780738,599616042936649048,-733.00
2025-06-06 11:24:37.780738,599616042936649048,-726.00
2025-06-06 11:24:37.780738,599616042936649048,-726.00
2025-06-06 11:24:37.780738,599616042936649048,-731.00
2025-06-06 11:24:37.780738,599616042936649048,-736.00
2025-06-06 11:24:37.780738,599616042936649048,-743.00
2025-06-06 11:24:37.780738,599616042936649048,-740.00
2025-06-06 11:24:37.780738,599616042936649048,-738.00
2025-06-06 11:24:37.780738,599616042936649048,-743.00
2025-06-06 11:24:37.780738,599616042936649048,-743.00
2025-06-06 11:24:37.780738,599616042936649048,-743.00
2025-06-06 11:24:37.780738,599616042936649048,-750.00
2025-06-06 11:24:37.780738,599616042936649048,-753.00
2025-06-06 11:24:37.780738,599616042936649048,-748.00
2025-06-06 11:24:37.780738,599616042936649048,-750.00
2025-06-06 11:24:37.780738,599616042936649048,-755.00
2025-06-06 11:24:37.780738,599616042936649048,-753.00
2025-06-06 11:24:37.780738,599616042936649048,-750.00
2025-06-06 11:24:37.780738,599616042936649048,-758.00
2025-06-06 11:24:37.780738,599616042936649048,-765.00
2025-06-06 11:24:37.780738,599616042936649048,-762.00
2025-06-06 11:24:37.780738,599616042936649048,-760.00
2025-06-06 11:24:37.780738,599616042936649048,-765.00
2025-06-06 11:24:37.780738,599616042936649048,-765.00
2025-06-06 11:24:37.780738,599616042936649048,-767.00
2025-06-06 11:24:37.780738,599616042936649048,-772.00
2025-06-06 11:24:37.780738,599616042936649048,-775.00
2025-06-06 11:24:37.780738,599616042936649048,-777.00
2025-06-06 11:24:37.780738,599616042936649048,-782.00
2025-06-06 11:24:37.780738,599616042936649048,-780.00
2025-06-06 11:24:37.780738,599616042936649048,-784.00
2025-06-06 11:24:37.780738,599616042936649048,-789.00
2025-06-06 11:24:37.780738,599616042936649048,-787.00
2025-06-06 11:24:37.780738,599616042936649048,-792.00
2025-06-06 11:24:37.780738,599616042936649048,-792.00
2025-06-06 11:24:37.780738,599616042936649048,-780.00
2025-06-06 11:24:37.780738,599616042936649048,-777.00
2025-06-06 11:24:37.780738,599616042936649048,-792.00
2025-06-06 11:24:37.780738,599616042936649048,-802.00
2025-06-06 11:24:37.780738,599616042936649048,-802.00
2025-06-06 11:24:37.780738,599616042936649048,-811.00
2025-06-06 11:24:37.780738,599616042936649048,-821.00
2025-06-06 11:24:37.780738,599616042936649048,-829.00
2025-06-06 11:24:37.780738,599616042936649048,-838.00
2025-06-06 11:24:37.780738,599616042936649048,-841.00
2025-06-06 11:24:37.780738,599616042936649048,-838.00
2025-06-06 11:24:37.780738,599616042936649048,-848.00
2025-06-06 11:24:37.780738,599616042936649048,-855.00
2025-06-06 11:24:37.780738,599616042936649048,-853.00
2025-06-06 11:24:37.780738,599616042936649048,-870.00
2025-06-06 11:24:37.780738,599616042936649048,-887.00
2025-06-06 11:24:37.780738,599616042936649048,-821.00
2025-06-06 11:24:37.780738,599616042936649048,-635.00
2025-06-06 11:24:37.780738,599616042936649048,-352.00
2025-06-06 11:24:37.780738,599616042936649048,-102.00
2025-06-06 11:24:38.290882,599616043497254535,-180.00
2025-06-06 11:24:38.290882,599616043497254535,-655.00
2025-06-06 11:24:38.290882,599616043497254535,-1005.00
2025-06-06 11:24:38.290882,599616043497254535,-929.00
2025-06-06 11:24:38.290882,599616043497254535,-838.00
2025-06-06 11:24:38.290882,599616043497254535,-897.00
2025-06-06 11:24:38.290882,599616043497254535,-887.00
2025-06-06 11:24:38.290882,599616043497254535,-841.00
2025-06-06 11:24:38.290882,599616043497254535,-851.00
2025-06-06 11:24:38.290882,599616043497254535,-846.00
2025-06-06 11:24:38.290882,599616043497254535,-826.00
2025-06-06 11:24:38.290882,599616043497254535,-826.00
2025-06-06 11:24:38.290882,599616043497254535,-821.00
2025-06-06 11:24:38.290882,599616043497254535,-802.00
2025-06-06 11:24:38.290882,599616043497254535,-794.00
2025-06-06 11:24:38.290882,599616043497254535,-794.00
2025-06-06 11:24:38.290882,599616043497254535,-782.00
2025-06-06 11:24:38.290882,599616043497254535,-765.00
2025-06-06 11:24:38.290882,599616043497254535,-758.00
2025-06-06 11:24:38.290882,599616043497254535,-753.00
2025-06-06 11:24:38.290882,599616043497254535,-740.00
2025-06-06 11:24:38.290882,599616043497254535,-728.00
2025-06-06 11:24:38.290882,599616043497254535,-723.00
2025-06-06 11:24:38.290882,599616043497254535,-711.00
2025-06-06 11:24:38.290882,599616043497254535,-694.00
2025-06-06 11:24:38.290882,599616043497254535,-679.00
2025-06-06 11:24:38.290882,599616043497254535,-674.00
2025-06-06 11:24:38.290882,599616043497254535,-670.00
2025-06-06 11:24:38.290882,599616043497254535,-665.00
2025-06-06 11:24:38.290882,599616043497254535,-665.00
2025-06-06 11:24:38.290882,599616043497254535,-670.00
2025-06-06 11:24:38.290882,599616043497254535,-670.00
2025-06-06 11:24:38.290882,599616043497254535,-674.00
2025-06-06 11:24:38.290882,599616043497254535,-694.00
2025-06-06 11:24:38.290882,599616043497254535,-718.00
2025-06-06 11:24:38.290882,599616043497254535,-736.00
2025-06-06 11:24:38.290882,599616043497254535,-743.00
2025-06-06 11:24:38.290882,599616043497254535,-750.00
2025-06-06 11:24:38.290882,599616043497254535,-758.00
2025-06-06 11:24:38.290882,599616043497254535,-765.00
2025-06-06 11:24:38.290882,599616043497254535,-760.00
2025-06-06 11:24:38.290882,599616043497254535,-758.00
2025-06-06 11:24:38.290882,599616043497254535,-755.00
2025-06-06 11:24:38.290882,599616043497254535,-748.00
2025-06-06 11:24:38.290882,599616043497254535,-738.00
2025-06-06 11:24:38.290882,599616043497254535,-736.00
2025-06-06 11:24:38.290882,599616043497254535,-736.00
2025-06-06 11:24:38.290882,599616043497254535,-728.00
2025-06-06 11:24:38.290882,599616043497254535,-726.00
2025-06-06 11:24:38.290882,599616043497254535,-726.00
2025-06-06 11:24:38.290882,599616043497254535,-728.00
2025-06-06 11:24:38.290882,599616043497254535,-726.00
2025-06-06 11:24:38.290882,599616043497254535,-723.00
2025-06-06 11:24:38.290882,599616043497254535,-718.00
2025-06-06 11:24:38.290882,599616043497254535,-721.00
2025-06-06 11:24:38.290882,599616043497254535,-721.00
2025-06-06 11:24:38.290882,599616043497254535,-718.00
2025-06-06 11:24:38.290882,599616043497254535,-721.00
2025-06-06 11:24:38.290882,599616043497254535,-723.00
2025-06-06 11:24:38.290882,599616043497254535,-718.00
2025-06-06 11:24:38.290882,599616043497254535,-718.00
2025-06-06 11:24:38.290882,599616043497254535,-721.00
2025-06-06 11:24:38.290882,599616043497254535,-718.00
2025-06-06 11:24:38.290882,599616043497254535,-716.00
2025-06-06 11:24:38.290882,599616043497254535,-716.00
2025-06-06 11:24:38.290882,599616043497254535,-714.00
2025-06-06 11:24:38.290882,599616043497254535,-714.00
2025-06-06 11:24:38.290882,599616043497254535,-714.00
2025-06-06 11:24:38.290882,599616043497254535,-711.00
2025-06-06 11:24:38.290882,599616043497254535,-714.00
2025-06-06 11:24:38.290882,599616043497254535,-716.00
2025-06-06 11:24:38.290882,599616043497254535,-711.00
2025-06-06 11:24:38.290882,599616043497254535,-706.00
2025-06-06 11:24:38.857714,599616044057860022,-706.00
2025-06-06 11:24:38.857714,599616044057860022,-709.00
2025-06-06 11:24:38.857714,599616044057860022,-706.00
2025-06-06 11:24:38.857714,599616044057860022,-701.00
2025-06-06 11:24:38.857714,599616044057860022,-704.00
2025-06-06 11:24:38.857714,599616044057860022,-701.00
2025-06-06 11:24:38.857714,599616044057860022,-699.00
2025-06-06 11:24:38.857714,599616044057860022,-701.00
2025-06-06 11:24:38.857714,599616044057860022,-704.00
2025-06-06 11:24:38.857714,599616044057860022,-701.00
2025-06-06 11:24:38.857714,599616044057860022,-696.00
2025-06-06 11:24:38.857714,599616044057860022,-694.00
2025-06-06 11:24:38.857714,599616044057860022,-694.00
2025-06-06 11:24:38.857714,599616044057860022,-692.00
2025-06-06 11:24:38.857714,599616044057860022,-689.00
2025-06-06 11:24:38.857714,599616044057860022,-692.00
2025-06-06 11:24:38.857714,599616044057860022,-689.00
2025-06-06 11:24:38.857714,599616044057860022,-677.00
2025-06-06 11:24:38.857714,599616044057860022,-667.00
2025-06-06 11:24:38.857714,599616044057860022,-672.00
2025-06-06 11:24:38.857714,599616044057860022,-677.00
2025-06-06 11:24:38.857714,599616044057860022,-674.00
2025-06-06 11:24:38.857714,599616044057860022,-674.00
2025-06-06 11:24:38.857714,599616044057860022,-684.00
2025-06-06 11:24:38.857714,599616044057860022,-689.00
2025-06-06 11:24:38.857714,599616044057860022,-687.00
2025-06-06 11:24:38.857714,599616044057860022,-687.00
2025-06-06 11:24:38.857714,599616044057860022,-684.00
2025-06-06 11:24:38.857714,599616044057860022,-684.00
2025-06-06 11:24:38.857714,599616044057860022,-687.00
2025-06-06 11:24:38.857714,599616044057860022,-684.00
2025-06-06 11:24:38.857714,599616044057860022,-692.00
2025-06-06 11:24:38.857714,599616044057860022,-716.00
2025-06-06 11:24:38.857714,599616044057860022,-714.00
2025-06-06 11:24:38.857714,599616044057860022,-616.00
2025-06-06 11:24:38.857714,599616044057860022,-410.00
2025-06-06 11:24:38.857714,599616044057860022,-114.00
2025-06-06 11:24:38.857714,599616044057860022,110.00
2025-06-06 11:24:38.857714,599616044057860022,-58.00
2025-06-06 11:24:38.857714,599616044057860022,-577.00
2025-06-06 11:24:38.857714,599616044057860022,-873.00
2025-06-06 11:24:38.857714,599616044057860022,-765.00
2025-06-06 11:24:38.857714,599616044057860022,-701.00
2025-06-06 11:24:38.857714,599616044057860022,-772.00
2025-06-06 11:24:38.857714,599616044057860022,-755.00
2025-06-06 11:24:38.857714,599616044057860022,-714.00
2025-06-06 11:24:38.857714,599616044057860022,-723.00
2025-06-06 11:24:38.857714,599616044057860022,-721.00
2025-06-06 11:24:38.857714,599616044057860022,-701.00
2025-06-06 11:24:38.857714,599616044057860022,-696.00
2025-06-06 11:24:38.857714,599616044057860022,-696.00
2025-06-06 11:24:38.857714,599616044057860022,-687.00
2025-06-06 11:24:38.857714,599616044057860022,-674.00
2025-06-06 11:24:38.857714,599616044057860022,-665.00
2025-06-06 11:24:38.857714,599616044057860022,-662.00
2025-06-06 11:24:38.857714,599616044057860022,-662.00
2025-06-06 11:24:38.857714,599616044057860022,-652.00
2025-06-06 11:24:38.857714,599616044057860022,-640.00
2025-06-06 11:24:38.857714,599616044057860022,-635.00
2025-06-06 11:24:38.857714,599616044057860022,-626.00
2025-06-06 11:24:38.857714,599616044057860022,-613.00
2025-06-06 11:24:38.857714,599616044057860022,-608.00
2025-06-06 11:24:38.857714,599616044057860022,-606.00
2025-06-06 11:24:38.857714,599616044057860022,-599.00
2025-06-06 11:24:38.857714,599616044057860022,-586.00
2025-06-06 11:24:38.857714,599616044057860022,-582.00
2025-06-06 11:24:38.857714,599616044057860022,-582.00
2025-06-06 11:24:38.857714,599616044057860022,-584.00
2025-06-06 11:24:38.857714,599616044057860022,-586.00
2025-06-06 11:24:38.857714,599616044057860022,-591.00
2025-06-06 11:24:38.857714,599616044057860022,-599.00
2025-06-06 11:24:38.857714,599616044057860022,-613.00
2025-06-06 11:24:38.857714,599616044057860022,-630.00
2025-06-06 11:24:39.458505,599616044618465511,-648.00
2025-06-06 11:24:39.458505,599616044618465511,-665.00
2025-06-06 11:24:39.458505,599616044618465511,-674.00
2025-06-06 11:24:39.458505,599616044618465511,-677.00
2025-06-06 11:24:39.458505,599616044618465511,-674.00
2025-06-06 11:24:39.458505,599616044618465511,-677.00
2025-06-06 11:24:39.458505,599616044618465511,-677.00
2025-06-06 11:24:39.458505,599616044618465511,-670.00
2025-06-06 11:24:39.458505,599616044618465511,-665.00
2025-06-06 11:24:39.458505,599616044618465511,-667.00
2025-06-06 11:24:39.458505,599616044618465511,-665.00
2025-06-06 11:24:39.458505,599616044618465511,-662.00
2025-06-06 11:24:39.458505,599616044618465511,-660.00
2025-06-06 11:24:39.458505,599616044618465511,-655.00
2025-06-06 11:24:39.458505,599616044618465511,-652.00
2025-06-06 11:24:39.458505,599616044618465511,-657.00
2025-06-06 11:24:39.458505,599616044618465511,-657.00
2025-06-06 11:24:39.458505,599616044618465511,-652.00
2025-06-06 11:24:39.458505,599616044618465511,-650.00
2025-06-06 11:24:39.458505,599616044618465511,-650.00
2025-06-06 11:24:39.458505,599616044618465511,-650.00
2025-06-06 11:24:39.458505,599616044618465511,-650.00
2025-06-06 11:24:39.458505,599616044618465511,-655.00
2025-06-06 11:24:39.458505,599616044618465511,-665.00
2025-06-06 11:24:39.458505,599616044618465511,-660.00
2025-06-06 11:24:39.458505,599616044618465511,-652.00
2025-06-06 11:24:39.458505,599616044618465511,-655.00
2025-06-06 11:24:39.458505,599616044618465511,-655.00
2025-06-06 11:24:39.458505,599616044618465511,-652.00
2025-06-06 11:24:39.458505,599616044618465511,-657.00
2025-06-06 11:24:39.458505,599616044618465511,-662.00
2025-06-06 11:24:39.458505,599616044618465511,-657.00
2025-06-06 11:24:39.458505,599616044618465511,-652.00
2025-06-06 11:24:39.458505,599616044618465511,-652.00
2025-06-06 11:24:39.458505,599616044618465511,-648.00
2025-06-06 11:24:39.458505,599616044618465511,-648.00
2025-06-06 11:24:39.458505,599616044618465511,-650.00
2025-06-06 11:24:39.458505,599616044618465511,-652.00
2025-06-06 11:24:39.458505,599616044618465511,-652.00
2025-06-06 11:24:39.458505,599616044618465511,-655.00
2025-06-06 11:24:39.458505,599616044618465511,-655.00
2025-06-06 11:24:39.458505,599616044618465511,-645.00
2025-06-06 11:24:39.458505,599616044618465511,-638.00
2025-06-06 11:24:39.458505,599616044618465511,-648.00
2025-06-06 11:24:39.458505,599616044618465511,-652.00
2025-06-06 11:24:39.458505,599616044618465511,-650.00
2025-06-06 11:24:39.458505,599616044618465511,-648.00
2025-06-06 11:24:39.458505,599616044618465511,-645.00
2025-06-06 11:24:39.458505,599616044618465511,-640.00
2025-06-06 11:24:39.458505,599616044618465511,-643.00
2025-06-06 11:24:39.458505,599616044618465511,-643.00
2025-06-06 11:24:39.458505,599616044618465511,-638.00
2025-06-06 11:24:39.458505,599616044618465511,-635.00
2025-06-06 11:24:39.458505,599616044618465511,-635.00
2025-06-06 11:24:39.458505,599616044618465511,-633.00
2025-06-06 11:24:39.458505,599616044618465511,-626.00
2025-06-06 11:24:39.458505,599616044618465511,-623.00
2025-06-06 11:24:39.458505,599616044618465511,-621.00
2025-06-06 11:24:39.458505,599616044618465511,-618.00
2025-06-06 11:24:39.458505,599616044618465511,-618.00
2025-06-06 11:24:39.458505,599616044618465511,-618.00
2025-06-06 11:24:39.458505,599616044618465511,-613.00
2025-06-06 11:24:39.458505,599616044618465511,-601.00
2025-06-06 11:24:39.458505,599616044618465511,-601.00
2025-06-06 11:24:39.458505,599616044618465511,-616.00
2025-06-06 11:24:39.458505,599616044618465511,-611.00
2025-06-06 11:24:39.458505,599616044618465511,-599.00
2025-06-06 11:24:39.458505,599616044618465511,-618.00
2025-06-06 11:24:39.458505,599616044618465511,-633.00
2025-06-06 11:24:39.458505,599616044618465511,-621.00
2025-06-06 11:24:39.458505,599616044618465511,-621.00
2025-06-06 11:24:39.458505,599616044618465511,-626.00
2025-06-06 11:24:39.458505,599616044618465511,-621.00
2025-06-06 11:24:39.997489,599616045179070998,-623.00
2025-06-06 11:24:39.997489,599616045179070998,-621.00
2025-06-06 11:24:39.997489,599616045179070998,-618.00
2025-06-06 11:24:39.997489,599616045179070998,-638.00
2025-06-06 11:24:39.997489,599616045179070998,-665.00
2025-06-06 11:24:39.997489,599616045179070998,-635.00
2025-06-06 11:24:39.997489,599616045179070998,-520.00
2025-06-06 11:24:39.997489,599616045179070998,-322.00
2025-06-06 11:24:39.997489,599616045179070998,-51.00
2025-06-06 11:24:39.997489,599616045179070998,119.00
2025-06-06 11:24:39.997489,599616045179070998,-124.00
2025-06-06 11:24:39.997489,599616045179070998,-621.00
2025-06-06 11:24:39.997489,599616045179070998,-799.00
2025-06-06 11:24:39.997489,599616045179070998,-665.00
2025-06-06 11:24:39.997489,599616045179070998,-650.00
2025-06-06 11:24:39.997489,599616045179070998,-706.00
2025-06-06 11:24:39.997489,599616045179070998,-667.00
2025-06-06 11:24:39.997489,599616045179070998,-648.00
2025-06-06 11:24:39.997489,599616045179070998,-665.00
2025-06-06 11:24:39.997489,599616045179070998,-645.00
2025-06-06 11:24:39.997489,599616045179070998,-621.00
2025-06-06 11:24:39.997489,599616045179070998,-621.00
2025-06-06 11:24:39.997489,599616045179070998,-623.00
2025-06-06 11:24:39.997489,599616045179070998,-604.00
2025-06-06 11:24:39.997489,599616045179070998,-599.00
2025-06-06 11:24:39.997489,599616045179070998,-608.00
2025-06-06 11:24:39.997489,599616045179070998,-601.00
2025-06-06 11:24:39.997489,599616045179070998,-586.00
2025-06-06 11:24:39.997489,599616045179070998,-589.00
2025-06-06 11:24:39.997489,599616045179070998,-579.00
2025-06-06 11:24:39.997489,599616045179070998,-557.00
2025-06-06 11:24:39.997489,599616045179070998,-557.00
2025-06-06 11:24:39.997489,599616045179070998,-557.00
2025-06-06 11:24:39.997489,599616045179070998,-545.00
2025-06-06 11:24:39.997489,599616045179070998,-545.00
2025-06-06 11:24:39.997489,599616045179070998,-547.00
2025-06-06 11:24:39.997489,599616045179070998,-535.00
2025-06-06 11:24:39.997489,599616045179070998,-528.00
2025-06-06 11:24:39.997489,599616045179070998,-533.00
2025-06-06 11:24:39.997489,599616045179070998,-530.00
2025-06-06 11:24:39.997489,599616045179070998,-528.00
2025-06-06 11:24:39.997489,599616045179070998,-535.00
2025-06-06 11:24:39.997489,599616045179070998,-550.00
2025-06-06 11:24:39.997489,599616045179070998,-569.00
2025-06-06 11:24:39.997489,599616045179070998,-586.00
2025-06-06 11:24:39.997489,599616045179070998,-591.00
2025-06-06 11:24:39.997489,599616045179070998,-596.00
2025-06-06 11:24:39.997489,599616045179070998,-616.00
2025-06-06 11:24:39.997489,599616045179070998,-626.00
2025-06-06 11:24:39.997489,599616045179070998,-618.00
2025-06-06 11:24:39.997489,599616045179070998,-613.00
2025-06-06 11:24:39.997489,599616045179070998,-621.00
2025-06-06 11:24:39.997489,599616045179070998,-623.00
2025-06-06 11:24:39.997489,599616045179070998,-616.00
2025-06-06 11:24:39.997489,599616045179070998,-608.00
2025-06-06 11:24:39.997489,599616045179070998,-601.00
2025-06-06 11:24:39.997489,599616045179070998,-594.00
2025-06-06 11:24:39.997489,599616045179070998,-599.00
2025-06-06 11:24:39.997489,599616045179070998,-599.00
2025-06-06 11:24:39.997489,599616045179070998,-591.00
2025-06-06 11:24:39.997489,599616045179070998,-591.00
2025-06-06 11:24:39.997489,599616045179070998,-591.00
2025-06-06 11:24:39.997489,599616045179070998,-586.00
2025-06-06 11:24:39.997489,599616045179070998,-589.00
2025-06-06 11:24:39.997489,599616045179070998,-591.00
2025-06-06 11:24:39.997489,599616045179070998,-591.00
2025-06-06 11:24:39.997489,599616045179070998,-591.00
2025-06-06 11:24:39.997489,599616045179070998,-584.00
2025-06-06 11:24:39.997489,599616045179070998,-591.00
2025-06-06 11:24:39.997489,599616045179070998,-604.00
2025-06-06 11:24:39.997489,599616045179070998,-594.00
2025-06-06 11:24:39.997489,599616045179070998,-584.00
2025-06-06 11:24:39.997489,599616045179070998,-589.00
2025-06-06 11:24:40.539004,599616045739676485,-596.00
2025-06-06 11:24:40.539004,599616045739676485,-599.00
2025-06-06 11:24:40.539004,599616045739676485,-591.00
2025-06-06 11:24:40.539004,599616045739676485,-582.00
2025-06-06 11:24:40.539004,599616045739676485,-589.00
2025-06-06 11:24:40.539004,599616045739676485,-594.00
2025-06-06 11:24:40.539004,599616045739676485,-582.00
2025-06-06 11:24:40.539004,599616045739676485,-584.00
2025-06-06 11:24:40.539004,599616045739676485,-601.00
2025-06-06 11:24:40.539004,599616045739676485,-596.00
2025-06-06 11:24:40.539004,599616045739676485,-582.00
2025-06-06 11:24:40.539004,599616045739676485,-579.00
2025-06-06 11:24:40.539004,599616045739676485,-582.00
2025-06-06 11:24:40.539004,599616045739676485,-586.00
2025-06-06 11:24:40.539004,599616045739676485,-591.00
2025-06-06 11:24:40.539004,599616045739676485,-591.00
2025-06-06 11:24:40.539004,599616045739676485,-584.00
2025-06-06 11:24:40.539004,599616045739676485,-579.00
2025-06-06 11:24:40.539004,599616045739676485,-584.00
2025-06-06 11:24:40.539004,599616045739676485,-584.00
2025-06-06 11:24:40.539004,599616045739676485,-582.00
2025-06-06 11:24:40.539004,599616045739676485,-582.00
2025-06-06 11:24:40.539004,599616045739676485,-582.00
2025-06-06 11:24:40.539004,599616045739676485,-584.00
2025-06-06 11:24:40.539004,599616045739676485,-582.00
2025-06-06 11:24:40.539004,599616045739676485,-584.00
2025-06-06 11:24:40.539004,599616045739676485,-591.00
2025-06-06 11:24:40.539004,599616045739676485,-586.00
2025-06-06 11:24:40.539004,599616045739676485,-569.00
2025-06-06 11:24:40.539004,599616045739676485,-564.00
2025-06-06 11:24:40.539004,599616045739676485,-574.00
2025-06-06 11:24:40.539004,599616045739676485,-574.00
2025-06-06 11:24:40.539004,599616045739676485,-564.00
2025-06-06 11:24:40.539004,599616045739676485,-567.00
2025-06-06 11:24:40.539004,599616045739676485,-579.00
2025-06-06 11:24:40.539004,599616045739676485,-586.00
2025-06-06 11:24:40.539004,599616045739676485,-586.00
2025-06-06 11:24:40.539004,599616045739676485,-586.00
2025-06-06 11:24:40.539004,599616045739676485,-584.00
2025-06-06 11:24:40.539004,599616045739676485,-584.00
2025-06-06 11:24:40.539004,599616045739676485,-582.00
2025-06-06 11:24:40.539004,599616045739676485,-572.00
2025-06-06 11:24:40.539004,599616045739676485,-577.00
2025-06-06 11:24:40.539004,599616045739676485,-594.00
2025-06-06 11:24:40.539004,599616045739676485,-604.00
2025-06-06 11:24:40.539004,599616045739676485,-564.00
2025-06-06 11:24:40.539004,599616045739676485,-440.00
2025-06-06 11:24:40.539004,599616045739676485,-217.00
2025-06-06 11:24:40.539004,599616045739676485,17.00
2025-06-06 11:24:40.539004,599616045739676485,22.00
2025-06-06 11:24:40.539004,599616045739676485,-335.00
2025-06-06 11:24:40.539004,599616045739676485,-694.00
2025-06-06 11:24:40.539004,599616045739676485,-692.00
2025-06-06 11:24:40.539004,599616045739676485,-601.00
2025-06-06 11:24:40.539004,599616045739676485,-648.00
2025-06-06 11:24:40.539004,599616045739676485,-650.00
2025-06-06 11:24:40.539004,599616045739676485,-608.00
2025-06-06 11:24:40.539004,599616045739676485,-621.00
2025-06-06 11:24:40.539004,599616045739676485,-626.00
2025-06-06 11:24:40.539004,599616045739676485,-604.00
2025-06-06 11:24:40.539004,599616045739676485,-606.00
2025-06-06 11:24:40.539004,599616045739676485,-606.00
2025-06-06 11:24:40.539004,599616045739676485,-586.00
2025-06-06 11:24:40.539004,599616045739676485,-579.00
2025-06-06 11:24:40.539004,599616045739676485,-589.00
2025-06-06 11:24:40.539004,599616045739676485,-586.00
2025-06-06 11:24:40.539004,599616045739676485,-574.00
2025-06-06 11:24:40.539004,599616045739676485,-564.00
2025-06-06 11:24:40.539004,599616045739676485,-564.00
2025-06-06 11:24:40.539004,599616045739676485,-560.00
2025-06-06 11:24:40.539004,599616045739676485,-550.00
2025-06-06 11:24:40.539004,599616045739676485,-550.00
2025-06-06 11:24:40.539004,599616045739676485,-547.00
2025-06-06 11:24:41.139723,599616046300281972,-538.00
2025-06-06 11:24:41.139723,599616046300281972,-528.00
2025-06-06 11:24:41.139723,599616046300281972,-523.00
2025-06-06 11:24:41.139723,599616046300281972,-520.00
2025-06-06 11:24:41.139723,599616046300281972,-520.00
2025-06-06 11:24:41.139723,599616046300281972,-520.00
2025-06-06 11:24:41.139723,599616046300281972,-523.00
2025-06-06 11:24:41.139723,599616046300281972,-525.00
2025-06-06 11:24:41.139723,599616046300281972,-535.00
2025-06-06 11:24:41.139723,599616046300281972,-547.00
2025-06-06 11:24:41.139723,599616046300281972,-560.00
2025-06-06 11:24:41.139723,599616046300281972,-582.00
2025-06-06 11:24:41.139723,599616046300281972,-601.00
2025-06-06 11:24:41.139723,599616046300281972,-608.00
2025-06-06 11:24:41.139723,599616046300281972,-611.00
2025-06-06 11:24:41.139723,599616046300281972,-618.00
2025-06-06 11:24:41.139723,599616046300281972,-621.00
2025-06-06 11:24:41.139723,599616046300281972,-613.00
2025-06-06 11:24:41.139723,599616046300281972,-618.00
2025-06-06 11:24:41.139723,599616046300281972,-626.00
2025-06-06 11:24:41.139723,599616046300281972,-621.00
2025-06-06 11:24:41.139723,599616046300281972,-616.00
2025-06-06 11:24:41.139723,599616046300281972,-618.00
2025-06-06 11:24:41.139723,599616046300281972,-618.00
2025-06-06 11:24:41.139723,599616046300281972,-616.00
2025-06-06 11:24:41.139723,599616046300281972,-613.00
2025-06-06 11:24:41.139723,599616046300281972,-611.00
2025-06-06 11:24:41.139723,599616046300281972,-613.00
2025-06-06 11:24:41.139723,599616046300281972,-621.00
2025-06-06 11:24:41.139723,599616046300281972,-621.00
2025-06-06 11:24:41.139723,599616046300281972,-611.00
2025-06-06 11:24:41.139723,599616046300281972,-611.00
2025-06-06 11:24:41.139723,599616046300281972,-616.00
2025-06-06 11:24:41.139723,599616046300281972,-623.00
2025-06-06 11:24:41.139723,599616046300281972,-621.00
2025-06-06 11:24:41.139723,599616046300281972,-616.00
2025-06-06 11:24:41.139723,599616046300281972,-621.00
2025-06-06 11:24:41.139723,599616046300281972,-621.00
2025-06-06 11:24:41.139723,599616046300281972,-621.00
2025-06-06 11:24:41.139723,599616046300281972,-630.00
2025-06-06 11:24:41.139723,599616046300281972,-638.00
2025-06-06 11:24:41.139723,599616046300281972,-628.00
2025-06-06 11:24:41.139723,599616046300281972,-628.00
2025-06-06 11:24:41.139723,599616046300281972,-635.00
2025-06-06 11:24:41.139723,599616046300281972,-633.00
2025-06-06 11:24:41.139723,599616046300281972,-628.00
2025-06-06 11:24:41.139723,599616046300281972,-635.00
2025-06-06 11:24:41.139723,599616046300281972,-640.00
2025-06-06 11:24:41.139723,599616046300281972,-635.00
2025-06-06 11:24:41.139723,599616046300281972,-638.00
2025-06-06 11:24:41.139723,599616046300281972,-645.00
2025-06-06 11:24:41.139723,599616046300281972,-648.00
2025-06-06 11:24:41.139723,599616046300281972,-645.00
2025-06-06 11:24:41.139723,599616046300281972,-645.00
2025-06-06 11:24:41.139723,599616046300281972,-645.00
2025-06-06 11:24:41.139723,599616046300281972,-645.00
2025-06-06 11:24:41.139723,599616046300281972,-650.00
2025-06-06 11:24:41.139723,599616046300281972,-650.00
2025-06-06 11:24:41.139723,599616046300281972,-652.00
2025-06-06 11:24:41.139723,599616046300281972,-670.00
2025-06-06 11:24:41.139723,599616046300281972,-679.00
2025-06-06 11:24:41.139723,599616046300281972,-665.00
2025-06-06 11:24:41.139723,599616046300281972,-660.00
2025-06-06 11:24:41.139723,599616046300281972,-677.00
2025-06-06 11:24:41.139723,599616046300281972,-677.00
2025-06-06 11:24:41.139723,599616046300281972,-657.00
2025-06-06 11:24:41.139723,599616046300281972,-648.00
2025-06-06 11:24:41.139723,599616046300281972,-657.00
2025-06-06 11:24:41.139723,599616046300281972,-665.00
2025-06-06 11:24:41.139723,599616046300281972,-662.00
2025-06-06 11:24:41.139723,599616046300281972,-672.00
2025-06-06 11:24:41.139723,599616046300281972,-689.00
2025-06-06 11:24:41.139723,599616046300281972,-684.00
2025-06-06 11:24:41.647530,599616046860887459,-677.00
2025-06-06 11:24:41.647530,599616046860887459,-687.00
2025-06-06 11:24:41.647530,599616046860887459,-687.00
2025-06-06 11:24:41.647530,599616046860887459,-677.00
2025-06-06 11:24:41.647530,599616046860887459,-684.00
2025-06-06 11:24:41.647530,599616046860887459,-696.00
2025-06-06 11:24:41.647530,599616046860887459,-711.00
2025-06-06 11:24:41.647530,599616046860887459,-728.00
2025-06-06 11:24:41.647530,599616046860887459,-692.00
2025-06-06 11:24:41.647530,599616046860887459,-547.00
2025-06-06 11:24:41.647530,599616046860887459,-305.00
2025-06-06 11:24:41.647530,599616046860887459,-61.00
2025-06-06 11:24:41.647530,599616046860887459,-78.00
2025-06-06 11:24:41.647530,599616046860887459,-493.00
2025-06-06 11:24:41.647530,599616046860887459,-875.00
2025-06-06 11:24:41.647530,599616046860887459,-841.00
2025-06-06 11:24:41.647530,599616046860887459,-745.00
2025-06-06 11:24:41.647530,599616046860887459,-814.00
2025-06-06 11:24:41.647530,599616046860887459,-831.00
2025-06-06 11:24:41.647530,599616046860887459,-797.00
2025-06-06 11:24:41.647530,599616046860887459,-807.00
2025-06-06 11:24:41.647530,599616046860887459,-816.00
2025-06-06 11:24:41.647530,599616046860887459,-821.00
2025-06-06 11:24:41.647530,599616046860887459,-853.00
2025-06-06 11:24:41.647530,599616046860887459,-887.00
2025-06-06 11:24:41.647530,599616046860887459,-909.00
2025-06-06 11:24:41.647530,599616046860887459,-939.00
2025-06-06 11:24:41.647530,599616046860887459,-963.00
2025-06-06 11:24:41.647530,599616046860887459,-961.00
2025-06-06 11:24:41.647530,599616046860887459,-936.00
2025-06-06 11:24:41.647530,599616046860887459,-902.00
2025-06-06 11:24:41.647530,599616046860887459,-855.00
2025-06-06 11:24:41.647530,599616046860887459,-809.00
2025-06-06 11:24:41.647530,599616046860887459,-777.00
2025-06-06 11:24:41.647530,599616046860887459,-755.00
2025-06-06 11:24:41.647530,599616046860887459,-718.00
2025-06-06 11:24:41.647530,599616046860887459,-687.00
2025-06-06 11:24:41.647530,599616046860887459,-684.00
2025-06-06 11:24:41.647530,599616046860887459,-684.00
2025-06-06 11:24:41.647530,599616046860887459,-667.00
2025-06-06 11:24:41.647530,599616046860887459,-660.00
2025-06-06 11:24:41.647530,599616046860887459,-655.00
2025-06-06 11:24:41.647530,599616046860887459,-645.00
2025-06-06 11:24:41.647530,599616046860887459,-645.00
2025-06-06 11:24:41.647530,599616046860887459,-657.00
2025-06-06 11:24:41.647530,599616046860887459,-672.00
2025-06-06 11:24:41.647530,599616046860887459,-689.00
2025-06-06 11:24:41.647530,599616046860887459,-709.00
2025-06-06 11:24:41.647530,599616046860887459,-721.00
2025-06-06 11:24:41.647530,599616046860887459,-733.00
2025-06-06 11:24:41.647530,599616046860887459,-748.00
2025-06-06 11:24:41.647530,599616046860887459,-750.00
2025-06-06 11:24:41.647530,599616046860887459,-738.00
2025-06-06 11:24:41.647530,599616046860887459,-731.00
2025-06-06 11:24:41.647530,599616046860887459,-743.00
2025-06-06 11:24:41.647530,599616046860887459,-738.00
2025-06-06 11:24:41.647530,599616046860887459,-723.00
2025-06-06 11:24:41.647530,599616046860887459,-731.00
2025-06-06 11:24:41.647530,599616046860887459,-733.00
2025-06-06 11:24:41.647530,599616046860887459,-716.00
2025-06-06 11:24:41.647530,599616046860887459,-714.00
2025-06-06 11:24:41.647530,599616046860887459,-731.00
2025-06-06 11:24:41.647530,599616046860887459,-733.00
2025-06-06 11:24:41.647530,599616046860887459,-721.00
2025-06-06 11:24:41.647530,599616046860887459,-721.00
2025-06-06 11:24:41.647530,599616046860887459,-726.00
2025-06-06 11:24:41.647530,599616046860887459,-718.00
2025-06-06 11:24:41.647530,599616046860887459,-716.00
2025-06-06 11:24:41.647530,599616046860887459,-726.00
2025-06-06 11:24:41.647530,599616046860887459,-728.00
2025-06-06 11:24:41.647530,599616046860887459,-726.00
2025-06-06 11:24:41.647530,599616046860887459,-728.00
2025-06-06 11:24:41.647530,599616046860887459,-723.00
2025-06-06 11:24:42.393981,599616047421492946,-726.00
2025-06-06 11:24:42.393981,599616047421492946,-728.00
2025-06-06 11:24:42.393981,599616047421492946,-711.00
2025-06-06 11:24:42.393981,599616047421492946,-711.00
2025-06-06 11:24:42.393981,599616047421492946,-728.00
2025-06-06 11:24:42.393981,599616047421492946,-728.00
2025-06-06 11:24:42.393981,599616047421492946,-718.00
2025-06-06 11:24:42.393981,599616047421492946,-716.00
2025-06-06 11:24:42.393981,599616047421492946,-726.00
2025-06-06 11:24:42.393981,599616047421492946,-726.00
2025-06-06 11:24:42.393981,599616047421492946,-709.00
2025-06-06 11:24:42.393981,599616047421492946,-706.00
2025-06-06 11:24:42.393981,599616047421492946,-716.00
2025-06-06 11:24:42.393981,599616047421492946,-714.00
2025-06-06 11:24:42.393981,599616047421492946,-716.00
2025-06-06 11:24:42.393981,599616047421492946,-721.00
2025-06-06 11:24:42.393981,599616047421492946,-711.00
2025-06-06 11:24:42.393981,599616047421492946,-704.00
2025-06-06 11:24:42.393981,599616047421492946,-699.00
2025-06-06 11:24:42.393981,599616047421492946,-687.00
2025-06-06 11:24:42.393981,599616047421492946,-694.00
2025-06-06 11:24:42.393981,599616047421492946,-696.00
2025-06-06 11:24:42.393981,599616047421492946,-682.00
2025-06-06 11:24:42.393981,599616047421492946,-694.00
2025-06-06 11:24:42.393981,599616047421492946,-709.00
2025-06-06 11:24:42.393981,599616047421492946,-704.00
2025-06-06 11:24:42.393981,599616047421492946,-696.00
2025-06-06 11:24:42.393981,599616047421492946,-701.00
2025-06-06 11:24:42.393981,599616047421492946,-706.00
2025-06-06 11:24:42.393981,599616047421492946,-709.00
2025-06-06 11:24:42.393981,599616047421492946,-701.00
2025-06-06 11:24:42.393981,599616047421492946,-699.00
2025-06-06 11:24:42.393981,599616047421492946,-723.00
2025-06-06 11:24:42.393981,599616047421492946,-699.00
2025-06-06 11:24:42.393981,599616047421492946,-557.00
2025-06-06 11:24:42.393981,599616047421492946,-325.00
2025-06-06 11:24:42.393981,599616047421492946,-61.00
2025-06-06 11:24:42.393981,599616047421492946,36.00
2025-06-06 11:24:42.393981,599616047421492946,-300.00
2025-06-06 11:24:42.393981,599616047421492946,-782.00
2025-06-06 11:24:42.393981,599616047421492946,-853.00
2025-06-06 11:24:42.393981,599616047421492946,-704.00
2025-06-06 11:24:42.393981,599616047421492946,-728.00
2025-06-06 11:24:42.393981,599616047421492946,-772.00
2025-06-06 11:24:42.393981,599616047421492946,-731.00
2025-06-06 11:24:42.393981,599616047421492946,-718.00
2025-06-06 11:24:42.393981,599616047421492946,-721.00
2025-06-06 11:24:42.393981,599616047421492946,-696.00
2025-06-06 11:24:42.393981,599616047421492946,-692.00
2025-06-06 11:24:42.393981,599616047421492946,-699.00
2025-06-06 11:24:42.393981,599616047421492946,-689.00
2025-06-06 11:24:42.393981,599616047421492946,-672.00
2025-06-06 11:24:42.393981,599616047421492946,-667.00
2025-06-06 11:24:42.393981,599616047421492946,-665.00
2025-06-06 11:24:42.393981,599616047421492946,-660.00
2025-06-06 11:24:42.393981,599616047421492946,-652.00
2025-06-06 11:24:42.393981,599616047421492946,-640.00
2025-06-06 11:24:42.393981,599616047421492946,-633.00
2025-06-06 11:24:42.393981,599616047421492946,-630.00
2025-06-06 11:24:42.393981,599616047421492946,-621.00
2025-06-06 11:24:42.393981,599616047421492946,-608.00
2025-06-06 11:24:42.393981,599616047421492946,-599.00
2025-06-06 11:24:42.393981,599616047421492946,-594.00
2025-06-06 11:24:42.393981,599616047421492946,-589.00
2025-06-06 11:24:42.393981,599616047421492946,-577.00
2025-06-06 11:24:42.393981,599616047421492946,-572.00
2025-06-06 11:24:42.393981,599616047421492946,-574.00
2025-06-06 11:24:42.393981,599616047421492946,-577.00
2025-06-06 11:24:42.393981,599616047421492946,-577.00
2025-06-06 11:24:42.393981,599616047421492946,-584.00
2025-06-06 11:24:42.393981,599616047421492946,-601.00
2025-06-06 11:24:42.393981,599616047421492946,-616.00
2025-06-06 11:24:42.393981,599616047421492946,-630.00
2025-06-06 11:24:42.818115,599616047982098435,-652.00
2025-06-06 11:24:42.818115,599616047982098435,-670.00
2025-06-06 11:24:42.818115,599616047982098435,-670.00
2025-06-06 11:24:42.818115,599616047982098435,-670.00
2025-06-06 11:24:42.818115,599616047982098435,-667.00
2025-06-06 11:24:42.818115,599616047982098435,-662.00
2025-06-06 11:24:42.818115,599616047982098435,-662.00
2025-06-06 11:24:42.818115,599616047982098435,-660.00
2025-06-06 11:24:42.818115,599616047982098435,-655.00
2025-06-06 11:24:42.818115,599616047982098435,-655.00
2025-06-06 11:24:42.818115,599616047982098435,-655.00
2025-06-06 11:24:42.818115,599616047982098435,-648.00
2025-06-06 11:24:42.818115,599616047982098435,-645.00
2025-06-06 11:24:42.818115,599616047982098435,-648.00
2025-06-06 11:24:42.818115,599616047982098435,-648.00
2025-06-06 11:24:42.818115,599616047982098435,-645.00
2025-06-06 11:24:42.818115,599616047982098435,-652.00
2025-06-06 11:24:42.818115,599616047982098435,-652.00
2025-06-06 11:24:42.818115,599616047982098435,-645.00
2025-06-06 11:24:42.818115,599616047982098435,-638.00
2025-06-06 11:24:42.818115,599616047982098435,-640.00
2025-06-06 11:24:42.818115,599616047982098435,-640.00
2025-06-06 11:24:42.818115,599616047982098435,-638.00
2025-06-06 11:24:42.818115,599616047982098435,-640.00
2025-06-06 11:24:42.818115,599616047982098435,-643.00
2025-06-06 11:24:42.818115,599616047982098435,-643.00
2025-06-06 11:24:42.818115,599616047982098435,-640.00
2025-06-06 11:24:42.818115,599616047982098435,-640.00
2025-06-06 11:24:42.818115,599616047982098435,-643.00
2025-06-06 11:24:42.818115,599616047982098435,-640.00
2025-06-06 11:24:42.818115,599616047982098435,-633.00
2025-06-06 11:24:42.818115,599616047982098435,-635.00
2025-06-06 11:24:42.818115,599616047982098435,-638.00
2025-06-06 11:24:42.818115,599616047982098435,-633.00
2025-06-06 11:24:42.818115,599616047982098435,-628.00
2025-06-06 11:24:42.818115,599616047982098435,-635.00
2025-06-06 11:24:42.818115,599616047982098435,-635.00
2025-06-06 11:24:42.818115,599616047982098435,-630.00
2025-06-06 11:24:42.818115,599616047982098435,-630.00
2025-06-06 11:24:42.818115,599616047982098435,-633.00
2025-06-06 11:24:42.818115,599616047982098435,-633.00
2025-06-06 11:24:42.818115,599616047982098435,-623.00
2025-06-06 11:24:42.818115,599616047982098435,-618.00
2025-06-06 11:24:42.818115,599616047982098435,-623.00
2025-06-06 11:24:42.818115,599616047982098435,-628.00
2025-06-06 11:24:42.818115,599616047982098435,-623.00
2025-06-06 11:24:42.818115,599616047982098435,-608.00
2025-06-06 11:24:42.818115,599616047982098435,-604.00
2025-06-06 11:24:42.818115,599616047982098435,-611.00
2025-06-06 11:24:42.818115,599616047982098435,-611.00
2025-06-06 11:24:42.818115,599616047982098435,-608.00
2025-06-06 11:24:42.818115,599616047982098435,-613.00
2025-06-06 11:24:42.818115,599616047982098435,-623.00
2025-06-06 11:24:42.818115,599616047982098435,-626.00
2025-06-06 11:24:42.818115,599616047982098435,-616.00
2025-06-06 11:24:42.818115,599616047982098435,-618.00
2025-06-06 11:24:42.818115,599616047982098435,-623.00
2025-06-06 11:24:42.818115,599616047982098435,-618.00
2025-06-06 11:24:42.818115,599616047982098435,-616.00
2025-06-06 11:24:42.818115,599616047982098435,-623.00
2025-06-06 11:24:42.818115,599616047982098435,-630.00
2025-06-06 11:24:42.818115,599616047982098435,-633.00
2025-06-06 11:24:42.818115,599616047982098435,-584.00
2025-06-06 11:24:42.818115,599616047982098435,-445.00
2025-06-06 11:24:42.818115,599616047982098435,-205.00
2025-06-06 11:24:42.818115,599616047982098435,31.00
2025-06-06 11:24:42.818115,599616047982098435,2.00
2025-06-06 11:24:42.818115,599616047982098435,-391.00
2025-06-06 11:24:42.818115,599616047982098435,-753.00
2025-06-06 11:24:42.818115,599616047982098435,-738.00
2025-06-06 11:24:42.818115,599616047982098435,-635.00
2025-06-06 11:24:42.818115,599616047982098435,-679.00
2025-06-06 11:24:42.818115,599616047982098435,-689.00
2025-06-06 11:24:43.360156,599616048542734440,-650.00
2025-06-06 11:24:43.360156,599616048542734440,-655.00
2025-06-06 11:24:43.360156,599616048542734440,-657.00
2025-06-06 11:24:43.360156,599616048542734440,-635.00
2025-06-06 11:24:43.360156,599616048542734440,-630.00
2025-06-06 11:24:43.360156,599616048542734440,-635.00
2025-06-06 11:24:43.360156,599616048542734440,-626.00
2025-06-06 11:24:43.360156,599616048542734440,-611.00
2025-06-06 11:24:43.360156,599616048542734440,-608.00
2025-06-06 11:24:43.360156,599616048542734440,-613.00
2025-06-06 11:24:43.360156,599616048542734440,-613.00
2025-06-06 11:24:43.360156,599616048542734440,-601.00
2025-06-06 11:24:43.360156,599616048542734440,-586.00
2025-06-06 11:24:43.360156,599616048542734440,-582.00
2025-06-06 11:24:43.360156,599616048542734440,-579.00
2025-06-06 11:24:43.360156,599616048542734440,-574.00
2025-06-06 11:24:43.360156,599616048542734440,-562.00
2025-06-06 11:24:43.360156,599616048542734440,-557.00
2025-06-06 11:24:43.360156,599616048542734440,-557.00
2025-06-06 11:24:43.360156,599616048542734440,-550.00
2025-06-06 11:24:43.360156,599616048542734440,-538.00
2025-06-06 11:24:43.360156,599616048542734440,-535.00
2025-06-06 11:24:43.360156,599616048542734440,-540.00
2025-06-06 11:24:43.360156,599616048542734440,-540.00
2025-06-06 11:24:43.360156,599616048542734440,-540.00
2025-06-06 11:24:43.360156,599616048542734440,-552.00
2025-06-06 11:24:43.360156,599616048542734440,-562.00
2025-06-06 11:24:43.360156,599616048542734440,-569.00
2025-06-06 11:24:43.360156,599616048542734440,-586.00
2025-06-06 11:24:43.360156,599616048542734440,-604.00
2025-06-06 11:24:43.360156,599616048542734440,-611.00
2025-06-06 11:24:43.360156,599616048542734440,-613.00
2025-06-06 11:24:43.360156,599616048542734440,-608.00
2025-06-06 11:24:43.360156,599616048542734440,-611.00
2025-06-06 11:24:43.360156,599616048542734440,-618.00
2025-06-06 11:24:43.360156,599616048542734440,-613.00
2025-06-06 11:24:43.360156,599616048542734440,-611.00
2025-06-06 11:24:43.360156,599616048542734440,-611.00
2025-06-06 11:24:43.360156,599616048542734440,-608.00
2025-06-06 11:24:43.360156,599616048542734440,-601.00
2025-06-06 11:24:43.360156,599616048542734440,-599.00
2025-06-06 11:24:43.360156,599616048542734440,-601.00
2025-06-06 11:24:43.360156,599616048542734440,-599.00
2025-06-06 11:24:43.360156,599616048542734440,-601.00
2025-06-06 11:24:43.360156,599616048542734440,-604.00
2025-06-06 11:24:43.360156,599616048542734440,-601.00
2025-06-06 11:24:43.360156,599616048542734440,-599.00
2025-06-06 11:24:43.360156,599616048542734440,-596.00
2025-06-06 11:24:43.360156,599616048542734440,-599.00
2025-06-06 11:24:43.360156,599616048542734440,-604.00
2025-06-06 11:24:43.360156,599616048542734440,-601.00
2025-06-06 11:24:43.360156,599616048542734440,-599.00
2025-06-06 11:24:43.360156,599616048542734440,-601.00
2025-06-06 11:24:43.360156,599616048542734440,-601.00
2025-06-06 11:24:43.360156,599616048542734440,-599.00
2025-06-06 11:24:43.360156,599616048542734440,-601.00
2025-06-06 11:24:43.360156,599616048542734440,-608.00
2025-06-06 11:24:43.360156,599616048542734440,-606.00
2025-06-06 11:24:43.360156,599616048542734440,-599.00
2025-06-06 11:24:43.360156,599616048542734440,-596.00
2025-06-06 11:24:43.360156,599616048542734440,-601.00
2025-06-06 11:24:43.360156,599616048542734440,-601.00
2025-06-06 11:24:43.360156,599616048542734440,-599.00
2025-06-06 11:24:43.360156,599616048542734440,-599.00
2025-06-06 11:24:43.360156,599616048542734440,-599.00
2025-06-06 11:24:43.360156,599616048542734440,-599.00
2025-06-06 11:24:43.360156,599616048542734440,-601.00
2025-06-06 11:24:43.360156,599616048542734440,-601.00
2025-06-06 11:24:43.360156,599616048542734440,-599.00
2025-06-06 11:24:43.360156,599616048542734440,-596.00
2025-06-06 11:24:43.360156,599616048542734440,-599.00
2025-06-06 11:24:43.360156,599616048542734440,-601.00
2025-06-06 11:24:43.360156,599616048542734440,-599.00
2025-06-06 11:24:43.930200,599616049103339927,-601.00
2025-06-06 11:24:43.930200,599616049103339927,-601.00
2025-06-06 11:24:43.930200,599616049103339927,-589.00
2025-06-06 11:24:43.930200,599616049103339927,-582.00
2025-06-06 11:24:43.930200,599616049103339927,-594.00
2025-06-06 11:24:43.930200,599616049103339927,-599.00
2025-06-06 11:24:43.930200,599616049103339927,-594.00
2025-06-06 11:24:43.930200,599616049103339927,-596.00
2025-06-06 11:24:43.930200,599616049103339927,-613.00
2025-06-06 11:24:43.930200,599616049103339927,-611.00
2025-06-06 11:24:43.930200,599616049103339927,-604.00
2025-06-06 11:24:43.930200,599616049103339927,-608.00
2025-06-06 11:24:43.930200,599616049103339927,-608.00
2025-06-06 11:24:43.930200,599616049103339927,-601.00
2025-06-06 11:24:43.930200,599616049103339927,-604.00
2025-06-06 11:24:43.930200,599616049103339927,-618.00
2025-06-06 11:24:43.930200,599616049103339927,-635.00
2025-06-06 11:24:43.930200,599616049103339927,-630.00
2025-06-06 11:24:43.930200,599616049103339927,-552.00
2025-06-06 11:24:43.930200,599616049103339927,-379.00
2025-06-06 11:24:43.930200,599616049103339927,-119.00
2025-06-06 11:24:43.930200,599616049103339927,70.00
2025-06-06 11:24:43.930200,599616049103339927,-73.00
2025-06-06 11:24:43.930200,599616049103339927,-515.00
2025-06-06 11:24:43.930200,599616049103339927,-775.00
2025-06-06 11:24:43.930200,599616049103339927,-694.00
2025-06-06 11:24:43.930200,599616049103339927,-640.00
2025-06-06 11:24:43.930200,599616049103339927,-699.00
2025-06-06 11:24:43.930200,599616049103339927,-689.00
2025-06-06 11:24:43.930200,599616049103339927,-652.00
2025-06-06 11:24:43.930200,599616049103339927,-657.00
2025-06-06 11:24:43.930200,599616049103339927,-660.00
2025-06-06 11:24:43.930200,599616049103339927,-645.00
2025-06-06 11:24:43.930200,599616049103339927,-635.00
2025-06-06 11:24:43.930200,599616049103339927,-633.00
2025-06-06 11:24:43.930200,599616049103339927,-628.00
2025-06-06 11:24:43.930200,599616049103339927,-628.00
2025-06-06 11:24:43.930200,599616049103339927,-623.00
2025-06-06 11:24:43.930200,599616049103339927,-618.00
2025-06-06 11:24:43.930200,599616049103339927,-618.00
2025-06-06 11:24:43.930200,599616049103339927,-613.00
2025-06-06 11:24:43.930200,599616049103339927,-606.00
2025-06-06 11:24:43.930200,599616049103339927,-599.00
2025-06-06 11:24:43.930200,599616049103339927,-586.00
2025-06-06 11:24:43.930200,599616049103339927,-582.00
2025-06-06 11:24:43.930200,599616049103339927,-582.00
2025-06-06 11:24:43.930200,599616049103339927,-574.00
2025-06-06 11:24:43.930200,599616049103339927,-564.00
2025-06-06 11:24:43.930200,599616049103339927,-564.00
2025-06-06 11:24:43.930200,599616049103339927,-564.00
2025-06-06 11:24:43.930200,599616049103339927,-564.00
2025-06-06 11:24:43.930200,599616049103339927,-564.00
2025-06-06 11:24:43.930200,599616049103339927,-567.00
2025-06-06 11:24:43.930200,599616049103339927,-569.00
2025-06-06 11:24:43.930200,599616049103339927,-577.00
2025-06-06 11:24:43.930200,599616049103339927,-584.00
2025-06-06 11:24:43.930200,599616049103339927,-601.00
2025-06-06 11:24:43.930200,599616049103339927,-621.00
2025-06-06 11:24:43.930200,599616049103339927,-633.00
2025-06-06 11:24:43.930200,599616049103339927,-643.00
2025-06-06 11:24:43.930200,599616049103339927,-648.00
2025-06-06 11:24:43.930200,599616049103339927,-648.00
2025-06-06 11:24:43.930200,599616049103339927,-640.00
2025-06-06 11:24:43.930200,599616049103339927,-640.00
2025-06-06 11:24:43.930200,599616049103339927,-645.00
2025-06-06 11:24:43.930200,599616049103339927,-643.00
2025-06-06 11:24:43.930200,599616049103339927,-638.00
2025-06-06 11:24:43.930200,599616049103339927,-638.00
2025-06-06 11:24:43.930200,599616049103339927,-638.00
2025-06-06 11:24:43.930200,599616049103339927,-638.00
2025-06-06 11:24:43.930200,599616049103339927,-643.00
2025-06-06 11:24:43.930200,599616049103339927,-640.00
2025-06-06 11:24:43.930200,599616049103339927,-640.00
2025-06-06 11:24:44.468137,599616049663945414,-643.00
2025-06-06 11:24:44.468137,599616049663945414,-640.00
2025-06-06 11:24:44.468137,599616049663945414,-638.00
2025-06-06 11:24:44.468137,599616049663945414,-645.00
2025-06-06 11:24:44.468137,599616049663945414,-652.00
2025-06-06 11:24:44.468137,599616049663945414,-645.00
2025-06-06 11:24:44.468137,599616049663945414,-640.00
2025-06-06 11:24:44.468137,599616049663945414,-645.00
2025-06-06 11:24:44.468137,599616049663945414,-650.00
2025-06-06 11:24:44.468137,599616049663945414,-652.00
2025-06-06 11:24:44.468137,599616049663945414,-648.00
2025-06-06 11:24:44.468137,599616049663945414,-648.00
2025-06-06 11:24:44.468137,599616049663945414,-652.00
2025-06-06 11:24:44.468137,599616049663945414,-648.00
2025-06-06 11:24:44.468137,599616049663945414,-643.00
2025-06-06 11:24:44.468137,599616049663945414,-650.00
2025-06-06 11:24:44.468137,599616049663945414,-652.00
2025-06-06 11:24:44.468137,599616049663945414,-645.00
2025-06-06 11:24:44.468137,599616049663945414,-648.00
2025-06-06 11:24:44.468137,599616049663945414,-657.00
2025-06-06 11:24:44.468137,599616049663945414,-657.00
2025-06-06 11:24:44.468137,599616049663945414,-648.00
2025-06-06 11:24:44.468137,599616049663945414,-645.00
2025-06-06 11:24:44.468137,599616049663945414,-652.00
2025-06-06 11:24:44.468137,599616049663945414,-655.00
2025-06-06 11:24:44.468137,599616049663945414,-652.00
2025-06-06 11:24:44.468137,599616049663945414,-657.00
2025-06-06 11:24:44.468137,599616049663945414,-655.00
2025-06-06 11:24:44.468137,599616049663945414,-652.00
2025-06-06 11:24:44.468137,599616049663945414,-650.00
2025-06-06 11:24:44.468137,599616049663945414,-638.00
2025-06-06 11:24:44.468137,599616049663945414,-635.00
2025-06-06 11:24:44.468137,599616049663945414,-650.00
2025-06-06 11:24:44.468137,599616049663945414,-652.00
2025-06-06 11:24:44.468137,599616049663945414,-652.00
2025-06-06 11:24:44.468137,599616049663945414,-672.00
2025-06-06 11:24:44.468137,599616049663945414,-682.00
2025-06-06 11:24:44.468137,599616049663945414,-670.00
2025-06-06 11:24:44.468137,599616049663945414,-660.00
2025-06-06 11:24:44.468137,599616049663945414,-665.00
2025-06-06 11:24:44.468137,599616049663945414,-667.00
2025-06-06 11:24:44.468137,599616049663945414,-667.00
2025-06-06 11:24:44.468137,599616049663945414,-672.00
2025-06-06 11:24:44.468137,599616049663945414,-687.00
2025-06-06 11:24:44.468137,599616049663945414,-701.00
2025-06-06 11:24:44.468137,599616049663945414,-655.00
2025-06-06 11:24:44.468137,599616049663945414,-501.00
2025-06-06 11:24:44.468137,599616049663945414,-251.00
2025-06-06 11:24:44.468137,599616049663945414,-4.00
2025-06-06 11:24:44.468137,599616049663945414,-19.00
2025-06-06 11:24:44.468137,599616049663945414,-427.00
2025-06-06 11:24:44.468137,599616049663945414,-816.00
2025-06-06 11:24:44.468137,599616049663945414,-811.00
2025-06-06 11:24:44.468137,599616049663945414,-711.00
2025-06-06 11:24:44.468137,599616049663945414,-753.00
2025-06-06 11:24:44.468137,599616049663945414,-765.00
2025-06-06 11:24:44.468137,599616049663945414,-728.00
2025-06-06 11:24:44.468137,599616049663945414,-733.00
2025-06-06 11:24:44.468137,599616049663945414,-738.00
2025-06-06 11:24:44.468137,599616049663945414,-723.00
2025-06-06 11:24:44.468137,599616049663945414,-709.00
2025-06-06 11:24:44.468137,599616049663945414,-704.00
2025-06-06 11:24:44.468137,599616049663945414,-706.00
2025-06-06 11:24:44.468137,599616049663945414,-704.00
2025-06-06 11:24:44.468137,599616049663945414,-699.00
2025-06-06 11:24:44.468137,599616049663945414,-696.00
2025-06-06 11:24:44.468137,599616049663945414,-692.00
2025-06-06 11:24:44.468137,599616049663945414,-684.00
2025-06-06 11:24:44.468137,599616049663945414,-674.00
2025-06-06 11:24:44.468137,599616049663945414,-674.00
2025-06-06 11:24:44.468137,599616049663945414,-672.00
2025-06-06 11:24:44.468137,599616049663945414,-665.00
2025-06-06 11:24:44.468137,599616049663945414,-650.00
2025-06-06 11:24:45.010717,599616050224550901,-645.00
2025-06-06 11:24:45.010717,599616050224550901,-645.00
2025-06-06 11:24:45.010717,599616050224550901,-638.00
2025-06-06 11:24:45.010717,599616050224550901,-623.00
2025-06-06 11:24:45.010717,599616050224550901,-626.00
2025-06-06 11:24:45.010717,599616050224550901,-635.00
2025-06-06 11:24:45.010717,599616050224550901,-640.00
2025-06-06 11:24:45.010717,599616050224550901,-640.00
2025-06-06 11:24:45.010717,599616050224550901,-643.00
2025-06-06 11:24:45.010717,599616050224550901,-652.00
2025-06-06 11:24:45.010717,599616050224550901,-672.00
2025-06-06 11:24:45.010717,599616050224550901,-687.00
2025-06-06 11:24:45.010717,599616050224550901,-692.00
2025-06-06 11:24:45.010717,599616050224550901,-696.00
2025-06-06 11:24:45.010717,599616050224550901,-709.00
2025-06-06 11:24:45.010717,599616050224550901,-716.00
2025-06-06 11:24:45.010717,599616050224550901,-709.00
2025-06-06 11:24:45.010717,599616050224550901,-701.00
2025-06-06 11:24:45.010717,599616050224550901,-701.00
2025-06-06 11:24:45.010717,599616050224550901,-696.00
2025-06-06 11:24:45.010717,599616050224550901,-689.00
2025-06-06 11:24:45.010717,599616050224550901,-692.00
2025-06-06 11:24:45.010717,599616050224550901,-699.00
2025-06-06 11:24:45.010717,599616050224550901,-689.00
2025-06-06 11:24:45.010717,599616050224550901,-679.00
2025-06-06 11:24:45.010717,599616050224550901,-684.00
2025-06-06 11:24:45.010717,599616050224550901,-687.00
2025-06-06 11:24:45.010717,599616050224550901,-679.00
2025-06-06 11:24:45.010717,599616050224550901,-679.00
2025-06-06 11:24:45.010717,599616050224550901,-679.00
2025-06-06 11:24:45.010717,599616050224550901,-674.00
2025-06-06 11:24:45.010717,599616050224550901,-672.00
2025-06-06 11:24:45.010717,599616050224550901,-677.00
2025-06-06 11:24:45.010717,599616050224550901,-677.00
2025-06-06 11:24:45.010717,599616050224550901,-672.00
2025-06-06 11:24:45.010717,599616050224550901,-670.00
2025-06-06 11:24:45.010717,599616050224550901,-672.00
2025-06-06 11:24:45.010717,599616050224550901,-670.00
2025-06-06 11:24:45.010717,599616050224550901,-667.00
2025-06-06 11:24:45.010717,599616050224550901,-665.00
2025-06-06 11:24:45.010717,599616050224550901,-667.00
2025-06-06 11:24:45.010717,599616050224550901,-662.00
2025-06-06 11:24:45.010717,599616050224550901,-657.00
2025-06-06 11:24:45.010717,599616050224550901,-662.00
2025-06-06 11:24:45.010717,599616050224550901,-667.00
2025-06-06 11:24:45.010717,599616050224550901,-662.00
2025-06-06 11:24:45.010717,599616050224550901,-657.00
2025-06-06 11:24:45.010717,599616050224550901,-660.00
2025-06-06 11:24:45.010717,599616050224550901,-660.00
2025-06-06 11:24:45.010717,599616050224550901,-648.00
2025-06-06 11:24:45.010717,599616050224550901,-638.00
2025-06-06 11:24:45.010717,599616050224550901,-635.00
2025-06-06 11:24:45.010717,599616050224550901,-638.00
2025-06-06 11:24:45.010717,599616050224550901,-638.00
2025-06-06 11:24:45.010717,599616050224550901,-638.00
2025-06-06 11:24:45.010717,599616050224550901,-643.00
2025-06-06 11:24:45.010717,599616050224550901,-650.00
2025-06-06 11:24:45.010717,599616050224550901,-648.00
2025-06-06 11:24:45.010717,599616050224550901,-648.00
2025-06-06 11:24:45.010717,599616050224550901,-645.00
2025-06-06 11:24:45.010717,599616050224550901,-640.00
2025-06-06 11:24:45.010717,599616050224550901,-643.00
2025-06-06 11:24:45.010717,599616050224550901,-645.00
2025-06-06 11:24:45.010717,599616050224550901,-645.00
2025-06-06 11:24:45.010717,599616050224550901,-667.00
2025-06-06 11:24:45.010717,599616050224550901,-667.00
2025-06-06 11:24:45.010717,599616050224550901,-569.00
2025-06-06 11:24:45.010717,599616050224550901,-354.00
2025-06-06 11:24:45.010717,599616050224550901,-53.00
2025-06-06 11:24:45.010717,599616050224550901,163.00
2025-06-06 11:24:45.010717,599616050224550901,-17.00
2025-06-06 11:24:45.010717,599616050224550901,-535.00
2025-06-06 11:24:45.010717,599616050224550901,-833.00
2025-06-06 11:24:45.578340,599616050785186906,-736.00
2025-06-06 11:24:45.578340,599616050785186906,-672.00
2025-06-06 11:24:45.578340,599616050785186906,-736.00
2025-06-06 11:24:45.578340,599616050785186906,-714.00
2025-06-06 11:24:45.578340,599616050785186906,-674.00
2025-06-06 11:24:45.578340,599616050785186906,-687.00
2025-06-06 11:24:45.578340,599616050785186906,-682.00
2025-06-06 11:24:45.578340,599616050785186906,-662.00
2025-06-06 11:24:45.578340,599616050785186906,-662.00
2025-06-06 11:24:45.578340,599616050785186906,-662.00
2025-06-06 11:24:45.578340,599616050785186906,-648.00
2025-06-06 11:24:45.578340,599616050785186906,-633.00
2025-06-06 11:24:45.578340,599616050785186906,-630.00
2025-06-06 11:24:45.578340,599616050785186906,-630.00
2025-06-06 11:24:45.578340,599616050785186906,-623.00
2025-06-06 11:24:45.578340,599616050785186906,-618.00
2025-06-06 11:24:45.578340,599616050785186906,-611.00
2025-06-06 11:24:45.578340,599616050785186906,-596.00
2025-06-06 11:24:45.578340,599616050785186906,-586.00
2025-06-06 11:24:45.578340,599616050785186906,-584.00
2025-06-06 11:24:45.578340,599616050785186906,-577.00
2025-06-06 11:24:45.578340,599616050785186906,-574.00
2025-06-06 11:24:45.578340,599616050785186906,-572.00
2025-06-06 11:24:45.578340,599616050785186906,-564.00
2025-06-06 11:24:45.578340,599616050785186906,-557.00
2025-06-06 11:24:45.578340,599616050785186906,-550.00
2025-06-06 11:24:45.578340,599616050785186906,-547.00
2025-06-06 11:24:45.578340,599616050785186906,-557.00
2025-06-06 11:24:45.578340,599616050785186906,-567.00
2025-06-06 11:24:45.578340,599616050785186906,-572.00
2025-06-06 11:24:45.578340,599616050785186906,-577.00
2025-06-06 11:24:45.578340,599616050785186906,-589.00
2025-06-06 11:24:45.578340,599616050785186906,-606.00
2025-06-06 11:24:45.578340,599616050785186906,-621.00
2025-06-06 11:24:45.578340,599616050785186906,-623.00
2025-06-06 11:24:45.578340,599616050785186906,-618.00
2025-06-06 11:24:45.578340,599616050785186906,-618.00
2025-06-06 11:24:45.578340,599616050785186906,-618.00
2025-06-06 11:24:45.578340,599616050785186906,-613.00
2025-06-06 11:24:45.578340,599616050785186906,-611.00
2025-06-06 11:24:45.578340,599616050785186906,-611.00
2025-06-06 11:24:45.578340,599616050785186906,-613.00
2025-06-06 11:24:45.578340,599616050785186906,-608.00
2025-06-06 11:24:45.578340,599616050785186906,-601.00
2025-06-06 11:24:45.578340,599616050785186906,-599.00
2025-06-06 11:24:45.578340,599616050785186906,-599.00
2025-06-06 11:24:45.578340,599616050785186906,-599.00
2025-06-06 11:24:45.578340,599616050785186906,-594.00
2025-06-06 11:24:45.578340,599616050785186906,-591.00
2025-06-06 11:24:45.578340,599616050785186906,-596.00
2025-06-06 11:24:45.578340,599616050785186906,-606.00
2025-06-06 11:24:45.578340,599616050785186906,-599.00
2025-06-06 11:24:45.578340,599616050785186906,-589.00
2025-06-06 11:24:45.578340,599616050785186906,-596.00
2025-06-06 11:24:45.578340,599616050785186906,-601.00
2025-06-06 11:24:45.578340,599616050785186906,-591.00
2025-06-06 11:24:45.578340,599616050785186906,-584.00
2025-06-06 11:24:45.578340,599616050785186906,-582.00
2025-06-06 11:24:45.578340,599616050785186906,-584.00
2025-06-06 11:24:45.578340,599616050785186906,-589.00
2025-06-06 11:24:45.578340,599616050785186906,-586.00
2025-06-06 11:24:45.578340,599616050785186906,-582.00
2025-06-06 11:24:45.578340,599616050785186906,-582.00
2025-06-06 11:24:45.578340,599616050785186906,-579.00
2025-06-06 11:24:45.578340,599616050785186906,-579.00
2025-06-06 11:24:45.578340,599616050785186906,-579.00
2025-06-06 11:24:45.578340,599616050785186906,-577.00
2025-06-06 11:24:45.578340,599616050785186906,-577.00
2025-06-06 11:24:45.578340,599616050785186906,-577.00
2025-06-06 11:24:45.578340,599616050785186906,-579.00
2025-06-06 11:24:45.578340,599616050785186906,-572.00
2025-06-06 11:24:45.578340,599616050785186906,-564.00
2025-06-06 11:24:45.578340,599616050785186906,-562.00
2025-06-06 11:24:46.178059,599616051345761877,-555.00
2025-06-06 11:24:46.178059,599616051345761877,-552.00
2025-06-06 11:24:46.178059,599616051345761877,-557.00
2025-06-06 11:24:46.178059,599616051345761877,-567.00
2025-06-06 11:24:46.178059,599616051345761877,-579.00
2025-06-06 11:24:46.178059,599616051345761877,-582.00
2025-06-06 11:24:46.178059,599616051345761877,-572.00
2025-06-06 11:24:46.178059,599616051345761877,-564.00
2025-06-06 11:24:46.178059,599616051345761877,-569.00
2025-06-06 11:24:46.178059,599616051345761877,-567.00
2025-06-06 11:24:46.178059,599616051345761877,-557.00
2025-06-06 11:24:46.178059,599616051345761877,-569.00
2025-06-06 11:24:46.178059,599616051345761877,-589.00
2025-06-06 11:24:46.178059,599616051345761877,-584.00
2025-06-06 11:24:46.178059,599616051345761877,-511.00
2025-06-06 11:24:46.178059,599616051345761877,-347.00
2025-06-06 11:24:46.178059,599616051345761877,-92.00
2025-06-06 11:24:46.178059,599616051345761877,141.00
2025-06-06 11:24:46.178059,599616051345761877,78.00
2025-06-06 11:24:46.178059,599616051345761877,-369.00
2025-06-06 11:24:46.178059,599616051345761877,-736.00
2025-06-06 11:24:46.178059,599616051345761877,-682.00
2025-06-06 11:24:46.178059,599616051345761877,-579.00
2025-06-06 11:24:46.178059,599616051345761877,-645.00
2025-06-06 11:24:46.178059,599616051345761877,-650.00
2025-06-06 11:24:46.178059,599616051345761877,-601.00
2025-06-06 11:24:46.178059,599616051345761877,-613.00
2025-06-06 11:24:46.178059,599616051345761877,-616.00
2025-06-06 11:24:46.178059,599616051345761877,-586.00
2025-06-06 11:24:46.178059,599616051345761877,-582.00
2025-06-06 11:24:46.178059,599616051345761877,-589.00
2025-06-06 11:24:46.178059,599616051345761877,-582.00
2025-06-06 11:24:46.178059,599616051345761877,-574.00
2025-06-06 11:24:46.178059,599616051345761877,-572.00
2025-06-06 11:24:46.178059,599616051345761877,-564.00
2025-06-06 11:24:46.178059,599616051345761877,-560.00
2025-06-06 11:24:46.178059,599616051345761877,-557.00
2025-06-06 11:24:46.178059,599616051345761877,-545.00
2025-06-06 11:24:46.178059,599616051345761877,-533.00
2025-06-06 11:24:46.178059,599616051345761877,-528.00
2025-06-06 11:24:46.178059,599616051345761877,-525.00
2025-06-06 11:24:46.178059,599616051345761877,-525.00
2025-06-06 11:24:46.178059,599616051345761877,-518.00
2025-06-06 11:24:46.178059,599616051345761877,-508.00
2025-06-06 11:24:46.178059,599616051345761877,-508.00
2025-06-06 11:24:46.178059,599616051345761877,-513.00
2025-06-06 11:24:46.178059,599616051345761877,-506.00
2025-06-06 11:24:46.178059,599616051345761877,-503.00
2025-06-06 11:24:46.178059,599616051345761877,-513.00
2025-06-06 11:24:46.178059,599616051345761877,-515.00
2025-06-06 11:24:46.178059,599616051345761877,-515.00
2025-06-06 11:24:46.178059,599616051345761877,-528.00
2025-06-06 11:24:46.178059,599616051345761877,-542.00
2025-06-06 11:24:46.178059,599616051345761877,-550.00
2025-06-06 11:24:46.178059,599616051345761877,-560.00
2025-06-06 11:24:46.178059,599616051345761877,-569.00
2025-06-06 11:24:46.178059,599616051345761877,-579.00
2025-06-06 11:24:46.178059,599616051345761877,-574.00
2025-06-06 11:24:46.178059,599616051345761877,-567.00
2025-06-06 11:24:46.178059,599616051345761877,-567.00
2025-06-06 11:24:46.178059,599616051345761877,-569.00
2025-06-06 11:24:46.178059,599616051345761877,-562.00
2025-06-06 11:24:46.178059,599616051345761877,-562.00
2025-06-06 11:24:46.178059,599616051345761877,-569.00
2025-06-06 11:24:46.178059,599616051345761877,-567.00
2025-06-06 11:24:46.178059,599616051345761877,-567.00
2025-06-06 11:24:46.178059,599616051345761877,-567.00
2025-06-06 11:24:46.178059,599616051345761877,-557.00
2025-06-06 11:24:46.178059,599616051345761877,-550.00
2025-06-06 11:24:46.178059,599616051345761877,-550.00
2025-06-06 11:24:46.178059,599616051345761877,-557.00
2025-06-06 11:24:46.178059,599616051345761877,-564.00
2025-06-06 11:24:46.178059,599616051345761877,-547.00
2025-06-06 11:24:46.717557,599616051906367364,-540.00
2025-06-06 11:24:46.717557,599616051906367364,-552.00
2025-06-06 11:24:46.717557,599616051906367364,-552.00
2025-06-06 11:24:46.717557,599616051906367364,-540.00
2025-06-06 11:24:46.717557,599616051906367364,-540.00
2025-06-06 11:24:46.717557,599616051906367364,-545.00
2025-06-06 11:24:46.717557,599616051906367364,-542.00
2025-06-06 11:24:46.717557,599616051906367364,-542.00
2025-06-06 11:24:46.717557,599616051906367364,-542.00
2025-06-06 11:24:46.717557,599616051906367364,-530.00
2025-06-06 11:24:46.717557,599616051906367364,-528.00
2025-06-06 11:24:46.717557,599616051906367364,-538.00
2025-06-06 11:24:46.717557,599616051906367364,-535.00
2025-06-06 11:24:46.717557,599616051906367364,-530.00
2025-06-06 11:24:46.717557,599616051906367364,-525.00
2025-06-06 11:24:46.717557,599616051906367364,-520.00
2025-06-06 11:24:46.717557,599616051906367364,-515.00
2025-06-06 11:24:46.717557,599616051906367364,-515.00
2025-06-06 11:24:46.717557,599616051906367364,-518.00
2025-06-06 11:24:46.717557,599616051906367364,-515.00
2025-06-06 11:24:46.717557,599616051906367364,-506.00
2025-06-06 11:24:46.717557,599616051906367364,-498.00
2025-06-06 11:24:46.717557,599616051906367364,-493.00
2025-06-06 11:24:46.717557,599616051906367364,-491.00
2025-06-06 11:24:46.717557,599616051906367364,-491.00
2025-06-06 11:24:46.717557,599616051906367364,-501.00
2025-06-06 11:24:46.717557,599616051906367364,-508.00
2025-06-06 11:24:46.717557,599616051906367364,-513.00
2025-06-06 11:24:46.717557,599616051906367364,-513.00
2025-06-06 11:24:46.717557,599616051906367364,-508.00
2025-06-06 11:24:46.717557,599616051906367364,-503.00
2025-06-06 11:24:46.717557,599616051906367364,-496.00
2025-06-06 11:24:46.717557,599616051906367364,-491.00
2025-06-06 11:24:46.717557,599616051906367364,-496.00
2025-06-06 11:24:46.717557,599616051906367364,-513.00
2025-06-06 11:24:46.717557,599616051906367364,-530.00
2025-06-06 11:24:46.717557,599616051906367364,-506.00
2025-06-06 11:24:46.717557,599616051906367364,-405.00
2025-06-06 11:24:46.717557,599616051906367364,-212.00
2025-06-06 11:24:46.717557,599616051906367364,44.00
2025-06-06 11:24:46.717557,599616051906367364,183.00
2025-06-06 11:24:46.717557,599616051906367364,-44.00
2025-06-06 11:24:46.717557,599616051906367364,-498.00
2025-06-06 11:24:46.717557,599616051906367364,-677.00
2025-06-06 11:24:46.717557,599616051906367364,-557.00
2025-06-06 11:24:46.717557,599616051906367364,-535.00
2025-06-06 11:24:46.717557,599616051906367364,-589.00
2025-06-06 11:24:46.717557,599616051906367364,-560.00
2025-06-06 11:24:46.717557,599616051906367364,-535.00
2025-06-06 11:24:46.717557,599616051906367364,-550.00
2025-06-06 11:24:46.717557,599616051906367364,-538.00
2025-06-06 11:24:46.717557,599616051906367364,-523.00
2025-06-06 11:24:46.717557,599616051906367364,-523.00
2025-06-06 11:24:46.717557,599616051906367364,-520.00
2025-06-06 11:24:46.717557,599616051906367364,-513.00
2025-06-06 11:24:46.717557,599616051906367364,-506.00
2025-06-06 11:24:46.717557,599616051906367364,-503.00
2025-06-06 11:24:46.717557,599616051906367364,-501.00
2025-06-06 11:24:46.717557,599616051906367364,-493.00
2025-06-06 11:24:46.717557,599616051906367364,-486.00
2025-06-06 11:24:46.717557,599616051906367364,-486.00
2025-06-06 11:24:46.717557,599616051906367364,-476.00
2025-06-06 11:24:46.717557,599616051906367364,-464.00
2025-06-06 11:24:46.717557,599616051906367364,-467.00
2025-06-06 11:24:46.717557,599616051906367364,-464.00
2025-06-06 11:24:46.717557,599616051906367364,-452.00
2025-06-06 11:24:46.717557,599616051906367364,-445.00
2025-06-06 11:24:46.717557,599616051906367364,-447.00
2025-06-06 11:24:46.717557,599616051906367364,-454.00
2025-06-06 11:24:46.717557,599616051906367364,-454.00
2025-06-06 11:24:46.717557,599616051906367364,-447.00
2025-06-06 11:24:46.717557,599616051906367364,-454.00
2025-06-06 11:24:46.717557,599616051906367364,-462.00
2025-06-06 11:24:47.287432,599616052466988111,-462.00
2025-06-06 11:24:47.287432,599616052466988111,-474.00
2025-06-06 11:24:47.287432,599616052466988111,-489.00
2025-06-06 11:24:47.287432,599616052466988111,-498.00
2025-06-06 11:24:47.287432,599616052466988111,-506.00
2025-06-06 11:24:47.287432,599616052466988111,-508.00
2025-06-06 11:24:47.287432,599616052466988111,-508.00
2025-06-06 11:24:47.287432,599616052466988111,-515.00
2025-06-06 11:24:47.287432,599616052466988111,-513.00
2025-06-06 11:24:47.287432,599616052466988111,-501.00
2025-06-06 11:24:47.287432,599616052466988111,-498.00
2025-06-06 11:24:47.287432,599616052466988111,-511.00
2025-06-06 11:24:47.287432,599616052466988111,-518.00
2025-06-06 11:24:47.287432,599616052466988111,-503.00
2025-06-06 11:24:47.287432,599616052466988111,-486.00
2025-06-06 11:24:47.287432,599616052466988111,-501.00
2025-06-06 11:24:47.287432,599616052466988111,-511.00
2025-06-06 11:24:47.287432,599616052466988111,-501.00
2025-06-06 11:24:47.287432,599616052466988111,-496.00
2025-06-06 11:24:47.287432,599616052466988111,-501.00
2025-06-06 11:24:47.287432,599616052466988111,-501.00
2025-06-06 11:24:47.287432,599616052466988111,-498.00
2025-06-06 11:24:47.287432,599616052466988111,-503.00
2025-06-06 11:24:47.287432,599616052466988111,-503.00
2025-06-06 11:24:47.287432,599616052466988111,-501.00
2025-06-06 11:24:47.287432,599616052466988111,-503.00
2025-06-06 11:24:47.287432,599616052466988111,-508.00
2025-06-06 11:24:47.287432,599616052466988111,-508.00
2025-06-06 11:24:47.287432,599616052466988111,-498.00
2025-06-06 11:24:47.287432,599616052466988111,-496.00
2025-06-06 11:24:47.287432,599616052466988111,-501.00
2025-06-06 11:24:47.287432,599616052466988111,-501.00
2025-06-06 11:24:47.287432,599616052466988111,-503.00
2025-06-06 11:24:47.287432,599616052466988111,-503.00
2025-06-06 11:24:47.287432,599616052466988111,-496.00
2025-06-06 11:24:47.287432,599616052466988111,-496.00
2025-06-06 11:24:47.287432,599616052466988111,-501.00
2025-06-06 11:24:47.287432,599616052466988111,-498.00
2025-06-06 11:24:47.287432,599616052466988111,-496.00
2025-06-06 11:24:47.287432,599616052466988111,-498.00
2025-06-06 11:24:47.287432,599616052466988111,-496.00
2025-06-06 11:24:47.287432,599616052466988111,-481.00
2025-06-06 11:24:47.287432,599616052466988111,-474.00
2025-06-06 11:24:47.287432,599616052466988111,-481.00
2025-06-06 11:24:47.287432,599616052466988111,-486.00
2025-06-06 11:24:47.287432,599616052466988111,-486.00
2025-06-06 11:24:47.287432,599616052466988111,-486.00
2025-06-06 11:24:47.287432,599616052466988111,-493.00
2025-06-06 11:24:47.287432,599616052466988111,-503.00
2025-06-06 11:24:47.287432,599616052466988111,-503.00
2025-06-06 11:24:47.287432,599616052466988111,-498.00
2025-06-06 11:24:47.287432,599616052466988111,-493.00
2025-06-06 11:24:47.287432,599616052466988111,-496.00
2025-06-06 11:24:47.287432,599616052466988111,-503.00
2025-06-06 11:24:47.287432,599616052466988111,-503.00
2025-06-06 11:24:47.287432,599616052466988111,-496.00
2025-06-06 11:24:47.287432,599616052466988111,-503.00
2025-06-06 11:24:47.287432,599616052466988111,-479.00
2025-06-06 11:24:47.287432,599616052466988111,-359.00
2025-06-06 11:24:47.287432,599616052466988111,-144.00
2025-06-06 11:24:47.287432,599616052466988111,97.00
2025-06-06 11:24:47.287432,599616052466988111,154.00
2025-06-06 11:24:47.287432,599616052466988111,-173.00
2025-06-06 11:24:47.287432,599616052466988111,-589.00
2025-06-06 11:24:47.287432,599616052466988111,-638.00
2025-06-06 11:24:47.287432,599616052466988111,-523.00
2025-06-06 11:24:47.287432,599616052466988111,-557.00
2025-06-06 11:24:47.287432,599616052466988111,-582.00
2025-06-06 11:24:47.287432,599616052466988111,-528.00
2025-06-06 11:24:47.287432,599616052466988111,-530.00
2025-06-06 11:24:47.287432,599616052466988111,-550.00
2025-06-06 11:24:47.287432,599616052466988111,-525.00
2025-06-06 11:24:47.287432,599616052466988111,-513.00
2025-06-06 11:24:47.828178,599616053027588512,-523.00
2025-06-06 11:24:47.828178,599616053027588512,-515.00
2025-06-06 11:24:47.828178,599616053027588512,-506.00
2025-06-06 11:24:47.828178,599616053027588512,-498.00
2025-06-06 11:24:47.828178,599616053027588512,-491.00
2025-06-06 11:24:47.828178,599616053027588512,-489.00
2025-06-06 11:24:47.828178,599616053027588512,-489.00
2025-06-06 11:24:47.828178,599616053027588512,-481.00
2025-06-06 11:24:47.828178,599616053027588512,-474.00
2025-06-06 11:24:47.828178,599616053027588512,-474.00
2025-06-06 11:24:47.828178,599616053027588512,-464.00
2025-06-06 11:24:47.828178,599616053027588512,-459.00
2025-06-06 11:24:47.828178,599616053027588512,-459.00
2025-06-06 11:24:47.828178,599616053027588512,-452.00
2025-06-06 11:24:47.828178,599616053027588512,-445.00
2025-06-06 11:24:47.828178,599616053027588512,-445.00
2025-06-06 11:24:47.828178,599616053027588512,-447.00
2025-06-06 11:24:47.828178,599616053027588512,-449.00
2025-06-06 11:24:47.828178,599616053027588512,-449.00
2025-06-06 11:24:47.828178,599616053027588512,-449.00
2025-06-06 11:24:47.828178,599616053027588512,-454.00
2025-06-06 11:24:47.828178,599616053027588512,-469.00
2025-06-06 11:24:47.828178,599616053027588512,-481.00
2025-06-06 11:24:47.828178,599616053027588512,-493.00
2025-06-06 11:24:47.828178,599616053027588512,-501.00
2025-06-06 11:24:47.828178,599616053027588512,-508.00
2025-06-06 11:24:47.828178,599616053027588512,-513.00
2025-06-06 11:24:47.828178,599616053027588512,-503.00
2025-06-06 11:24:47.828178,599616053027588512,-501.00
2025-06-06 11:24:47.828178,599616053027588512,-511.00
2025-06-06 11:24:47.828178,599616053027588512,-511.00
2025-06-06 11:24:47.828178,599616053027588512,-498.00
2025-06-06 11:24:47.828178,599616053027588512,-496.00
2025-06-06 11:24:47.828178,599616053027588512,-498.00
2025-06-06 11:24:47.828178,599616053027588512,-498.00
2025-06-06 11:24:47.828178,599616053027588512,-496.00
2025-06-06 11:24:47.828178,599616053027588512,-498.00
2025-06-06 11:24:47.828178,599616053027588512,-498.00
2025-06-06 11:24:47.828178,599616053027588512,-493.00
2025-06-06 11:24:47.828178,599616053027588512,-493.00
2025-06-06 11:24:47.828178,599616053027588512,-491.00
2025-06-06 11:24:47.828178,599616053027588512,-496.00
2025-06-06 11:24:47.828178,599616053027588512,-501.00
2025-06-06 11:24:47.828178,599616053027588512,-498.00
2025-06-06 11:24:47.828178,599616053027588512,-496.00
2025-06-06 11:24:47.828178,599616053027588512,-498.00
2025-06-06 11:24:47.828178,599616053027588512,-503.00
2025-06-06 11:24:47.828178,599616053027588512,-503.00
2025-06-06 11:24:47.828178,599616053027588512,-501.00
2025-06-06 11:24:47.828178,599616053027588512,-496.00
2025-06-06 11:24:47.828178,599616053027588512,-491.00
2025-06-06 11:24:47.828178,599616053027588512,-496.00
2025-06-06 11:24:47.828178,599616053027588512,-503.00
2025-06-06 11:24:47.828178,599616053027588512,-496.00
2025-06-06 11:24:47.828178,599616053027588512,-493.00
2025-06-06 11:24:47.828178,599616053027588512,-501.00
2025-06-06 11:24:47.828178,599616053027588512,-503.00
2025-06-06 11:24:47.828178,599616053027588512,-493.00
2025-06-06 11:24:47.828178,599616053027588512,-489.00
2025-06-06 11:24:47.828178,599616053027588512,-496.00
2025-06-06 11:24:47.828178,599616053027588512,-493.00
2025-06-06 11:24:47.828178,599616053027588512,-486.00
2025-06-06 11:24:47.828178,599616053027588512,-496.00
2025-06-06 11:24:47.828178,599616053027588512,-498.00
2025-06-06 11:24:47.828178,599616053027588512,-493.00
2025-06-06 11:24:47.828178,599616053027588512,-489.00
2025-06-06 11:24:47.828178,599616053027588512,-484.00
2025-06-06 11:24:47.828178,599616053027588512,-474.00
2025-06-06 11:24:47.828178,599616053027588512,-474.00
2025-06-06 11:24:47.828178,599616053027588512,-479.00
2025-06-06 11:24:47.828178,599616053027588512,-481.00
2025-06-06 11:24:47.828178,599616053027588512,-489.00
2025-06-06 11:24:47.828178,599616053027588512,-501.00
2025-06-06 11:24:48.400899,599616053588239773,-498.00
2025-06-06 11:24:48.400899,599616053588239773,-496.00
2025-06-06 11:24:48.400899,599616053588239773,-496.00
2025-06-06 11:24:48.400899,599616053588239773,-493.00
2025-06-06 11:24:48.400899,599616053588239773,-489.00
2025-06-06 11:24:48.400899,599616053588239773,-491.00
2025-06-06 11:24:48.400899,599616053588239773,-496.00
2025-06-06 11:24:48.400899,599616053588239773,-506.00
2025-06-06 11:24:48.400899,599616053588239773,-506.00
2025-06-06 11:24:48.400899,599616053588239773,-457.00
2025-06-06 11:24:48.400899,599616053588239773,-335.00
2025-06-06 11:24:48.400899,599616053588239773,-127.00
2025-06-06 11:24:48.400899,599616053588239773,92.00
2025-06-06 11:24:48.400899,599616053588239773,80.00
2025-06-06 11:24:48.400899,599616053588239773,-278.00
2025-06-06 11:24:48.400899,599616053588239773,-616.00
2025-06-06 11:24:48.400899,599616053588239773,-606.00
2025-06-06 11:24:48.400899,599616053588239773,-506.00
2025-06-06 11:24:48.400899,599616053588239773,-542.00
2025-06-06 11:24:48.400899,599616053588239773,-557.00
2025-06-06 11:24:48.400899,599616053588239773,-523.00
2025-06-06 11:24:48.400899,599616053588239773,-528.00
2025-06-06 11:24:48.400899,599616053588239773,-535.00
2025-06-06 11:24:48.400899,599616053588239773,-513.00
2025-06-06 11:24:48.400899,599616053588239773,-501.00
2025-06-06 11:24:48.400899,599616053588239773,-501.00
2025-06-06 11:24:48.400899,599616053588239773,-491.00
2025-06-06 11:24:48.400899,599616053588239773,-491.00
2025-06-06 11:24:48.400899,599616053588239773,-491.00
2025-06-06 11:24:48.400899,599616053588239773,-484.00
2025-06-06 11:24:48.400899,599616053588239773,-481.00
2025-06-06 11:24:48.400899,599616053588239773,-476.00
2025-06-06 11:24:48.400899,599616053588239773,-457.00
2025-06-06 11:24:48.400899,599616053588239773,-459.00
2025-06-06 11:24:48.400899,599616053588239773,-467.00
2025-06-06 11:24:48.400899,599616053588239773,-452.00
2025-06-06 11:24:48.400899,599616053588239773,-440.00
2025-06-06 11:24:48.400899,599616053588239773,-442.00
2025-06-06 11:24:48.400899,599616053588239773,-435.00
2025-06-06 11:24:48.400899,599616053588239773,-427.00
2025-06-06 11:24:48.400899,599616053588239773,-435.00
2025-06-06 11:24:48.400899,599616053588239773,-430.00
2025-06-06 11:24:48.400899,599616053588239773,-420.00
2025-06-06 11:24:48.400899,599616053588239773,-425.00
2025-06-06 11:24:48.400899,599616053588239773,-427.00
2025-06-06 11:24:48.400899,599616053588239773,-430.00
2025-06-06 11:24:48.400899,599616053588239773,-445.00
2025-06-06 11:24:48.400899,599616053588239773,-454.00
2025-06-06 11:24:48.400899,599616053588239773,-469.00
2025-06-06 11:24:48.400899,599616053588239773,-484.00
2025-06-06 11:24:48.400899,599616053588239773,-486.00
2025-06-06 11:24:48.400899,599616053588239773,-489.00
2025-06-06 11:24:48.400899,599616053588239773,-491.00
2025-06-06 11:24:48.400899,599616053588239773,-486.00
2025-06-06 11:24:48.400899,599616053588239773,-476.00
2025-06-06 11:24:48.400899,599616053588239773,-479.00
2025-06-06 11:24:48.400899,599616053588239773,-484.00
2025-06-06 11:24:48.400899,599616053588239773,-474.00
2025-06-06 11:24:48.400899,599616053588239773,-474.00
2025-06-06 11:24:48.400899,599616053588239773,-486.00
2025-06-06 11:24:48.400899,599616053588239773,-481.00
2025-06-06 11:24:48.400899,599616053588239773,-471.00
2025-06-06 11:24:48.400899,599616053588239773,-474.00
2025-06-06 11:24:48.400899,599616053588239773,-476.00
2025-06-06 11:24:48.400899,599616053588239773,-476.00
2025-06-06 11:24:48.400899,599616053588239773,-479.00
2025-06-06 11:24:48.400899,599616053588239773,-476.00
2025-06-06 11:24:48.400899,599616053588239773,-476.00
2025-06-06 11:24:48.400899,599616053588239773,-479.00
2025-06-06 11:24:48.400899,599616053588239773,-476.00
2025-06-06 11:24:48.400899,599616053588239773,-479.00
2025-06-06 11:24:48.400899,599616053588239773,-479.00
2025-06-06 11:24:48.400899,599616053588239773,-474.00
2025-06-06 11:24:48.938233,599616054148819830,-471.00
2025-06-06 11:24:48.938233,599616054148819830,-479.00
2025-06-06 11:24:48.938233,599616054148819830,-479.00
2025-06-06 11:24:48.938233,599616054148819830,-474.00
2025-06-06 11:24:48.938233,599616054148819830,-479.00
2025-06-06 11:24:48.938233,599616054148819830,-479.00
2025-06-06 11:24:48.938233,599616054148819830,-474.00
2025-06-06 11:24:48.938233,599616054148819830,-474.00
2025-06-06 11:24:48.938233,599616054148819830,-481.00
2025-06-06 11:24:48.938233,599616054148819830,-479.00
2025-06-06 11:24:48.938233,599616054148819830,-474.00
2025-06-06 11:24:48.938233,599616054148819830,-479.00
2025-06-06 11:24:48.938233,599616054148819830,-479.00
2025-06-06 11:24:48.938233,599616054148819830,-471.00
2025-06-06 11:24:48.938233,599616054148819830,-476.00
2025-06-06 11:24:48.938233,599616054148819830,-481.00
2025-06-06 11:24:48.938233,599616054148819830,-471.00
2025-06-06 11:24:48.938233,599616054148819830,-467.00
2025-06-06 11:24:48.938233,599616054148819830,-471.00
2025-06-06 11:24:48.938233,599616054148819830,-471.00
2025-06-06 11:24:48.938233,599616054148819830,-464.00
2025-06-06 11:24:48.938233,599616054148819830,-457.00
2025-06-06 11:24:48.938233,599616054148819830,-452.00
2025-06-06 11:24:48.938233,599616054148819830,-459.00
2025-06-06 11:24:48.938233,599616054148819830,-462.00
2025-06-06 11:24:48.938233,599616054148819830,-464.00
2025-06-06 11:24:48.938233,599616054148819830,-474.00
2025-06-06 11:24:48.938233,599616054148819830,-481.00
2025-06-06 11:24:48.938233,599616054148819830,-481.00
2025-06-06 11:24:48.938233,599616054148819830,-479.00
2025-06-06 11:24:48.938233,599616054148819830,-474.00
2025-06-06 11:24:48.938233,599616054148819830,-476.00
2025-06-06 11:24:48.938233,599616054148819830,-476.00
2025-06-06 11:24:48.938233,599616054148819830,-471.00
2025-06-06 11:24:48.938233,599616054148819830,-479.00
2025-06-06 11:24:48.938233,599616054148819830,-493.00
2025-06-06 11:24:48.938233,599616054148819830,-476.00
2025-06-06 11:24:48.938233,599616054148819830,-386.00
2025-06-06 11:24:48.938233,599616054148819830,-229.00
2025-06-06 11:24:48.938233,599616054148819830,-34.00
2025-06-06 11:24:48.938233,599616054148819830,75.00
2025-06-06 11:24:48.938233,599616054148819830,-107.00
2025-06-06 11:24:48.938233,599616054148819830,-481.00
2025-06-06 11:24:48.938233,599616054148819830,-618.00
2025-06-06 11:24:48.938233,599616054148819830,-518.00
2025-06-06 11:24:48.938233,599616054148819830,-506.00
2025-06-06 11:24:48.938233,599616054148819830,-552.00
2025-06-06 11:24:48.938233,599616054148819830,-528.00
2025-06-06 11:24:48.938233,599616054148819830,-506.00
2025-06-06 11:24:48.938233,599616054148819830,-518.00
2025-06-06 11:24:48.938233,599616054148819830,-511.00
2025-06-06 11:24:48.938233,599616054148819830,-501.00
2025-06-06 11:24:48.938233,599616054148819830,-498.00
2025-06-06 11:24:48.938233,599616054148819830,-489.00
2025-06-06 11:24:48.938233,599616054148819830,-484.00
2025-06-06 11:24:48.938233,599616054148819830,-491.00
2025-06-06 11:24:48.938233,599616054148819830,-481.00
2025-06-06 11:24:48.938233,599616054148819830,-469.00
2025-06-06 11:24:48.938233,599616054148819830,-471.00
2025-06-06 11:24:48.938233,599616054148819830,-471.00
2025-06-06 11:24:48.938233,599616054148819830,-459.00
2025-06-06 11:24:48.938233,599616054148819830,-454.00
2025-06-06 11:24:48.938233,599616054148819830,-457.00
2025-06-06 11:24:48.938233,599616054148819830,-449.00
2025-06-06 11:24:48.938233,599616054148819830,-442.00
2025-06-06 11:24:48.938233,599616054148819830,-437.00
2025-06-06 11:24:48.938233,599616054148819830,-430.00
2025-06-06 11:24:48.938233,599616054148819830,-427.00
2025-06-06 11:24:48.938233,599616054148819830,-435.00
2025-06-06 11:24:48.938233,599616054148819830,-437.00
2025-06-06 11:24:48.938233,599616054148819830,-432.00
2025-06-06 11:24:48.938233,599616054148819830,-432.00
2025-06-06 11:24:48.938233,599616054148819830,-442.00
2025-06-06 11:24:49.537762,599616054709425319,-452.00
2025-06-06 11:24:49.537762,599616054709425319,-462.00
2025-06-06 11:24:49.537762,599616054709425319,-471.00
2025-06-06 11:24:49.537762,599616054709425319,-481.00
2025-06-06 11:24:49.537762,599616054709425319,-491.00
2025-06-06 11:24:49.537762,599616054709425319,-498.00
2025-06-06 11:24:49.537762,599616054709425319,-496.00
2025-06-06 11:24:49.537762,599616054709425319,-493.00
2025-06-06 11:24:49.537762,599616054709425319,-498.00
2025-06-06 11:24:49.537762,599616054709425319,-496.00
2025-06-06 11:24:49.537762,599616054709425319,-491.00
2025-06-06 11:24:49.537762,599616054709425319,-493.00
2025-06-06 11:24:49.537762,599616054709425319,-496.00
2025-06-06 11:24:49.537762,599616054709425319,-491.00
2025-06-06 11:24:49.537762,599616054709425319,-491.00
2025-06-06 11:24:49.537762,599616054709425319,-496.00
2025-06-06 11:24:49.537762,599616054709425319,-489.00
2025-06-06 11:24:49.537762,599616054709425319,-489.00
2025-06-06 11:24:49.537762,599616054709425319,-496.00
2025-06-06 11:24:49.537762,599616054709425319,-493.00
2025-06-06 11:24:49.537762,599616054709425319,-493.00
2025-06-06 11:24:49.537762,599616054709425319,-498.00
2025-06-06 11:24:49.537762,599616054709425319,-496.00
2025-06-06 11:24:49.537762,599616054709425319,-496.00
2025-06-06 11:24:49.537762,599616054709425319,-498.00
2025-06-06 11:24:49.537762,599616054709425319,-503.00
2025-06-06 11:24:49.537762,599616054709425319,-501.00
2025-06-06 11:24:49.537762,599616054709425319,-498.00
2025-06-06 11:24:49.537762,599616054709425319,-506.00
2025-06-06 11:24:49.537762,599616054709425319,-508.00
2025-06-06 11:24:49.537762,599616054709425319,-498.00
2025-06-06 11:24:49.537762,599616054709425319,-501.00
2025-06-06 11:24:49.537762,599616054709425319,-508.00
2025-06-06 11:24:49.537762,599616054709425319,-498.00
2025-06-06 11:24:49.537762,599616054709425319,-496.00
2025-06-06 11:24:49.537762,599616054709425319,-506.00
2025-06-06 11:24:49.537762,599616054709425319,-506.00
2025-06-06 11:24:49.537762,599616054709425319,-501.00
2025-06-06 11:24:49.537762,599616054709425319,-506.00
2025-06-06 11:24:49.537762,599616054709425319,-508.00
2025-06-06 11:24:49.537762,599616054709425319,-503.00
2025-06-06 11:24:49.537762,599616054709425319,-501.00
2025-06-06 11:24:49.537762,599616054709425319,-503.00
2025-06-06 11:24:49.537762,599616054709425319,-498.00
2025-06-06 11:24:49.537762,599616054709425319,-501.00
2025-06-06 11:24:49.537762,599616054709425319,-508.00
2025-06-06 11:24:49.537762,599616054709425319,-508.00
2025-06-06 11:24:49.537762,599616054709425319,-501.00
2025-06-06 11:24:49.537762,599616054709425319,-493.00
2025-06-06 11:24:49.537762,599616054709425319,-491.00
2025-06-06 11:24:49.537762,599616054709425319,-496.00
2025-06-06 11:24:49.537762,599616054709425319,-498.00
2025-06-06 11:24:49.537762,599616054709425319,-496.00
2025-06-06 11:24:49.537762,599616054709425319,-503.00
2025-06-06 11:24:49.537762,599616054709425319,-513.00
2025-06-06 11:24:49.537762,599616054709425319,-518.00
2025-06-06 11:24:49.537762,599616054709425319,-518.00
2025-06-06 11:24:49.537762,599616054709425319,-518.00
2025-06-06 11:24:49.537762,599616054709425319,-518.00
2025-06-06 11:24:49.537762,599616054709425319,-520.00
2025-06-06 11:24:49.537762,599616054709425319,-515.00
2025-06-06 11:24:49.537762,599616054709425319,-515.00
2025-06-06 11:24:49.537762,599616054709425319,-530.00
2025-06-06 11:24:49.537762,599616054709425319,-533.00
2025-06-06 11:24:49.537762,599616054709425319,-467.00
2025-06-06 11:24:49.537762,599616054709425319,-315.00
2025-06-06 11:24:49.537762,599616054709425319,-85.00
2025-06-06 11:24:49.537762,599616054709425319,102.00
2025-06-06 11:24:49.537762,599616054709425319,0.00
2025-06-06 11:24:49.537762,599616054709425319,-413.00
2025-06-06 11:24:49.537762,599616054709425319,-684.00
2025-06-06 11:24:49.537762,599616054709425319,-608.00
2025-06-06 11:24:49.537762,599616054709425319,-545.00
2025-06-06 11:24:50.077681,599616055270030806,-601.00
2025-06-06 11:24:50.077681,599616055270030806,-594.00
2025-06-06 11:24:50.077681,599616055270030806,-557.00
2025-06-06 11:24:50.077681,599616055270030806,-560.00
2025-06-06 11:24:50.077681,599616055270030806,-562.00
2025-06-06 11:24:50.077681,599616055270030806,-555.00
2025-06-06 11:24:50.077681,599616055270030806,-547.00
2025-06-06 11:24:50.077681,599616055270030806,-545.00
2025-06-06 11:24:50.077681,599616055270030806,-542.00
2025-06-06 11:24:50.077681,599616055270030806,-535.00
2025-06-06 11:24:50.077681,599616055270030806,-533.00
2025-06-06 11:24:50.077681,599616055270030806,-535.00
2025-06-06 11:24:50.077681,599616055270030806,-525.00
2025-06-06 11:24:50.077681,599616055270030806,-518.00
2025-06-06 11:24:50.077681,599616055270030806,-518.00
2025-06-06 11:24:50.077681,599616055270030806,-511.00
2025-06-06 11:24:50.077681,599616055270030806,-501.00
2025-06-06 11:24:50.077681,599616055270030806,-498.00
2025-06-06 11:24:50.077681,599616055270030806,-496.00
2025-06-06 11:24:50.077681,599616055270030806,-484.00
2025-06-06 11:24:50.077681,599616055270030806,-479.00
2025-06-06 11:24:50.077681,599616055270030806,-484.00
2025-06-06 11:24:50.077681,599616055270030806,-486.00
2025-06-06 11:24:50.077681,599616055270030806,-481.00
2025-06-06 11:24:50.077681,599616055270030806,-481.00
2025-06-06 11:24:50.077681,599616055270030806,-489.00
2025-06-06 11:24:50.077681,599616055270030806,-491.00
2025-06-06 11:24:50.077681,599616055270030806,-498.00
2025-06-06 11:24:50.077681,599616055270030806,-511.00
2025-06-06 11:24:50.077681,599616055270030806,-518.00
2025-06-06 11:24:50.077681,599616055270030806,-523.00
2025-06-06 11:24:50.077681,599616055270030806,-538.00
2025-06-06 11:24:50.077681,599616055270030806,-552.00
2025-06-06 11:24:50.077681,599616055270030806,-555.00
2025-06-06 11:24:50.077681,599616055270030806,-552.00
2025-06-06 11:24:50.077681,599616055270030806,-552.00
2025-06-06 11:24:50.077681,599616055270030806,-547.00
2025-06-06 11:24:50.077681,599616055270030806,-547.00
2025-06-06 11:24:50.077681,599616055270030806,-547.00
2025-06-06 11:24:50.077681,599616055270030806,-547.00
2025-06-06 11:24:50.077681,599616055270030806,-547.00
2025-06-06 11:24:50.077681,599616055270030806,-545.00
2025-06-06 11:24:50.077681,599616055270030806,-538.00
2025-06-06 11:24:50.077681,599616055270030806,-542.00
2025-06-06 11:24:50.077681,599616055270030806,-552.00
2025-06-06 11:24:50.077681,599616055270030806,-550.00
2025-06-06 11:24:50.077681,599616055270030806,-542.00
2025-06-06 11:24:50.077681,599616055270030806,-545.00
2025-06-06 11:24:50.077681,599616055270030806,-550.00
2025-06-06 11:24:50.077681,599616055270030806,-547.00
2025-06-06 11:24:50.077681,599616055270030806,-545.00
2025-06-06 11:24:50.077681,599616055270030806,-542.00
2025-06-06 11:24:50.077681,599616055270030806,-545.00
2025-06-06 11:24:50.077681,599616055270030806,-547.00
2025-06-06 11:24:50.077681,599616055270030806,-547.00
2025-06-06 11:24:50.077681,599616055270030806,-545.00
2025-06-06 11:24:50.077681,599616055270030806,-540.00
2025-06-06 11:24:50.077681,599616055270030806,-538.00
2025-06-06 11:24:50.077681,599616055270030806,-542.00
2025-06-06 11:24:50.077681,599616055270030806,-545.00
2025-06-06 11:24:50.077681,599616055270030806,-542.00
2025-06-06 11:24:50.077681,599616055270030806,-542.00
2025-06-06 11:24:50.077681,599616055270030806,-540.00
2025-06-06 11:24:50.077681,599616055270030806,-535.00
2025-06-06 11:24:50.077681,599616055270030806,-538.00
2025-06-06 11:24:50.077681,599616055270030806,-535.00
2025-06-06 11:24:50.077681,599616055270030806,-530.00
2025-06-06 11:24:50.077681,599616055270030806,-535.00
2025-06-06 11:24:50.077681,599616055270030806,-533.00
2025-06-06 11:24:50.077681,599616055270030806,-520.00
2025-06-06 11:24:50.077681,599616055270030806,-525.00
2025-06-06 11:24:50.077681,599616055270030806,-535.00
2025-06-06 11:24:50.077681,599616055270030806,-533.00
2025-06-06 11:24:50.648499,599616055830666811,-528.00
2025-06-06 11:24:50.648499,599616055830666811,-518.00
2025-06-06 11:24:50.648499,599616055830666811,-508.00
2025-06-06 11:24:50.648499,599616055830666811,-508.00
2025-06-06 11:24:50.648499,599616055830666811,-508.00
2025-06-06 11:24:50.648499,599616055830666811,-513.00
2025-06-06 11:24:50.648499,599616055830666811,-520.00
2025-06-06 11:24:50.648499,599616055830666811,-528.00
2025-06-06 11:24:50.648499,599616055830666811,-525.00
2025-06-06 11:24:50.648499,599616055830666811,-523.00
2025-06-06 11:24:50.648499,599616055830666811,-520.00
2025-06-06 11:24:50.648499,599616055830666811,-523.00
2025-06-06 11:24:50.648499,599616055830666811,-520.00
2025-06-06 11:24:50.648499,599616055830666811,-511.00
2025-06-06 11:24:50.648499,599616055830666811,-520.00
2025-06-06 11:24:50.648499,599616055830666811,-538.00
2025-06-06 11:24:50.648499,599616055830666811,-506.00
2025-06-06 11:24:50.648499,599616055830666811,-393.00
2025-06-06 11:24:50.648499,599616055830666811,-190.00
2025-06-06 11:24:50.648499,599616055830666811,63.00
2025-06-06 11:24:50.648499,599616055830666811,154.00
2025-06-06 11:24:50.648499,599616055830666811,-154.00
2025-06-06 11:24:50.648499,599616055830666811,-591.00
2025-06-06 11:24:50.648499,599616055830666811,-665.00
2025-06-06 11:24:50.648499,599616055830666811,-538.00
2025-06-06 11:24:50.648499,599616055830666811,-562.00
2025-06-06 11:24:50.648499,599616055830666811,-599.00
2025-06-06 11:24:50.648499,599616055830666811,-542.00
2025-06-06 11:24:50.648499,599616055830666811,-528.00
2025-06-06 11:24:50.648499,599616055830666811,-552.00
2025-06-06 11:24:50.648499,599616055830666811,-550.00
2025-06-06 11:24:50.648499,599616055830666811,-528.00
2025-06-06 11:24:50.648499,599616055830666811,-518.00
2025-06-06 11:24:50.648499,599616055830666811,-513.00
2025-06-06 11:24:50.648499,599616055830666811,-513.00
2025-06-06 11:24:50.648499,599616055830666811,-503.00
2025-06-06 11:24:50.648499,599616055830666811,-489.00
2025-06-06 11:24:50.648499,599616055830666811,-489.00
2025-06-06 11:24:50.648499,599616055830666811,-491.00
2025-06-06 11:24:50.648499,599616055830666811,-474.00
2025-06-06 11:24:50.648499,599616055830666811,-469.00
2025-06-06 11:24:50.648499,599616055830666811,-476.00
2025-06-06 11:24:50.648499,599616055830666811,-464.00
2025-06-06 11:24:50.648499,599616055830666811,-449.00
2025-06-06 11:24:50.648499,599616055830666811,-452.00
2025-06-06 11:24:50.648499,599616055830666811,-449.00
2025-06-06 11:24:50.648499,599616055830666811,-437.00
2025-06-06 11:24:50.648499,599616055830666811,-435.00
2025-06-06 11:24:50.648499,599616055830666811,-435.00
2025-06-06 11:24:50.648499,599616055830666811,-437.00
2025-06-06 11:24:50.648499,599616055830666811,-442.00
2025-06-06 11:24:50.648499,599616055830666811,-449.00
2025-06-06 11:24:50.648499,599616055830666811,-454.00
2025-06-06 11:24:50.648499,599616055830666811,-459.00
2025-06-06 11:24:50.648499,599616055830666811,-469.00
2025-06-06 11:24:50.648499,599616055830666811,-479.00
2025-06-06 11:24:50.648499,599616055830666811,-486.00
2025-06-06 11:24:50.648499,599616055830666811,-496.00
2025-06-06 11:24:50.648499,599616055830666811,-501.00
2025-06-06 11:24:50.648499,599616055830666811,-501.00
2025-06-06 11:24:50.648499,599616055830666811,-501.00
2025-06-06 11:24:50.648499,599616055830666811,-496.00
2025-06-06 11:24:50.648499,599616055830666811,-491.00
2025-06-06 11:24:50.648499,599616055830666811,-489.00
2025-06-06 11:24:50.648499,599616055830666811,-489.00
