Timestamp,Device Timestamp (ns),ECG Value (uV)
2025-11-18 15:12:40.776744,599617489128810935,-89.00
2025-11-18 15:12:40.776744,599617489128810935,-89.00
2025-11-18 15:12:40.776744,599617489128810935,-86.00
2025-11-18 15:12:40.776744,599617489128810935,-77.00
2025-11-18 15:12:40.776744,599617489128810935,-74.00
2025-11-18 15:12:40.776744,599617489128810935,-69.00
2025-11-18 15:12:40.776744,599617489128810935,-62.00
2025-11-18 15:12:40.776744,599617489128810935,-60.00
2025-11-18 15:12:40.776744,599617489128810935,-60.00
2025-11-18 15:12:40.776744,599617489128810935,-57.00
2025-11-18 15:12:40.776744,599617489128810935,-55.00
2025-11-18 15:12:40.776744,599617489128810935,-52.00
2025-11-18 15:12:40.776744,599617489128810935,-55.00
2025-11-18 15:12:40.776744,599617489128810935,-52.00
2025-11-18 15:12:40.776744,599617489128810935,-52.00
2025-11-18 15:12:40.776744,599617489128810935,-55.00
2025-11-18 15:12:40.776744,599617489128810935,-50.00
2025-11-18 15:12:40.776744,599617489128810935,-50.00
2025-11-18 15:12:40.776744,599617489128810935,-57.00
2025-11-18 15:12:40.776744,599617489128810935,-60.00
2025-11-18 15:12:40.776744,599617489128810935,-57.00
2025-11-18 15:12:40.776744,599617489128810935,-57.00
2025-11-18 15:12:40.776744,599617489128810935,-55.00
2025-11-18 15:12:40.776744,599617489128810935,-55.00
2025-11-18 15:12:40.776744,599617489128810935,-55.00
2025-11-18 15:12:40.776744,599617489128810935,-52.00
2025-11-18 15:12:40.776744,599617489128810935,-52.00
2025-11-18 15:12:40.776744,599617489128810935,-50.00
2025-11-18 15:12:40.776744,599617489128810935,-50.00
2025-11-18 15:12:40.776744,599617489128810935,-48.00
2025-11-18 15:12:40.776744,599617489128810935,-45.00
2025-11-18 15:12:40.776744,599617489128810935,-45.00
2025-11-18 15:12:40.776744,599617489128810935,-50.00
2025-11-18 15:12:40.776744,599617489128810935,-48.00
2025-11-18 15:12:40.776744,599617489128810935,-45.00
2025-11-18 15:12:40.776744,599617489128810935,-45.00
2025-11-18 15:12:40.776744,599617489128810935,-50.00
2025-11-18 15:12:40.776744,599617489128810935,-50.00
2025-11-18 15:12:40.776744,599617489128810935,-48.00
2025-11-18 15:12:40.776744,599617489128810935,-48.00
2025-11-18 15:12:40.776744,599617489128810935,-48.00
2025-11-18 15:12:40.776744,599617489128810935,-45.00
2025-11-18 15:12:40.776744,599617489128810935,-45.00
2025-11-18 15:12:40.776744,599617489128810935,-48.00
2025-11-18 15:12:40.776744,599617489128810935,-48.00
2025-11-18 15:12:40.776744,599617489128810935,-45.00
2025-11-18 15:12:40.776744,599617489128810935,-40.00
2025-11-18 15:12:40.776744,599617489128810935,-31.00
2025-11-18 15:12:40.776744,599617489128810935,-26.00
2025-11-18 15:12:40.776744,599617489128810935,-19.00
2025-11-18 15:12:40.776744,599617489128810935,-4.00
2025-11-18 15:12:40.776744,599617489128810935,-4.00
2025-11-18 15:12:40.776744,599617489128810935,-19.00
2025-11-18 15:12:40.776744,599617489128810935,-31.00
2025-11-18 15:12:40.776744,599617489128810935,-31.00
2025-11-18 15:12:40.776744,599617489128810935,-31.00
2025-11-18 15:12:40.776744,599617489128810935,-38.00
2025-11-18 15:12:40.776744,599617489128810935,-40.00
2025-11-18 15:12:40.776744,599617489128810935,-40.00
2025-11-18 15:12:40.776744,599617489128810935,-40.00
2025-11-18 15:12:40.776744,599617489128810935,-43.00
2025-11-18 15:12:40.776744,599617489128810935,-45.00
2025-11-18 15:12:40.776744,599617489128810935,-45.00
2025-11-18 15:12:40.776744,599617489128810935,-48.00
2025-11-18 15:12:40.776744,599617489128810935,-50.00
2025-11-18 15:12:40.776744,599617489128810935,-65.00
2025-11-18 15:12:40.776744,599617489128810935,-77.00
2025-11-18 15:12:40.776744,599617489128810935,-14.00
2025-11-18 15:12:40.776744,599617489128810935,190.00
2025-11-18 15:12:40.776744,599617489128810935,464.00
2025-11-18 15:12:40.776744,599617489128810935,566.00
2025-11-18 15:12:40.776744,599617489128810935,274.00
2025-11-18 15:12:40.776744,599617489128810935,-156.00
2025-11-18 15:12:41.345278,599617489689477458,-269.00
2025-11-18 15:12:41.345278,599617489689477458,-171.00
2025-11-18 15:12:41.345278,599617489689477458,-134.00
2025-11-18 15:12:41.345278,599617489689477458,-105.00
2025-11-18 15:12:41.345278,599617489689477458,-52.00
2025-11-18 15:12:41.345278,599617489689477458,-45.00
2025-11-18 15:12:41.345278,599617489689477458,-60.00
2025-11-18 15:12:41.345278,599617489689477458,-45.00
2025-11-18 15:12:41.345278,599617489689477458,-36.00
2025-11-18 15:12:41.345278,599617489689477458,-33.00
2025-11-18 15:12:41.345278,599617489689477458,-26.00
2025-11-18 15:12:41.345278,599617489689477458,-19.00
2025-11-18 15:12:41.345278,599617489689477458,-16.00
2025-11-18 15:12:41.345278,599617489689477458,-12.00
2025-11-18 15:12:41.345278,599617489689477458,-9.00
2025-11-18 15:12:41.345278,599617489689477458,-2.00
2025-11-18 15:12:41.345278,599617489689477458,2.00
2025-11-18 15:12:41.345278,599617489689477458,9.00
2025-11-18 15:12:41.345278,599617489689477458,16.00
2025-11-18 15:12:41.345278,599617489689477458,26.00
2025-11-18 15:12:41.345278,599617489689477458,33.00
2025-11-18 15:12:41.345278,599617489689477458,40.00
2025-11-18 15:12:41.345278,599617489689477458,50.00
2025-11-18 15:12:41.345278,599617489689477458,60.00
2025-11-18 15:12:41.345278,599617489689477458,69.00
2025-11-18 15:12:41.345278,599617489689477458,81.00
2025-11-18 15:12:41.345278,599617489689477458,93.00
2025-11-18 15:12:41.345278,599617489689477458,103.00
2025-11-18 15:12:41.345278,599617489689477458,113.00
2025-11-18 15:12:41.345278,599617489689477458,118.00
2025-11-18 15:12:41.345278,599617489689477458,118.00
2025-11-18 15:12:41.345278,599617489689477458,110.00
2025-11-18 15:12:41.345278,599617489689477458,93.00
2025-11-18 15:12:41.345278,599617489689477458,69.00
2025-11-18 15:12:41.345278,599617489689477458,40.00
2025-11-18 15:12:41.345278,599617489689477458,7.00
2025-11-18 15:12:41.345278,599617489689477458,-31.00
2025-11-18 15:12:41.345278,599617489689477458,-67.00
2025-11-18 15:12:41.345278,599617489689477458,-89.00
2025-11-18 15:12:41.345278,599617489689477458,-105.00
2025-11-18 15:12:41.345278,599617489689477458,-118.00
2025-11-18 15:12:41.345278,599617489689477458,-127.00
2025-11-18 15:12:41.345278,599617489689477458,-130.00
2025-11-18 15:12:41.345278,599617489689477458,-132.00
2025-11-18 15:12:41.345278,599617489689477458,-130.00
2025-11-18 15:12:41.345278,599617489689477458,-122.00
2025-11-18 15:12:41.345278,599617489689477458,-122.00
2025-11-18 15:12:41.345278,599617489689477458,-120.00
2025-11-18 15:12:41.345278,599617489689477458,-120.00
2025-11-18 15:12:41.345278,599617489689477458,-115.00
2025-11-18 15:12:41.345278,599617489689477458,-105.00
2025-11-18 15:12:41.345278,599617489689477458,-96.00
2025-11-18 15:12:41.345278,599617489689477458,-93.00
2025-11-18 15:12:41.345278,599617489689477458,-93.00
2025-11-18 15:12:41.345278,599617489689477458,-89.00
2025-11-18 15:12:41.345278,599617489689477458,-86.00
2025-11-18 15:12:41.345278,599617489689477458,-89.00
2025-11-18 15:12:41.345278,599617489689477458,-86.00
2025-11-18 15:12:41.345278,599617489689477458,-84.00
2025-11-18 15:12:41.345278,599617489689477458,-81.00
2025-11-18 15:12:41.345278,599617489689477458,-86.00
2025-11-18 15:12:41.345278,599617489689477458,-89.00
2025-11-18 15:12:41.345278,599617489689477458,-89.00
2025-11-18 15:12:41.345278,599617489689477458,-89.00
2025-11-18 15:12:41.345278,599617489689477458,-86.00
2025-11-18 15:12:41.345278,599617489689477458,-86.00
2025-11-18 15:12:41.345278,599617489689477458,-84.00
2025-11-18 15:12:41.345278,599617489689477458,-79.00
2025-11-18 15:12:41.345278,599617489689477458,-81.00
2025-11-18 15:12:41.345278,599617489689477458,-89.00
2025-11-18 15:12:41.345278,599617489689477458,-86.00
2025-11-18 15:12:41.345278,599617489689477458,-79.00
2025-11-18 15:12:41.345278,599617489689477458,-81.00
2025-11-18 15:12:41.945738,599617490250174501,-86.00
2025-11-18 15:12:41.945738,599617490250174501,-81.00
2025-11-18 15:12:41.945738,599617490250174501,-79.00
2025-11-18 15:12:41.945738,599617490250174501,-84.00
2025-11-18 15:12:41.945738,599617490250174501,-81.00
2025-11-18 15:12:41.945738,599617490250174501,-74.00
2025-11-18 15:12:41.945738,599617490250174501,-74.00
2025-11-18 15:12:41.945738,599617490250174501,-77.00
2025-11-18 15:12:41.945738,599617490250174501,-77.00
2025-11-18 15:12:41.945738,599617490250174501,-77.00
2025-11-18 15:12:41.945738,599617490250174501,-74.00
2025-11-18 15:12:41.945738,599617490250174501,-69.00
2025-11-18 15:12:41.945738,599617490250174501,-69.00
2025-11-18 15:12:41.945738,599617490250174501,-69.00
2025-11-18 15:12:41.945738,599617490250174501,-67.00
2025-11-18 15:12:41.945738,599617490250174501,-65.00
2025-11-18 15:12:41.945738,599617490250174501,-67.00
2025-11-18 15:12:41.945738,599617490250174501,-69.00
2025-11-18 15:12:41.945738,599617490250174501,-69.00
2025-11-18 15:12:41.945738,599617490250174501,-67.00
2025-11-18 15:12:41.945738,599617490250174501,-60.00
2025-11-18 15:12:41.945738,599617490250174501,-57.00
2025-11-18 15:12:41.945738,599617490250174501,-67.00
2025-11-18 15:12:41.945738,599617490250174501,-69.00
2025-11-18 15:12:41.945738,599617490250174501,-57.00
2025-11-18 15:12:41.945738,599617490250174501,-52.00
2025-11-18 15:12:41.945738,599617490250174501,-55.00
2025-11-18 15:12:41.945738,599617490250174501,-43.00
2025-11-18 15:12:41.945738,599617490250174501,-24.00
2025-11-18 15:12:41.945738,599617490250174501,-19.00
2025-11-18 15:12:41.945738,599617490250174501,-26.00
2025-11-18 15:12:41.945738,599617490250174501,-38.00
2025-11-18 15:12:41.945738,599617490250174501,-48.00
2025-11-18 15:12:41.945738,599617490250174501,-50.00
2025-11-18 15:12:41.945738,599617490250174501,-57.00
2025-11-18 15:12:41.945738,599617490250174501,-57.00
2025-11-18 15:12:41.945738,599617490250174501,-50.00
2025-11-18 15:12:41.945738,599617490250174501,-52.00
2025-11-18 15:12:41.945738,599617490250174501,-65.00
2025-11-18 15:12:41.945738,599617490250174501,-62.00
2025-11-18 15:12:41.945738,599617490250174501,-57.00
2025-11-18 15:12:41.945738,599617490250174501,-60.00
2025-11-18 15:12:41.945738,599617490250174501,-62.00
2025-11-18 15:12:41.945738,599617490250174501,-67.00
2025-11-18 15:12:41.945738,599617490250174501,-89.00
2025-11-18 15:12:41.945738,599617490250174501,-65.00
2025-11-18 15:12:41.945738,599617490250174501,98.00
2025-11-18 15:12:41.945738,599617490250174501,368.00
2025-11-18 15:12:41.945738,599617490250174501,541.00
2025-11-18 15:12:41.945738,599617490250174501,346.00
2025-11-18 15:12:41.945738,599617490250174501,-122.00
2025-11-18 15:12:41.945738,599617490250174501,-346.00
2025-11-18 15:12:41.945738,599617490250174501,-248.00
2025-11-18 15:12:41.945738,599617490250174501,-161.00
2025-11-18 15:12:41.945738,599617490250174501,-132.00
2025-11-18 15:12:41.945738,599617490250174501,-77.00
2025-11-18 15:12:41.945738,599617490250174501,-55.00
2025-11-18 15:12:41.945738,599617490250174501,-65.00
2025-11-18 15:12:41.945738,599617490250174501,-50.00
2025-11-18 15:12:41.945738,599617490250174501,-36.00
2025-11-18 15:12:41.945738,599617490250174501,-38.00
2025-11-18 15:12:41.945738,599617490250174501,-33.00
2025-11-18 15:12:41.945738,599617490250174501,-21.00
2025-11-18 15:12:41.945738,599617490250174501,-16.00
2025-11-18 15:12:41.945738,599617490250174501,-19.00
2025-11-18 15:12:41.945738,599617490250174501,-14.00
2025-11-18 15:12:41.945738,599617490250174501,-4.00
2025-11-18 15:12:41.945738,599617490250174501,0.00
2025-11-18 15:12:41.945738,599617490250174501,2.00
2025-11-18 15:12:41.945738,599617490250174501,12.00
2025-11-18 15:12:41.945738,599617490250174501,19.00
2025-11-18 15:12:41.945738,599617490250174501,24.00
2025-11-18 15:12:41.945738,599617490250174501,28.00
2025-11-18 15:12:42.486890,599617490810871542,43.00
2025-11-18 15:12:42.486890,599617490810871542,55.00
2025-11-18 15:12:42.486890,599617490810871542,60.00
2025-11-18 15:12:42.486890,599617490810871542,72.00
2025-11-18 15:12:42.486890,599617490810871542,84.00
2025-11-18 15:12:42.486890,599617490810871542,96.00
2025-11-18 15:12:42.486890,599617490810871542,105.00
2025-11-18 15:12:42.486890,599617490810871542,108.00
2025-11-18 15:12:42.486890,599617490810871542,108.00
2025-11-18 15:12:42.486890,599617490810871542,105.00
2025-11-18 15:12:42.486890,599617490810871542,93.00
2025-11-18 15:12:42.486890,599617490810871542,77.00
2025-11-18 15:12:42.486890,599617490810871542,48.00
2025-11-18 15:12:42.486890,599617490810871542,14.00
2025-11-18 15:12:42.486890,599617490810871542,-21.00
2025-11-18 15:12:42.486890,599617490810871542,-50.00
2025-11-18 15:12:42.486890,599617490810871542,-77.00
2025-11-18 15:12:42.486890,599617490810871542,-96.00
2025-11-18 15:12:42.486890,599617490810871542,-108.00
2025-11-18 15:12:42.486890,599617490810871542,-115.00
2025-11-18 15:12:42.486890,599617490810871542,-122.00
2025-11-18 15:12:42.486890,599617490810871542,-125.00
2025-11-18 15:12:42.486890,599617490810871542,-125.00
2025-11-18 15:12:42.486890,599617490810871542,-120.00
2025-11-18 15:12:42.486890,599617490810871542,-118.00
2025-11-18 15:12:42.486890,599617490810871542,-113.00
2025-11-18 15:12:42.486890,599617490810871542,-101.00
2025-11-18 15:12:42.486890,599617490810871542,-91.00
2025-11-18 15:12:42.486890,599617490810871542,-91.00
2025-11-18 15:12:42.486890,599617490810871542,-91.00
2025-11-18 15:12:42.486890,599617490810871542,-86.00
2025-11-18 15:12:42.486890,599617490810871542,-84.00
2025-11-18 15:12:42.486890,599617490810871542,-81.00
2025-11-18 15:12:42.486890,599617490810871542,-77.00
2025-11-18 15:12:42.486890,599617490810871542,-77.00
2025-11-18 15:12:42.486890,599617490810871542,-79.00
2025-11-18 15:12:42.486890,599617490810871542,-79.00
2025-11-18 15:12:42.486890,599617490810871542,-79.00
2025-11-18 15:12:42.486890,599617490810871542,-77.00
2025-11-18 15:12:42.486890,599617490810871542,-74.00
2025-11-18 15:12:42.486890,599617490810871542,-69.00
2025-11-18 15:12:42.486890,599617490810871542,-69.00
2025-11-18 15:12:42.486890,599617490810871542,-74.00
2025-11-18 15:12:42.486890,599617490810871542,-72.00
2025-11-18 15:12:42.486890,599617490810871542,-69.00
2025-11-18 15:12:42.486890,599617490810871542,-69.00
2025-11-18 15:12:42.486890,599617490810871542,-74.00
2025-11-18 15:12:42.486890,599617490810871542,-74.00
2025-11-18 15:12:42.486890,599617490810871542,-72.00
2025-11-18 15:12:42.486890,599617490810871542,-67.00
2025-11-18 15:12:42.486890,599617490810871542,-65.00
2025-11-18 15:12:42.486890,599617490810871542,-65.00
2025-11-18 15:12:42.486890,599617490810871542,-65.00
2025-11-18 15:12:42.486890,599617490810871542,-62.00
2025-11-18 15:12:42.486890,599617490810871542,-57.00
2025-11-18 15:12:42.486890,599617490810871542,-55.00
2025-11-18 15:12:42.486890,599617490810871542,-57.00
2025-11-18 15:12:42.486890,599617490810871542,-57.00
2025-11-18 15:12:42.486890,599617490810871542,-57.00
2025-11-18 15:12:42.486890,599617490810871542,-55.00
2025-11-18 15:12:42.486890,599617490810871542,-55.00
2025-11-18 15:12:42.486890,599617490810871542,-52.00
2025-11-18 15:12:42.486890,599617490810871542,-48.00
2025-11-18 15:12:42.486890,599617490810871542,-48.00
2025-11-18 15:12:42.486890,599617490810871542,-45.00
2025-11-18 15:12:42.486890,599617490810871542,-43.00
2025-11-18 15:12:42.486890,599617490810871542,-43.00
2025-11-18 15:12:42.486890,599617490810871542,-43.00
2025-11-18 15:12:42.486890,599617490810871542,-40.00
2025-11-18 15:12:42.486890,599617490810871542,-40.00
2025-11-18 15:12:42.486890,599617490810871542,-40.00
2025-11-18 15:12:42.486890,599617490810871542,-38.00
2025-11-18 15:12:42.486890,599617490810871542,-31.00
2025-11-18 15:12:43.056101,599617491371553323,-21.00
2025-11-18 15:12:43.056101,599617491371553323,-9.00
2025-11-18 15:12:43.056101,599617491371553323,4.00
2025-11-18 15:12:43.056101,599617491371553323,2.00
2025-11-18 15:12:43.056101,599617491371553323,-12.00
2025-11-18 15:12:43.056101,599617491371553323,-24.00
2025-11-18 15:12:43.056101,599617491371553323,-24.00
2025-11-18 15:12:43.056101,599617491371553323,-26.00
2025-11-18 15:12:43.056101,599617491371553323,-31.00
2025-11-18 15:12:43.056101,599617491371553323,-31.00
2025-11-18 15:12:43.056101,599617491371553323,-31.00
2025-11-18 15:12:43.056101,599617491371553323,-33.00
2025-11-18 15:12:43.056101,599617491371553323,-33.00
2025-11-18 15:12:43.056101,599617491371553323,-31.00
2025-11-18 15:12:43.056101,599617491371553323,-33.00
2025-11-18 15:12:43.056101,599617491371553323,-36.00
2025-11-18 15:12:43.056101,599617491371553323,-38.00
2025-11-18 15:12:43.056101,599617491371553323,-52.00
2025-11-18 15:12:43.056101,599617491371553323,-57.00
2025-11-18 15:12:43.056101,599617491371553323,36.00
2025-11-18 15:12:43.056101,599617491371553323,272.00
2025-11-18 15:12:43.056101,599617491371553323,527.00
2025-11-18 15:12:43.056101,599617491371553323,525.00
2025-11-18 15:12:43.056101,599617491371553323,137.00
2025-11-18 15:12:43.056101,599617491371553323,-238.00
2025-11-18 15:12:43.056101,599617491371553323,-250.00
2025-11-18 15:12:43.056101,599617491371553323,-142.00
2025-11-18 15:12:43.056101,599617491371553323,-113.00
2025-11-18 15:12:43.056101,599617491371553323,-72.00
2025-11-18 15:12:43.056101,599617491371553323,-31.00
2025-11-18 15:12:43.056101,599617491371553323,-38.00
2025-11-18 15:12:43.056101,599617491371553323,-40.00
2025-11-18 15:12:43.056101,599617491371553323,-16.00
2025-11-18 15:12:43.056101,599617491371553323,-14.00
2025-11-18 15:12:43.056101,599617491371553323,-19.00
2025-11-18 15:12:43.056101,599617491371553323,-12.00
2025-11-18 15:12:43.056101,599617491371553323,-2.00
2025-11-18 15:12:43.056101,599617491371553323,0.00
2025-11-18 15:12:43.056101,599617491371553323,4.00
2025-11-18 15:12:43.056101,599617491371553323,9.00
2025-11-18 15:12:43.056101,599617491371553323,14.00
2025-11-18 15:12:43.056101,599617491371553323,21.00
2025-11-18 15:12:43.056101,599617491371553323,28.00
2025-11-18 15:12:43.056101,599617491371553323,33.00
2025-11-18 15:12:43.056101,599617491371553323,38.00
2025-11-18 15:12:43.056101,599617491371553323,48.00
2025-11-18 15:12:43.056101,599617491371553323,52.00
2025-11-18 15:12:43.056101,599617491371553323,65.00
2025-11-18 15:12:43.056101,599617491371553323,77.00
2025-11-18 15:12:43.056101,599617491371553323,86.00
2025-11-18 15:12:43.056101,599617491371553323,98.00
2025-11-18 15:12:43.056101,599617491371553323,108.00
2025-11-18 15:12:43.056101,599617491371553323,120.00
2025-11-18 15:12:43.056101,599617491371553323,127.00
2025-11-18 15:12:43.056101,599617491371553323,130.00
2025-11-18 15:12:43.056101,599617491371553323,122.00
2025-11-18 15:12:43.056101,599617491371553323,110.00
2025-11-18 15:12:43.056101,599617491371553323,96.00
2025-11-18 15:12:43.056101,599617491371553323,72.00
2025-11-18 15:12:43.056101,599617491371553323,36.00
2025-11-18 15:12:43.056101,599617491371553323,0.00
2025-11-18 15:12:43.056101,599617491371553323,-31.00
2025-11-18 15:12:43.056101,599617491371553323,-60.00
2025-11-18 15:12:43.056101,599617491371553323,-81.00
2025-11-18 15:12:43.056101,599617491371553323,-98.00
2025-11-18 15:12:43.056101,599617491371553323,-108.00
2025-11-18 15:12:43.056101,599617491371553323,-113.00
2025-11-18 15:12:43.056101,599617491371553323,-115.00
2025-11-18 15:12:43.056101,599617491371553323,-118.00
2025-11-18 15:12:43.056101,599617491371553323,-118.00
2025-11-18 15:12:43.056101,599617491371553323,-110.00
2025-11-18 15:12:43.056101,599617491371553323,-103.00
2025-11-18 15:12:43.056101,599617491371553323,-98.00
2025-11-18 15:12:43.597451,599617491932235106,-93.00
2025-11-18 15:12:43.597451,599617491932235106,-91.00
2025-11-18 15:12:43.597451,599617491932235106,-84.00
2025-11-18 15:12:43.597451,599617491932235106,-79.00
2025-11-18 15:12:43.597451,599617491932235106,-74.00
2025-11-18 15:12:43.597451,599617491932235106,-72.00
2025-11-18 15:12:43.597451,599617491932235106,-69.00
2025-11-18 15:12:43.597451,599617491932235106,-67.00
2025-11-18 15:12:43.597451,599617491932235106,-69.00
2025-11-18 15:12:43.597451,599617491932235106,-67.00
2025-11-18 15:12:43.597451,599617491932235106,-65.00
2025-11-18 15:12:43.597451,599617491932235106,-65.00
2025-11-18 15:12:43.597451,599617491932235106,-65.00
2025-11-18 15:12:43.597451,599617491932235106,-69.00
2025-11-18 15:12:43.597451,599617491932235106,-72.00
2025-11-18 15:12:43.597451,599617491932235106,-69.00
2025-11-18 15:12:43.597451,599617491932235106,-67.00
2025-11-18 15:12:43.597451,599617491932235106,-67.00
2025-11-18 15:12:43.597451,599617491932235106,-69.00
2025-11-18 15:12:43.597451,599617491932235106,-69.00
2025-11-18 15:12:43.597451,599617491932235106,-72.00
2025-11-18 15:12:43.597451,599617491932235106,-69.00
2025-11-18 15:12:43.597451,599617491932235106,-67.00
2025-11-18 15:12:43.597451,599617491932235106,-67.00
2025-11-18 15:12:43.597451,599617491932235106,-65.00
2025-11-18 15:12:43.597451,599617491932235106,-62.00
2025-11-18 15:12:43.597451,599617491932235106,-62.00
2025-11-18 15:12:43.597451,599617491932235106,-65.00
2025-11-18 15:12:43.597451,599617491932235106,-62.00
2025-11-18 15:12:43.597451,599617491932235106,-62.00
2025-11-18 15:12:43.597451,599617491932235106,-60.00
2025-11-18 15:12:43.597451,599617491932235106,-57.00
2025-11-18 15:12:43.597451,599617491932235106,-57.00
2025-11-18 15:12:43.597451,599617491932235106,-57.00
2025-11-18 15:12:43.597451,599617491932235106,-60.00
2025-11-18 15:12:43.597451,599617491932235106,-57.00
2025-11-18 15:12:43.597451,599617491932235106,-57.00
2025-11-18 15:12:43.597451,599617491932235106,-57.00
2025-11-18 15:12:43.597451,599617491932235106,-57.00
2025-11-18 15:12:43.597451,599617491932235106,-55.00
2025-11-18 15:12:43.597451,599617491932235106,-55.00
2025-11-18 15:12:43.597451,599617491932235106,-55.00
2025-11-18 15:12:43.597451,599617491932235106,-55.00
2025-11-18 15:12:43.597451,599617491932235106,-52.00
2025-11-18 15:12:43.597451,599617491932235106,-50.00
2025-11-18 15:12:43.597451,599617491932235106,-50.00
2025-11-18 15:12:43.597451,599617491932235106,-52.00
2025-11-18 15:12:43.597451,599617491932235106,-52.00
2025-11-18 15:12:43.597451,599617491932235106,-48.00
2025-11-18 15:12:43.597451,599617491932235106,-48.00
2025-11-18 15:12:43.597451,599617491932235106,-48.00
2025-11-18 15:12:43.597451,599617491932235106,-48.00
2025-11-18 15:12:43.597451,599617491932235106,-45.00
2025-11-18 15:12:43.597451,599617491932235106,-45.00
2025-11-18 15:12:43.597451,599617491932235106,-45.00
2025-11-18 15:12:43.597451,599617491932235106,-45.00
2025-11-18 15:12:43.597451,599617491932235106,-40.00
2025-11-18 15:12:43.597451,599617491932235106,-43.00
2025-11-18 15:12:43.597451,599617491932235106,-48.00
2025-11-18 15:12:43.597451,599617491932235106,-36.00
2025-11-18 15:12:43.597451,599617491932235106,-16.00
2025-11-18 15:12:43.597451,599617491932235106,-9.00
2025-11-18 15:12:43.597451,599617491932235106,-14.00
2025-11-18 15:12:43.597451,599617491932235106,-21.00
2025-11-18 15:12:43.597451,599617491932235106,-28.00
2025-11-18 15:12:43.597451,599617491932235106,-36.00
2025-11-18 15:12:43.597451,599617491932235106,-38.00
2025-11-18 15:12:43.597451,599617491932235106,-40.00
2025-11-18 15:12:43.597451,599617491932235106,-43.00
2025-11-18 15:12:43.597451,599617491932235106,-40.00
2025-11-18 15:12:43.597451,599617491932235106,-43.00
2025-11-18 15:12:43.597451,599617491932235106,-45.00
2025-11-18 15:12:43.597451,599617491932235106,-45.00
2025-11-18 15:12:44.166582,599617492492932147,-48.00
2025-11-18 15:12:44.166582,599617492492932147,-48.00
2025-11-18 15:12:44.166582,599617492492932147,-50.00
2025-11-18 15:12:44.166582,599617492492932147,-67.00
2025-11-18 15:12:44.166582,599617492492932147,-74.00
2025-11-18 15:12:44.166582,599617492492932147,21.00
2025-11-18 15:12:44.166582,599617492492932147,257.00
2025-11-18 15:12:44.166582,599617492492932147,513.00
2025-11-18 15:12:44.166582,599617492492932147,525.00
2025-11-18 15:12:44.166582,599617492492932147,161.00
2025-11-18 15:12:44.166582,599617492492932147,-209.00
2025-11-18 15:12:44.166582,599617492492932147,-243.00
2025-11-18 15:12:44.166582,599617492492932147,-151.00
2025-11-18 15:12:44.166582,599617492492932147,-127.00
2025-11-18 15:12:44.166582,599617492492932147,-89.00
2025-11-18 15:12:44.166582,599617492492932147,-48.00
2025-11-18 15:12:44.166582,599617492492932147,-57.00
2025-11-18 15:12:44.166582,599617492492932147,-62.00
2025-11-18 15:12:44.166582,599617492492932147,-38.00
2025-11-18 15:12:44.166582,599617492492932147,-31.00
2025-11-18 15:12:44.166582,599617492492932147,-31.00
2025-11-18 15:12:44.166582,599617492492932147,-26.00
2025-11-18 15:12:44.166582,599617492492932147,-19.00
2025-11-18 15:12:44.166582,599617492492932147,-16.00
2025-11-18 15:12:44.166582,599617492492932147,-12.00
2025-11-18 15:12:44.166582,599617492492932147,-7.00
2025-11-18 15:12:44.166582,599617492492932147,-2.00
2025-11-18 15:12:44.166582,599617492492932147,4.00
2025-11-18 15:12:44.166582,599617492492932147,9.00
2025-11-18 15:12:44.166582,599617492492932147,16.00
2025-11-18 15:12:44.166582,599617492492932147,26.00
2025-11-18 15:12:44.166582,599617492492932147,31.00
2025-11-18 15:12:44.166582,599617492492932147,38.00
2025-11-18 15:12:44.166582,599617492492932147,48.00
2025-11-18 15:12:44.166582,599617492492932147,57.00
2025-11-18 15:12:44.166582,599617492492932147,72.00
2025-11-18 15:12:44.166582,599617492492932147,86.00
2025-11-18 15:12:44.166582,599617492492932147,98.00
2025-11-18 15:12:44.166582,599617492492932147,105.00
2025-11-18 15:12:44.166582,599617492492932147,113.00
2025-11-18 15:12:44.166582,599617492492932147,118.00
2025-11-18 15:12:44.166582,599617492492932147,120.00
2025-11-18 15:12:44.166582,599617492492932147,113.00
2025-11-18 15:12:44.166582,599617492492932147,98.00
2025-11-18 15:12:44.166582,599617492492932147,72.00
2025-11-18 15:12:44.166582,599617492492932147,40.00
2025-11-18 15:12:44.166582,599617492492932147,4.00
2025-11-18 15:12:44.166582,599617492492932147,-28.00
2025-11-18 15:12:44.166582,599617492492932147,-60.00
2025-11-18 15:12:44.166582,599617492492932147,-86.00
2025-11-18 15:12:44.166582,599617492492932147,-103.00
2025-11-18 15:12:44.166582,599617492492932147,-113.00
2025-11-18 15:12:44.166582,599617492492932147,-122.00
2025-11-18 15:12:44.166582,599617492492932147,-127.00
2025-11-18 15:12:44.166582,599617492492932147,-125.00
2025-11-18 15:12:44.166582,599617492492932147,-120.00
2025-11-18 15:12:44.166582,599617492492932147,-118.00
2025-11-18 15:12:44.166582,599617492492932147,-113.00
2025-11-18 15:12:44.166582,599617492492932147,-110.00
2025-11-18 15:12:44.166582,599617492492932147,-105.00
2025-11-18 15:12:44.166582,599617492492932147,-98.00
2025-11-18 15:12:44.166582,599617492492932147,-96.00
2025-11-18 15:12:44.166582,599617492492932147,-89.00
2025-11-18 15:12:44.166582,599617492492932147,-84.00
2025-11-18 15:12:44.166582,599617492492932147,-81.00
2025-11-18 15:12:44.166582,599617492492932147,-77.00
2025-11-18 15:12:44.166582,599617492492932147,-72.00
2025-11-18 15:12:44.166582,599617492492932147,-74.00
2025-11-18 15:12:44.166582,599617492492932147,-74.00
2025-11-18 15:12:44.166582,599617492492932147,-69.00
2025-11-18 15:12:44.166582,599617492492932147,-67.00
2025-11-18 15:12:44.166582,599617492492932147,-67.00
2025-11-18 15:12:44.166582,599617492492932147,-69.00
2025-11-18 15:12:44.737969,599617493053598670,-72.00
2025-11-18 15:12:44.737969,599617493053598670,-72.00
2025-11-18 15:12:44.737969,599617493053598670,-67.00
2025-11-18 15:12:44.737969,599617493053598670,-65.00
2025-11-18 15:12:44.737969,599617493053598670,-69.00
2025-11-18 15:12:44.737969,599617493053598670,-74.00
2025-11-18 15:12:44.737969,599617493053598670,-72.00
2025-11-18 15:12:44.737969,599617493053598670,-69.00
2025-11-18 15:12:44.737969,599617493053598670,-62.00
2025-11-18 15:12:44.737969,599617493053598670,-60.00
2025-11-18 15:12:44.737969,599617493053598670,-62.00
2025-11-18 15:12:44.737969,599617493053598670,-65.00
2025-11-18 15:12:44.737969,599617493053598670,-62.00
2025-11-18 15:12:44.737969,599617493053598670,-60.00
2025-11-18 15:12:44.737969,599617493053598670,-60.00
2025-11-18 15:12:44.737969,599617493053598670,-57.00
2025-11-18 15:12:44.737969,599617493053598670,-57.00
2025-11-18 15:12:44.737969,599617493053598670,-60.00
2025-11-18 15:12:44.737969,599617493053598670,-60.00
2025-11-18 15:12:44.737969,599617493053598670,-60.00
2025-11-18 15:12:44.737969,599617493053598670,-57.00
2025-11-18 15:12:44.737969,599617493053598670,-55.00
2025-11-18 15:12:44.737969,599617493053598670,-52.00
2025-11-18 15:12:44.737969,599617493053598670,-50.00
2025-11-18 15:12:44.737969,599617493053598670,-52.00
2025-11-18 15:12:44.737969,599617493053598670,-60.00
2025-11-18 15:12:44.737969,599617493053598670,-57.00
2025-11-18 15:12:44.737969,599617493053598670,-50.00
2025-11-18 15:12:44.737969,599617493053598670,-45.00
2025-11-18 15:12:44.737969,599617493053598670,-48.00
2025-11-18 15:12:44.737969,599617493053598670,-55.00
2025-11-18 15:12:44.737969,599617493053598670,-55.00
2025-11-18 15:12:44.737969,599617493053598670,-50.00
2025-11-18 15:12:44.737969,599617493053598670,-50.00
2025-11-18 15:12:44.737969,599617493053598670,-50.00
2025-11-18 15:12:44.737969,599617493053598670,-48.00
2025-11-18 15:12:44.737969,599617493053598670,-50.00
2025-11-18 15:12:44.737969,599617493053598670,-50.00
2025-11-18 15:12:44.737969,599617493053598670,-48.00
2025-11-18 15:12:44.737969,599617493053598670,-48.00
2025-11-18 15:12:44.737969,599617493053598670,-50.00
2025-11-18 15:12:44.737969,599617493053598670,-50.00
2025-11-18 15:12:44.737969,599617493053598670,-50.00
2025-11-18 15:12:44.737969,599617493053598670,-48.00
2025-11-18 15:12:44.737969,599617493053598670,-45.00
2025-11-18 15:12:44.737969,599617493053598670,-50.00
2025-11-18 15:12:44.737969,599617493053598670,-52.00
2025-11-18 15:12:44.737969,599617493053598670,-48.00
2025-11-18 15:12:44.737969,599617493053598670,-48.00
2025-11-18 15:12:44.737969,599617493053598670,-50.00
2025-11-18 15:12:44.737969,599617493053598670,-48.00
2025-11-18 15:12:44.737969,599617493053598670,-36.00
2025-11-18 15:12:44.737969,599617493053598670,-21.00
2025-11-18 15:12:44.737969,599617493053598670,-9.00
2025-11-18 15:12:44.737969,599617493053598670,-9.00
2025-11-18 15:12:44.737969,599617493053598670,-19.00
2025-11-18 15:12:44.737969,599617493053598670,-28.00
2025-11-18 15:12:44.737969,599617493053598670,-38.00
2025-11-18 15:12:44.737969,599617493053598670,-43.00
2025-11-18 15:12:44.737969,599617493053598670,-48.00
2025-11-18 15:12:44.737969,599617493053598670,-48.00
2025-11-18 15:12:44.737969,599617493053598670,-45.00
2025-11-18 15:12:44.737969,599617493053598670,-45.00
2025-11-18 15:12:44.737969,599617493053598670,-50.00
2025-11-18 15:12:44.737969,599617493053598670,-48.00
2025-11-18 15:12:44.737969,599617493053598670,-48.00
2025-11-18 15:12:44.737969,599617493053598670,-52.00
2025-11-18 15:12:44.737969,599617493053598670,-60.00
2025-11-18 15:12:44.737969,599617493053598670,-72.00
2025-11-18 15:12:44.737969,599617493053598670,-79.00
2025-11-18 15:12:44.737969,599617493053598670,0.00
2025-11-18 15:12:44.737969,599617493053598670,219.00
2025-11-18 15:12:44.737969,599617493053598670,467.00
2025-11-18 15:12:45.309258,599617493614295713,501.00
2025-11-18 15:12:45.309258,599617493614295713,156.00
2025-11-18 15:12:45.309258,599617493614295713,-245.00
2025-11-18 15:12:45.309258,599617493614295713,-301.00
2025-11-18 15:12:45.309258,599617493614295713,-183.00
2025-11-18 15:12:45.309258,599617493614295713,-144.00
2025-11-18 15:12:45.309258,599617493614295713,-110.00
2025-11-18 15:12:45.309258,599617493614295713,-57.00
2025-11-18 15:12:45.309258,599617493614295713,-57.00
2025-11-18 15:12:45.309258,599617493614295713,-65.00
2025-11-18 15:12:45.309258,599617493614295713,-43.00
2025-11-18 15:12:45.309258,599617493614295713,-33.00
2025-11-18 15:12:45.309258,599617493614295713,-38.00
2025-11-18 15:12:45.309258,599617493614295713,-31.00
2025-11-18 15:12:45.309258,599617493614295713,-19.00
2025-11-18 15:12:45.309258,599617493614295713,-16.00
2025-11-18 15:12:45.309258,599617493614295713,-16.00
2025-11-18 15:12:45.309258,599617493614295713,-12.00
2025-11-18 15:12:45.309258,599617493614295713,-7.00
2025-11-18 15:12:45.309258,599617493614295713,-2.00
2025-11-18 15:12:45.309258,599617493614295713,2.00
2025-11-18 15:12:45.309258,599617493614295713,12.00
2025-11-18 15:12:45.309258,599617493614295713,21.00
2025-11-18 15:12:45.309258,599617493614295713,26.00
2025-11-18 15:12:45.309258,599617493614295713,38.00
2025-11-18 15:12:45.309258,599617493614295713,48.00
2025-11-18 15:12:45.309258,599617493614295713,57.00
2025-11-18 15:12:45.309258,599617493614295713,67.00
2025-11-18 15:12:45.309258,599617493614295713,81.00
2025-11-18 15:12:45.309258,599617493614295713,93.00
2025-11-18 15:12:45.309258,599617493614295713,103.00
2025-11-18 15:12:45.309258,599617493614295713,110.00
2025-11-18 15:12:45.309258,599617493614295713,115.00
2025-11-18 15:12:45.309258,599617493614295713,120.00
2025-11-18 15:12:45.309258,599617493614295713,118.00
2025-11-18 15:12:45.309258,599617493614295713,105.00
2025-11-18 15:12:45.309258,599617493614295713,79.00
2025-11-18 15:12:45.309258,599617493614295713,43.00
2025-11-18 15:12:45.309258,599617493614295713,9.00
2025-11-18 15:12:45.309258,599617493614295713,-28.00
2025-11-18 15:12:45.309258,599617493614295713,-62.00
2025-11-18 15:12:45.309258,599617493614295713,-84.00
2025-11-18 15:12:45.309258,599617493614295713,-101.00
2025-11-18 15:12:45.309258,599617493614295713,-118.00
2025-11-18 15:12:45.309258,599617493614295713,-125.00
2025-11-18 15:12:45.309258,599617493614295713,-130.00
2025-11-18 15:12:45.309258,599617493614295713,-132.00
2025-11-18 15:12:45.309258,599617493614295713,-132.00
2025-11-18 15:12:45.309258,599617493614295713,-130.00
2025-11-18 15:12:45.309258,599617493614295713,-120.00
2025-11-18 15:12:45.309258,599617493614295713,-115.00
2025-11-18 15:12:45.309258,599617493614295713,-113.00
2025-11-18 15:12:45.309258,599617493614295713,-108.00
2025-11-18 15:12:45.309258,599617493614295713,-98.00
2025-11-18 15:12:45.309258,599617493614295713,-91.00
2025-11-18 15:12:45.309258,599617493614295713,-89.00
2025-11-18 15:12:45.309258,599617493614295713,-84.00
2025-11-18 15:12:45.309258,599617493614295713,-81.00
2025-11-18 15:12:45.309258,599617493614295713,-81.00
2025-11-18 15:12:45.309258,599617493614295713,-74.00
2025-11-18 15:12:45.309258,599617493614295713,-69.00
2025-11-18 15:12:45.309258,599617493614295713,-74.00
2025-11-18 15:12:45.309258,599617493614295713,-77.00
2025-11-18 15:12:45.309258,599617493614295713,-72.00
2025-11-18 15:12:45.309258,599617493614295713,-69.00
2025-11-18 15:12:45.309258,599617493614295713,-72.00
2025-11-18 15:12:45.309258,599617493614295713,-72.00
2025-11-18 15:12:45.309258,599617493614295713,-69.00
2025-11-18 15:12:45.309258,599617493614295713,-72.00
2025-11-18 15:12:45.309258,599617493614295713,-69.00
2025-11-18 15:12:45.309258,599617493614295713,-62.00
2025-11-18 15:12:45.309258,599617493614295713,-62.00
2025-11-18 15:12:45.309258,599617493614295713,-67.00
2025-11-18 15:12:45.847917,599617494174992754,-69.00
2025-11-18 15:12:45.847917,599617494174992754,-67.00
2025-11-18 15:12:45.847917,599617494174992754,-60.00
2025-11-18 15:12:45.847917,599617494174992754,-55.00
2025-11-18 15:12:45.847917,599617494174992754,-55.00
2025-11-18 15:12:45.847917,599617494174992754,-60.00
2025-11-18 15:12:45.847917,599617494174992754,-62.00
2025-11-18 15:12:45.847917,599617494174992754,-57.00
2025-11-18 15:12:45.847917,599617494174992754,-50.00
2025-11-18 15:12:45.847917,599617494174992754,-55.00
2025-11-18 15:12:45.847917,599617494174992754,-57.00
2025-11-18 15:12:45.847917,599617494174992754,-55.00
2025-11-18 15:12:45.847917,599617494174992754,-50.00
2025-11-18 15:12:45.847917,599617494174992754,-50.00
2025-11-18 15:12:45.847917,599617494174992754,-50.00
2025-11-18 15:12:45.847917,599617494174992754,-45.00
2025-11-18 15:12:45.847917,599617494174992754,-45.00
2025-11-18 15:12:45.847917,599617494174992754,-48.00
2025-11-18 15:12:45.847917,599617494174992754,-48.00
2025-11-18 15:12:45.847917,599617494174992754,-48.00
2025-11-18 15:12:45.847917,599617494174992754,-48.00
2025-11-18 15:12:45.847917,599617494174992754,-50.00
2025-11-18 15:12:45.847917,599617494174992754,-50.00
2025-11-18 15:12:45.847917,599617494174992754,-48.00
2025-11-18 15:12:45.847917,599617494174992754,-43.00
2025-11-18 15:12:45.847917,599617494174992754,-40.00
2025-11-18 15:12:45.847917,599617494174992754,-43.00
2025-11-18 15:12:45.847917,599617494174992754,-43.00
2025-11-18 15:12:45.847917,599617494174992754,-38.00
2025-11-18 15:12:45.847917,599617494174992754,-38.00
2025-11-18 15:12:45.847917,599617494174992754,-40.00
2025-11-18 15:12:45.847917,599617494174992754,-38.00
2025-11-18 15:12:45.847917,599617494174992754,-36.00
2025-11-18 15:12:45.847917,599617494174992754,-33.00
2025-11-18 15:12:45.847917,599617494174992754,-33.00
2025-11-18 15:12:45.847917,599617494174992754,-31.00
2025-11-18 15:12:45.847917,599617494174992754,-21.00
2025-11-18 15:12:45.847917,599617494174992754,-9.00
2025-11-18 15:12:45.847917,599617494174992754,2.00
2025-11-18 15:12:45.847917,599617494174992754,0.00
2025-11-18 15:12:45.847917,599617494174992754,-7.00
2025-11-18 15:12:45.847917,599617494174992754,-12.00
2025-11-18 15:12:45.847917,599617494174992754,-21.00
2025-11-18 15:12:45.847917,599617494174992754,-26.00
2025-11-18 15:12:45.847917,599617494174992754,-24.00
2025-11-18 15:12:45.847917,599617494174992754,-24.00
2025-11-18 15:12:45.847917,599617494174992754,-26.00
2025-11-18 15:12:45.847917,599617494174992754,-26.00
2025-11-18 15:12:45.847917,599617494174992754,-28.00
2025-11-18 15:12:45.847917,599617494174992754,-33.00
2025-11-18 15:12:45.847917,599617494174992754,-31.00
2025-11-18 15:12:45.847917,599617494174992754,-28.00
2025-11-18 15:12:45.847917,599617494174992754,-33.00
2025-11-18 15:12:45.847917,599617494174992754,-52.00
2025-11-18 15:12:45.847917,599617494174992754,-65.00
2025-11-18 15:12:45.847917,599617494174992754,19.00
2025-11-18 15:12:45.847917,599617494174992754,245.00
2025-11-18 15:12:45.847917,599617494174992754,503.00
2025-11-18 15:12:45.847917,599617494174992754,525.00
2025-11-18 15:12:45.847917,599617494174992754,158.00
2025-11-18 15:12:45.847917,599617494174992754,-245.00
2025-11-18 15:12:45.847917,599617494174992754,-281.00
2025-11-18 15:12:45.847917,599617494174992754,-156.00
2025-11-18 15:12:45.847917,599617494174992754,-118.00
2025-11-18 15:12:45.847917,599617494174992754,-79.00
2025-11-18 15:12:45.847917,599617494174992754,-31.00
2025-11-18 15:12:45.847917,599617494174992754,-31.00
2025-11-18 15:12:45.847917,599617494174992754,-40.00
2025-11-18 15:12:45.847917,599617494174992754,-24.00
2025-11-18 15:12:45.847917,599617494174992754,-16.00
2025-11-18 15:12:45.847917,599617494174992754,-19.00
2025-11-18 15:12:45.847917,599617494174992754,-9.00
2025-11-18 15:12:45.847917,599617494174992754,2.00
2025-11-18 15:12:46.416961,599617494735689795,4.00
2025-11-18 15:12:46.416961,599617494735689795,2.00
2025-11-18 15:12:46.416961,599617494735689795,4.00
2025-11-18 15:12:46.416961,599617494735689795,14.00
2025-11-18 15:12:46.416961,599617494735689795,24.00
2025-11-18 15:12:46.416961,599617494735689795,21.00
2025-11-18 15:12:46.416961,599617494735689795,26.00
2025-11-18 15:12:46.416961,599617494735689795,38.00
2025-11-18 15:12:46.416961,599617494735689795,48.00
2025-11-18 15:12:46.416961,599617494735689795,55.00
2025-11-18 15:12:46.416961,599617494735689795,67.00
2025-11-18 15:12:46.416961,599617494735689795,81.00
2025-11-18 15:12:46.416961,599617494735689795,93.00
2025-11-18 15:12:46.416961,599617494735689795,103.00
2025-11-18 15:12:46.416961,599617494735689795,113.00
2025-11-18 15:12:46.416961,599617494735689795,125.00
2025-11-18 15:12:46.416961,599617494735689795,137.00
2025-11-18 15:12:46.416961,599617494735689795,142.00
2025-11-18 15:12:46.416961,599617494735689795,134.00
2025-11-18 15:12:46.416961,599617494735689795,127.00
2025-11-18 15:12:46.416961,599617494735689795,118.00
2025-11-18 15:12:46.416961,599617494735689795,93.00
2025-11-18 15:12:46.416961,599617494735689795,55.00
2025-11-18 15:12:46.416961,599617494735689795,16.00
2025-11-18 15:12:46.416961,599617494735689795,-16.00
2025-11-18 15:12:46.416961,599617494735689795,-50.00
2025-11-18 15:12:46.416961,599617494735689795,-77.00
2025-11-18 15:12:46.416961,599617494735689795,-96.00
2025-11-18 15:12:46.416961,599617494735689795,-103.00
2025-11-18 15:12:46.416961,599617494735689795,-108.00
2025-11-18 15:12:46.416961,599617494735689795,-113.00
2025-11-18 15:12:46.416961,599617494735689795,-120.00
2025-11-18 15:12:46.416961,599617494735689795,-120.00
2025-11-18 15:12:46.416961,599617494735689795,-113.00
2025-11-18 15:12:46.416961,599617494735689795,-105.00
2025-11-18 15:12:46.416961,599617494735689795,-103.00
2025-11-18 15:12:46.416961,599617494735689795,-101.00
2025-11-18 15:12:46.416961,599617494735689795,-89.00
2025-11-18 15:12:46.416961,599617494735689795,-79.00
2025-11-18 15:12:46.416961,599617494735689795,-84.00
2025-11-18 15:12:46.416961,599617494735689795,-84.00
2025-11-18 15:12:46.416961,599617494735689795,-74.00
2025-11-18 15:12:46.416961,599617494735689795,-67.00
2025-11-18 15:12:46.416961,599617494735689795,-67.00
2025-11-18 15:12:46.416961,599617494735689795,-65.00
2025-11-18 15:12:46.416961,599617494735689795,-62.00
2025-11-18 15:12:46.416961,599617494735689795,-62.00
2025-11-18 15:12:46.416961,599617494735689795,-62.00
2025-11-18 15:12:46.416961,599617494735689795,-62.00
2025-11-18 15:12:46.416961,599617494735689795,-60.00
2025-11-18 15:12:46.416961,599617494735689795,-67.00
2025-11-18 15:12:46.416961,599617494735689795,-72.00
2025-11-18 15:12:46.416961,599617494735689795,-72.00
2025-11-18 15:12:46.416961,599617494735689795,-67.00
2025-11-18 15:12:46.416961,599617494735689795,-65.00
2025-11-18 15:12:46.416961,599617494735689795,-69.00
2025-11-18 15:12:46.416961,599617494735689795,-69.00
2025-11-18 15:12:46.416961,599617494735689795,-65.00
2025-11-18 15:12:46.416961,599617494735689795,-57.00
2025-11-18 15:12:46.416961,599617494735689795,-67.00
2025-11-18 15:12:46.416961,599617494735689795,-77.00
2025-11-18 15:12:46.416961,599617494735689795,-72.00
2025-11-18 15:12:46.416961,599617494735689795,-72.00
2025-11-18 15:12:46.416961,599617494735689795,-74.00
2025-11-18 15:12:46.416961,599617494735689795,-74.00
2025-11-18 15:12:46.416961,599617494735689795,-72.00
2025-11-18 15:12:46.416961,599617494735689795,-74.00
2025-11-18 15:12:46.416961,599617494735689795,-77.00
2025-11-18 15:12:46.416961,599617494735689795,-72.00
2025-11-18 15:12:46.416961,599617494735689795,-72.00
2025-11-18 15:12:46.416961,599617494735689795,-77.00
2025-11-18 15:12:46.416961,599617494735689795,-74.00
2025-11-18 15:12:46.416961,599617494735689795,-77.00
2025-11-18 15:12:46.957072,599617495296356318,-81.00
2025-11-18 15:12:46.957072,599617495296356318,-79.00
2025-11-18 15:12:46.957072,599617495296356318,-74.00
2025-11-18 15:12:46.957072,599617495296356318,-74.00
2025-11-18 15:12:46.957072,599617495296356318,-74.00
2025-11-18 15:12:46.957072,599617495296356318,-74.00
2025-11-18 15:12:46.957072,599617495296356318,-77.00
2025-11-18 15:12:46.957072,599617495296356318,-77.00
2025-11-18 15:12:46.957072,599617495296356318,-72.00
2025-11-18 15:12:46.957072,599617495296356318,-72.00
2025-11-18 15:12:46.957072,599617495296356318,-79.00
2025-11-18 15:12:46.957072,599617495296356318,-77.00
2025-11-18 15:12:46.957072,599617495296356318,-69.00
2025-11-18 15:12:46.957072,599617495296356318,-67.00
2025-11-18 15:12:46.957072,599617495296356318,-72.00
2025-11-18 15:12:46.957072,599617495296356318,-74.00
2025-11-18 15:12:46.957072,599617495296356318,-72.00
2025-11-18 15:12:46.957072,599617495296356318,-69.00
2025-11-18 15:12:46.957072,599617495296356318,-67.00
2025-11-18 15:12:46.957072,599617495296356318,-65.00
2025-11-18 15:12:46.957072,599617495296356318,-65.00
2025-11-18 15:12:46.957072,599617495296356318,-57.00
2025-11-18 15:12:46.957072,599617495296356318,-38.00
2025-11-18 15:12:46.957072,599617495296356318,-24.00
2025-11-18 15:12:46.957072,599617495296356318,-31.00
2025-11-18 15:12:46.957072,599617495296356318,-40.00
2025-11-18 15:12:46.957072,599617495296356318,-45.00
2025-11-18 15:12:46.957072,599617495296356318,-52.00
2025-11-18 15:12:46.957072,599617495296356318,-57.00
2025-11-18 15:12:46.957072,599617495296356318,-52.00
2025-11-18 15:12:46.957072,599617495296356318,-55.00
2025-11-18 15:12:46.957072,599617495296356318,-60.00
2025-11-18 15:12:46.957072,599617495296356318,-52.00
2025-11-18 15:12:46.957072,599617495296356318,-48.00
2025-11-18 15:12:46.957072,599617495296356318,-55.00
2025-11-18 15:12:46.957072,599617495296356318,-52.00
2025-11-18 15:12:46.957072,599617495296356318,-50.00
2025-11-18 15:12:46.957072,599617495296356318,-52.00
2025-11-18 15:12:46.957072,599617495296356318,-65.00
2025-11-18 15:12:46.957072,599617495296356318,-72.00
2025-11-18 15:12:46.957072,599617495296356318,19.00
2025-11-18 15:12:46.957072,599617495296356318,267.00
2025-11-18 15:12:46.957072,599617495296356318,546.00
2025-11-18 15:12:46.957072,599617495296356318,558.00
2025-11-18 15:12:46.957072,599617495296356318,154.00
2025-11-18 15:12:46.957072,599617495296356318,-255.00
2025-11-18 15:12:46.957072,599617495296356318,-269.00
2025-11-18 15:12:46.957072,599617495296356318,-146.00
2025-11-18 15:12:46.957072,599617495296356318,-120.00
2025-11-18 15:12:46.957072,599617495296356318,-79.00
2025-11-18 15:12:46.957072,599617495296356318,-28.00
2025-11-18 15:12:46.957072,599617495296356318,-38.00
2025-11-18 15:12:46.957072,599617495296356318,-40.00
2025-11-18 15:12:46.957072,599617495296356318,-16.00
2025-11-18 15:12:46.957072,599617495296356318,-7.00
2025-11-18 15:12:46.957072,599617495296356318,-12.00
2025-11-18 15:12:46.957072,599617495296356318,-12.00
2025-11-18 15:12:46.957072,599617495296356318,-7.00
2025-11-18 15:12:46.957072,599617495296356318,0.00
2025-11-18 15:12:46.957072,599617495296356318,4.00
2025-11-18 15:12:46.957072,599617495296356318,7.00
2025-11-18 15:12:46.957072,599617495296356318,14.00
2025-11-18 15:12:46.957072,599617495296356318,24.00
2025-11-18 15:12:46.957072,599617495296356318,31.00
2025-11-18 15:12:46.957072,599617495296356318,36.00
2025-11-18 15:12:46.957072,599617495296356318,40.00
2025-11-18 15:12:46.957072,599617495296356318,48.00
2025-11-18 15:12:46.957072,599617495296356318,57.00
2025-11-18 15:12:46.957072,599617495296356318,65.00
2025-11-18 15:12:46.957072,599617495296356318,77.00
2025-11-18 15:12:46.957072,599617495296356318,89.00
2025-11-18 15:12:46.957072,599617495296356318,103.00
2025-11-18 15:12:46.957072,599617495296356318,118.00
2025-11-18 15:12:47.525694,599617495857053359,130.00
2025-11-18 15:12:47.525694,599617495857053359,137.00
2025-11-18 15:12:47.525694,599617495857053359,142.00
2025-11-18 15:12:47.525694,599617495857053359,142.00
2025-11-18 15:12:47.525694,599617495857053359,132.00
2025-11-18 15:12:47.525694,599617495857053359,113.00
2025-11-18 15:12:47.525694,599617495857053359,89.00
2025-11-18 15:12:47.525694,599617495857053359,55.00
2025-11-18 15:12:47.525694,599617495857053359,16.00
2025-11-18 15:12:47.525694,599617495857053359,-19.00
2025-11-18 15:12:47.525694,599617495857053359,-48.00
2025-11-18 15:12:47.525694,599617495857053359,-79.00
2025-11-18 15:12:47.525694,599617495857053359,-98.00
2025-11-18 15:12:47.525694,599617495857053359,-105.00
2025-11-18 15:12:47.525694,599617495857053359,-113.00
2025-11-18 15:12:47.525694,599617495857053359,-120.00
2025-11-18 15:12:47.525694,599617495857053359,-120.00
2025-11-18 15:12:47.525694,599617495857053359,-118.00
2025-11-18 15:12:47.525694,599617495857053359,-118.00
2025-11-18 15:12:47.525694,599617495857053359,-113.00
2025-11-18 15:12:47.525694,599617495857053359,-108.00
2025-11-18 15:12:47.525694,599617495857053359,-103.00
2025-11-18 15:12:47.525694,599617495857053359,-96.00
2025-11-18 15:12:47.525694,599617495857053359,-89.00
2025-11-18 15:12:47.525694,599617495857053359,-81.00
2025-11-18 15:12:47.525694,599617495857053359,-74.00
2025-11-18 15:12:47.525694,599617495857053359,-72.00
2025-11-18 15:12:47.525694,599617495857053359,-74.00
2025-11-18 15:12:47.525694,599617495857053359,-69.00
2025-11-18 15:12:47.525694,599617495857053359,-65.00
2025-11-18 15:12:47.525694,599617495857053359,-67.00
2025-11-18 15:12:47.525694,599617495857053359,-65.00
2025-11-18 15:12:47.525694,599617495857053359,-62.00
2025-11-18 15:12:47.525694,599617495857053359,-62.00
2025-11-18 15:12:47.525694,599617495857053359,-60.00
2025-11-18 15:12:47.525694,599617495857053359,-57.00
2025-11-18 15:12:47.525694,599617495857053359,-62.00
2025-11-18 15:12:47.525694,599617495857053359,-62.00
2025-11-18 15:12:47.525694,599617495857053359,-60.00
2025-11-18 15:12:47.525694,599617495857053359,-60.00
2025-11-18 15:12:47.525694,599617495857053359,-62.00
2025-11-18 15:12:47.525694,599617495857053359,-65.00
2025-11-18 15:12:47.525694,599617495857053359,-62.00
2025-11-18 15:12:47.525694,599617495857053359,-60.00
2025-11-18 15:12:47.525694,599617495857053359,-60.00
2025-11-18 15:12:47.525694,599617495857053359,-60.00
2025-11-18 15:12:47.525694,599617495857053359,-57.00
2025-11-18 15:12:47.525694,599617495857053359,-55.00
2025-11-18 15:12:47.525694,599617495857053359,-52.00
2025-11-18 15:12:47.525694,599617495857053359,-52.00
2025-11-18 15:12:47.525694,599617495857053359,-55.00
2025-11-18 15:12:47.525694,599617495857053359,-57.00
2025-11-18 15:12:47.525694,599617495857053359,-52.00
2025-11-18 15:12:47.525694,599617495857053359,-48.00
2025-11-18 15:12:47.525694,599617495857053359,-48.00
2025-11-18 15:12:47.525694,599617495857053359,-48.00
2025-11-18 15:12:47.525694,599617495857053359,-48.00
2025-11-18 15:12:47.525694,599617495857053359,-50.00
2025-11-18 15:12:47.525694,599617495857053359,-48.00
2025-11-18 15:12:47.525694,599617495857053359,-43.00
2025-11-18 15:12:47.525694,599617495857053359,-43.00
2025-11-18 15:12:47.525694,599617495857053359,-45.00
2025-11-18 15:12:47.525694,599617495857053359,-45.00
2025-11-18 15:12:47.525694,599617495857053359,-50.00
2025-11-18 15:12:47.525694,599617495857053359,-52.00
2025-11-18 15:12:47.525694,599617495857053359,-43.00
2025-11-18 15:12:47.525694,599617495857053359,-40.00
2025-11-18 15:12:47.525694,599617495857053359,-43.00
2025-11-18 15:12:47.525694,599617495857053359,-48.00
2025-11-18 15:12:47.525694,599617495857053359,-43.00
2025-11-18 15:12:47.525694,599617495857053359,-38.00
2025-11-18 15:12:47.525694,599617495857053359,-38.00
2025-11-18 15:12:47.525694,599617495857053359,-40.00
2025-11-18 15:12:48.067222,599617496417750400,-45.00
2025-11-18 15:12:48.067222,599617496417750400,-48.00
2025-11-18 15:12:48.067222,599617496417750400,-45.00
2025-11-18 15:12:48.067222,599617496417750400,-45.00
2025-11-18 15:12:48.067222,599617496417750400,-45.00
2025-11-18 15:12:48.067222,599617496417750400,-43.00
2025-11-18 15:12:48.067222,599617496417750400,-43.00
2025-11-18 15:12:48.067222,599617496417750400,-43.00
2025-11-18 15:12:48.067222,599617496417750400,-38.00
2025-11-18 15:12:48.067222,599617496417750400,-36.00
2025-11-18 15:12:48.067222,599617496417750400,-28.00
2025-11-18 15:12:48.067222,599617496417750400,-16.00
2025-11-18 15:12:48.067222,599617496417750400,-4.00
2025-11-18 15:12:48.067222,599617496417750400,-2.00
2025-11-18 15:12:48.067222,599617496417750400,-7.00
2025-11-18 15:12:48.067222,599617496417750400,-12.00
2025-11-18 15:12:48.067222,599617496417750400,-16.00
2025-11-18 15:12:48.067222,599617496417750400,-26.00
2025-11-18 15:12:48.067222,599617496417750400,-38.00
2025-11-18 15:12:48.067222,599617496417750400,-40.00
2025-11-18 15:12:48.067222,599617496417750400,-36.00
2025-11-18 15:12:48.067222,599617496417750400,-36.00
2025-11-18 15:12:48.067222,599617496417750400,-40.00
2025-11-18 15:12:48.067222,599617496417750400,-38.00
2025-11-18 15:12:48.067222,599617496417750400,-33.00
2025-11-18 15:12:48.067222,599617496417750400,-36.00
2025-11-18 15:12:48.067222,599617496417750400,-40.00
2025-11-18 15:12:48.067222,599617496417750400,-55.00
2025-11-18 15:12:48.067222,599617496417750400,-65.00
2025-11-18 15:12:48.067222,599617496417750400,-9.00
2025-11-18 15:12:48.067222,599617496417750400,195.00
2025-11-18 15:12:48.067222,599617496417750400,508.00
2025-11-18 15:12:48.067222,599617496417750400,664.00
2025-11-18 15:12:48.067222,599617496417750400,378.00
2025-11-18 15:12:48.067222,599617496417750400,-115.00
2025-11-18 15:12:48.067222,599617496417750400,-281.00
2025-11-18 15:12:48.067222,599617496417750400,-175.00
2025-11-18 15:12:48.067222,599617496417750400,-130.00
2025-11-18 15:12:48.067222,599617496417750400,-113.00
2025-11-18 15:12:48.067222,599617496417750400,-65.00
2025-11-18 15:12:48.067222,599617496417750400,-60.00
2025-11-18 15:12:48.067222,599617496417750400,-69.00
2025-11-18 15:12:48.067222,599617496417750400,-50.00
2025-11-18 15:12:48.067222,599617496417750400,-38.00
2025-11-18 15:12:48.067222,599617496417750400,-43.00
2025-11-18 15:12:48.067222,599617496417750400,-38.00
2025-11-18 15:12:48.067222,599617496417750400,-28.00
2025-11-18 15:12:48.067222,599617496417750400,-26.00
2025-11-18 15:12:48.067222,599617496417750400,-24.00
2025-11-18 15:12:48.067222,599617496417750400,-19.00
2025-11-18 15:12:48.067222,599617496417750400,-14.00
2025-11-18 15:12:48.067222,599617496417750400,-9.00
2025-11-18 15:12:48.067222,599617496417750400,-2.00
2025-11-18 15:12:48.067222,599617496417750400,4.00
2025-11-18 15:12:48.067222,599617496417750400,12.00
2025-11-18 15:12:48.067222,599617496417750400,24.00
2025-11-18 15:12:48.067222,599617496417750400,38.00
2025-11-18 15:12:48.067222,599617496417750400,43.00
2025-11-18 15:12:48.067222,599617496417750400,48.00
2025-11-18 15:12:48.067222,599617496417750400,60.00
2025-11-18 15:12:48.067222,599617496417750400,72.00
2025-11-18 15:12:48.067222,599617496417750400,84.00
2025-11-18 15:12:48.067222,599617496417750400,103.00
2025-11-18 15:12:48.067222,599617496417750400,122.00
2025-11-18 15:12:48.067222,599617496417750400,125.00
2025-11-18 15:12:48.067222,599617496417750400,125.00
2025-11-18 15:12:48.067222,599617496417750400,125.00
2025-11-18 15:12:48.067222,599617496417750400,110.00
2025-11-18 15:12:48.067222,599617496417750400,93.00
2025-11-18 15:12:48.067222,599617496417750400,72.00
2025-11-18 15:12:48.067222,599617496417750400,26.00
2025-11-18 15:12:48.067222,599617496417750400,-24.00
2025-11-18 15:12:48.067222,599617496417750400,-55.00
2025-11-18 15:12:48.667794,599617496978447443,-79.00
2025-11-18 15:12:48.667794,599617496978447443,-101.00
2025-11-18 15:12:48.667794,599617496978447443,-118.00
2025-11-18 15:12:48.667794,599617496978447443,-125.00
2025-11-18 15:12:48.667794,599617496978447443,-120.00
2025-11-18 15:12:48.667794,599617496978447443,-120.00
2025-11-18 15:12:48.667794,599617496978447443,-130.00
2025-11-18 15:12:48.667794,599617496978447443,-137.00
2025-11-18 15:12:48.667794,599617496978447443,-132.00
2025-11-18 15:12:48.667794,599617496978447443,-122.00
2025-11-18 15:12:48.667794,599617496978447443,-115.00
2025-11-18 15:12:48.667794,599617496978447443,-113.00
2025-11-18 15:12:48.667794,599617496978447443,-113.00
2025-11-18 15:12:48.667794,599617496978447443,-108.00
2025-11-18 15:12:48.667794,599617496978447443,-98.00
2025-11-18 15:12:48.667794,599617496978447443,-93.00
2025-11-18 15:12:48.667794,599617496978447443,-89.00
2025-11-18 15:12:48.667794,599617496978447443,-81.00
2025-11-18 15:12:48.667794,599617496978447443,-77.00
2025-11-18 15:12:48.667794,599617496978447443,-72.00
2025-11-18 15:12:48.667794,599617496978447443,-72.00
2025-11-18 15:12:48.667794,599617496978447443,-67.00
2025-11-18 15:12:48.667794,599617496978447443,-62.00
2025-11-18 15:12:48.667794,599617496978447443,-60.00
2025-11-18 15:12:48.667794,599617496978447443,-60.00
2025-11-18 15:12:48.667794,599617496978447443,-65.00
2025-11-18 15:12:48.667794,599617496978447443,-69.00
2025-11-18 15:12:48.667794,599617496978447443,-62.00
2025-11-18 15:12:48.667794,599617496978447443,-57.00
2025-11-18 15:12:48.667794,599617496978447443,-67.00
2025-11-18 15:12:48.667794,599617496978447443,-67.00
2025-11-18 15:12:48.667794,599617496978447443,-60.00
2025-11-18 15:12:48.667794,599617496978447443,-60.00
2025-11-18 15:12:48.667794,599617496978447443,-50.00
2025-11-18 15:12:48.667794,599617496978447443,-48.00
2025-11-18 15:12:48.667794,599617496978447443,-55.00
2025-11-18 15:12:48.667794,599617496978447443,-50.00
2025-11-18 15:12:48.667794,599617496978447443,-48.00
2025-11-18 15:12:48.667794,599617496978447443,-55.00
2025-11-18 15:12:48.667794,599617496978447443,-55.00
2025-11-18 15:12:48.667794,599617496978447443,-48.00
2025-11-18 15:12:48.667794,599617496978447443,-40.00
2025-11-18 15:12:48.667794,599617496978447443,-40.00
2025-11-18 15:12:48.667794,599617496978447443,-40.00
2025-11-18 15:12:48.667794,599617496978447443,-38.00
2025-11-18 15:12:48.667794,599617496978447443,-38.00
2025-11-18 15:12:48.667794,599617496978447443,-36.00
2025-11-18 15:12:48.667794,599617496978447443,-28.00
2025-11-18 15:12:48.667794,599617496978447443,-31.00
2025-11-18 15:12:48.667794,599617496978447443,-28.00
2025-11-18 15:12:48.667794,599617496978447443,-26.00
2025-11-18 15:12:48.667794,599617496978447443,-31.00
2025-11-18 15:12:48.667794,599617496978447443,-33.00
2025-11-18 15:12:48.667794,599617496978447443,-31.00
2025-11-18 15:12:48.667794,599617496978447443,-31.00
2025-11-18 15:12:48.667794,599617496978447443,-24.00
2025-11-18 15:12:48.667794,599617496978447443,-16.00
2025-11-18 15:12:48.667794,599617496978447443,-24.00
2025-11-18 15:12:48.667794,599617496978447443,-26.00
2025-11-18 15:12:48.667794,599617496978447443,-14.00
2025-11-18 15:12:48.667794,599617496978447443,-12.00
2025-11-18 15:12:48.667794,599617496978447443,-14.00
2025-11-18 15:12:48.667794,599617496978447443,-16.00
2025-11-18 15:12:48.667794,599617496978447443,-16.00
2025-11-18 15:12:48.667794,599617496978447443,-14.00
2025-11-18 15:12:48.667794,599617496978447443,-7.00
2025-11-18 15:12:48.667794,599617496978447443,-9.00
2025-11-18 15:12:48.667794,599617496978447443,-12.00
2025-11-18 15:12:48.667794,599617496978447443,-9.00
2025-11-18 15:12:48.667794,599617496978447443,-9.00
2025-11-18 15:12:48.667794,599617496978447443,-12.00
2025-11-18 15:12:48.667794,599617496978447443,-9.00
2025-11-18 15:12:48.667794,599617496978447443,-7.00
2025-11-18 15:12:49.235625,599617497539154656,-9.00
2025-11-18 15:12:49.235625,599617497539154656,-2.00
2025-11-18 15:12:49.235625,599617497539154656,16.00
2025-11-18 15:12:49.235625,599617497539154656,28.00
2025-11-18 15:12:49.235625,599617497539154656,26.00
2025-11-18 15:12:49.235625,599617497539154656,24.00
2025-11-18 15:12:49.235625,599617497539154656,19.00
2025-11-18 15:12:49.235625,599617497539154656,4.00
2025-11-18 15:12:49.235625,599617497539154656,-7.00
2025-11-18 15:12:49.235625,599617497539154656,-7.00
2025-11-18 15:12:49.235625,599617497539154656,-9.00
2025-11-18 15:12:49.235625,599617497539154656,-7.00
2025-11-18 15:12:49.235625,599617497539154656,-2.00
2025-11-18 15:12:49.235625,599617497539154656,-9.00
2025-11-18 15:12:49.235625,599617497539154656,-21.00
2025-11-18 15:12:49.235625,599617497539154656,-16.00
2025-11-18 15:12:49.235625,599617497539154656,-16.00
2025-11-18 15:12:49.235625,599617497539154656,-26.00
2025-11-18 15:12:49.235625,599617497539154656,-33.00
2025-11-18 15:12:49.235625,599617497539154656,-52.00
2025-11-18 15:12:49.235625,599617497539154656,-48.00
2025-11-18 15:12:49.235625,599617497539154656,84.00
2025-11-18 15:12:49.235625,599617497539154656,334.00
2025-11-18 15:12:49.235625,599617497539154656,541.00
2025-11-18 15:12:49.235625,599617497539154656,448.00
2025-11-18 15:12:49.235625,599617497539154656,40.00
2025-11-18 15:12:49.235625,599617497539154656,-250.00
2025-11-18 15:12:49.235625,599617497539154656,-221.00
2025-11-18 15:12:49.235625,599617497539154656,-132.00
2025-11-18 15:12:49.235625,599617497539154656,-101.00
2025-11-18 15:12:49.235625,599617497539154656,-65.00
2025-11-18 15:12:49.235625,599617497539154656,-40.00
2025-11-18 15:12:49.235625,599617497539154656,-45.00
2025-11-18 15:12:49.235625,599617497539154656,-36.00
2025-11-18 15:12:49.235625,599617497539154656,-24.00
2025-11-18 15:12:49.235625,599617497539154656,-24.00
2025-11-18 15:12:49.235625,599617497539154656,-24.00
2025-11-18 15:12:49.235625,599617497539154656,-16.00
2025-11-18 15:12:49.235625,599617497539154656,-9.00
2025-11-18 15:12:49.235625,599617497539154656,-9.00
2025-11-18 15:12:49.235625,599617497539154656,-12.00
2025-11-18 15:12:49.235625,599617497539154656,0.00
2025-11-18 15:12:49.235625,599617497539154656,12.00
2025-11-18 15:12:49.235625,599617497539154656,9.00
2025-11-18 15:12:49.235625,599617497539154656,12.00
2025-11-18 15:12:49.235625,599617497539154656,21.00
2025-11-18 15:12:49.235625,599617497539154656,31.00
2025-11-18 15:12:49.235625,599617497539154656,38.00
2025-11-18 15:12:49.235625,599617497539154656,55.00
2025-11-18 15:12:49.235625,599617497539154656,65.00
2025-11-18 15:12:49.235625,599617497539154656,72.00
2025-11-18 15:12:49.235625,599617497539154656,89.00
2025-11-18 15:12:49.235625,599617497539154656,110.00
2025-11-18 15:12:49.235625,599617497539154656,125.00
2025-11-18 15:12:49.235625,599617497539154656,130.00
2025-11-18 15:12:49.235625,599617497539154656,139.00
2025-11-18 15:12:49.235625,599617497539154656,154.00
2025-11-18 15:12:49.235625,599617497539154656,154.00
2025-11-18 15:12:49.235625,599617497539154656,139.00
2025-11-18 15:12:49.235625,599617497539154656,122.00
2025-11-18 15:12:49.235625,599617497539154656,93.00
2025-11-18 15:12:49.235625,599617497539154656,55.00
2025-11-18 15:12:49.235625,599617497539154656,14.00
2025-11-18 15:12:49.235625,599617497539154656,-28.00
2025-11-18 15:12:49.235625,599617497539154656,-72.00
2025-11-18 15:12:49.235625,599617497539154656,-96.00
2025-11-18 15:12:49.235625,599617497539154656,-105.00
2025-11-18 15:12:49.235625,599617497539154656,-113.00
2025-11-18 15:12:49.235625,599617497539154656,-122.00
2025-11-18 15:12:49.235625,599617497539154656,-132.00
2025-11-18 15:12:49.235625,599617497539154656,-137.00
2025-11-18 15:12:49.235625,599617497539154656,-134.00
2025-11-18 15:12:49.235625,599617497539154656,-132.00
2025-11-18 15:12:49.775952,599617498099841525,-130.00
2025-11-18 15:12:49.775952,599617498099841525,-118.00
2025-11-18 15:12:49.775952,599617498099841525,-113.00
2025-11-18 15:12:49.775952,599617498099841525,-115.00
2025-11-18 15:12:49.775952,599617498099841525,-105.00
2025-11-18 15:12:49.775952,599617498099841525,-98.00
2025-11-18 15:12:49.775952,599617498099841525,-101.00
2025-11-18 15:12:49.775952,599617498099841525,-96.00
2025-11-18 15:12:49.775952,599617498099841525,-86.00
2025-11-18 15:12:49.775952,599617498099841525,-89.00
2025-11-18 15:12:49.775952,599617498099841525,-89.00
2025-11-18 15:12:49.775952,599617498099841525,-81.00
2025-11-18 15:12:49.775952,599617498099841525,-81.00
2025-11-18 15:12:49.775952,599617498099841525,-84.00
2025-11-18 15:12:49.775952,599617498099841525,-89.00
2025-11-18 15:12:49.775952,599617498099841525,-96.00
2025-11-18 15:12:49.775952,599617498099841525,-98.00
2025-11-18 15:12:49.775952,599617498099841525,-93.00
2025-11-18 15:12:49.775952,599617498099841525,-103.00
2025-11-18 15:12:49.775952,599617498099841525,-110.00
2025-11-18 15:12:49.775952,599617498099841525,-108.00
2025-11-18 15:12:49.775952,599617498099841525,-103.00
2025-11-18 15:12:49.775952,599617498099841525,-105.00
2025-11-18 15:12:49.775952,599617498099841525,-108.00
2025-11-18 15:12:49.775952,599617498099841525,-110.00
2025-11-18 15:12:49.775952,599617498099841525,-108.00
2025-11-18 15:12:49.775952,599617498099841525,-105.00
2025-11-18 15:12:49.775952,599617498099841525,-118.00
2025-11-18 15:12:49.775952,599617498099841525,-120.00
2025-11-18 15:12:49.775952,599617498099841525,-115.00
2025-11-18 15:12:49.775952,599617498099841525,-120.00
2025-11-18 15:12:49.775952,599617498099841525,-122.00
2025-11-18 15:12:49.775952,599617498099841525,-122.00
2025-11-18 15:12:49.775952,599617498099841525,-130.00
2025-11-18 15:12:49.775952,599617498099841525,-125.00
2025-11-18 15:12:49.775952,599617498099841525,-120.00
2025-11-18 15:12:49.775952,599617498099841525,-127.00
2025-11-18 15:12:49.775952,599617498099841525,-130.00
2025-11-18 15:12:49.775952,599617498099841525,-125.00
2025-11-18 15:12:49.775952,599617498099841525,-127.00
2025-11-18 15:12:49.775952,599617498099841525,-132.00
2025-11-18 15:12:49.775952,599617498099841525,-137.00
2025-11-18 15:12:49.775952,599617498099841525,-142.00
2025-11-18 15:12:49.775952,599617498099841525,-134.00
2025-11-18 15:12:49.775952,599617498099841525,-125.00
2025-11-18 15:12:49.775952,599617498099841525,-115.00
2025-11-18 15:12:49.775952,599617498099841525,-103.00
2025-11-18 15:12:49.775952,599617498099841525,-105.00
2025-11-18 15:12:49.775952,599617498099841525,-115.00
2025-11-18 15:12:49.775952,599617498099841525,-103.00
2025-11-18 15:12:49.775952,599617498099841525,-101.00
2025-11-18 15:12:49.775952,599617498099841525,-118.00
2025-11-18 15:12:49.775952,599617498099841525,-127.00
2025-11-18 15:12:49.775952,599617498099841525,-125.00
2025-11-18 15:12:49.775952,599617498099841525,-132.00
2025-11-18 15:12:49.775952,599617498099841525,-144.00
2025-11-18 15:12:49.775952,599617498099841525,-142.00
2025-11-18 15:12:49.775952,599617498099841525,-139.00
2025-11-18 15:12:49.775952,599617498099841525,-146.00
2025-11-18 15:12:49.775952,599617498099841525,-154.00
2025-11-18 15:12:49.775952,599617498099841525,-146.00
2025-11-18 15:12:49.775952,599617498099841525,-139.00
2025-11-18 15:12:49.775952,599617498099841525,-146.00
2025-11-18 15:12:49.775952,599617498099841525,-156.00
2025-11-18 15:12:49.775952,599617498099841525,-168.00
2025-11-18 15:12:49.775952,599617498099841525,-183.00
2025-11-18 15:12:49.775952,599617498099841525,-101.00
2025-11-18 15:12:49.775952,599617498099841525,154.00
2025-11-18 15:12:49.775952,599617498099841525,462.00
2025-11-18 15:12:49.775952,599617498099841525,501.00
2025-11-18 15:12:49.775952,599617498099841525,84.00
2025-11-18 15:12:49.775952,599617498099841525,-366.00
2025-11-18 15:12:49.775952,599617498099841525,-402.00
2025-11-18 15:12:50.315142,599617498660528392,-277.00
2025-11-18 15:12:50.315142,599617498660528392,-252.00
2025-11-18 15:12:50.315142,599617498660528392,-214.00
2025-11-18 15:12:50.315142,599617498660528392,-154.00
2025-11-18 15:12:50.315142,599617498660528392,-156.00
2025-11-18 15:12:50.315142,599617498660528392,-171.00
2025-11-18 15:12:50.315142,599617498660528392,-149.00
2025-11-18 15:12:50.315142,599617498660528392,-130.00
2025-11-18 15:12:50.315142,599617498660528392,-134.00
2025-11-18 15:12:50.315142,599617498660528392,-137.00
2025-11-18 15:12:50.315142,599617498660528392,-130.00
2025-11-18 15:12:50.315142,599617498660528392,-118.00
2025-11-18 15:12:50.315142,599617498660528392,-108.00
2025-11-18 15:12:50.315142,599617498660528392,-93.00
2025-11-18 15:12:50.315142,599617498660528392,-86.00
2025-11-18 15:12:50.315142,599617498660528392,-93.00
2025-11-18 15:12:50.315142,599617498660528392,-93.00
2025-11-18 15:12:50.315142,599617498660528392,-77.00
2025-11-18 15:12:50.315142,599617498660528392,-60.00
2025-11-18 15:12:50.315142,599617498660528392,-55.00
2025-11-18 15:12:50.315142,599617498660528392,-50.00
2025-11-18 15:12:50.315142,599617498660528392,-38.00
2025-11-18 15:12:50.315142,599617498660528392,-21.00
2025-11-18 15:12:50.315142,599617498660528392,4.00
2025-11-18 15:12:50.315142,599617498660528392,26.00
2025-11-18 15:12:50.315142,599617498660528392,36.00
2025-11-18 15:12:50.315142,599617498660528392,50.00
2025-11-18 15:12:50.315142,599617498660528392,67.00
2025-11-18 15:12:50.315142,599617498660528392,72.00
2025-11-18 15:12:50.315142,599617498660528392,69.00
2025-11-18 15:12:50.315142,599617498660528392,62.00
2025-11-18 15:12:50.315142,599617498660528392,48.00
2025-11-18 15:12:50.315142,599617498660528392,12.00
2025-11-18 15:12:50.315142,599617498660528392,-33.00
2025-11-18 15:12:50.315142,599617498660528392,-69.00
2025-11-18 15:12:50.315142,599617498660528392,-108.00
2025-11-18 15:12:50.315142,599617498660528392,-142.00
2025-11-18 15:12:50.315142,599617498660528392,-158.00
2025-11-18 15:12:50.315142,599617498660528392,-173.00
2025-11-18 15:12:50.315142,599617498660528392,-183.00
2025-11-18 15:12:50.315142,599617498660528392,-180.00
2025-11-18 15:12:50.315142,599617498660528392,-178.00
2025-11-18 15:12:50.315142,599617498660528392,-175.00
2025-11-18 15:12:50.315142,599617498660528392,-163.00
2025-11-18 15:12:50.315142,599617498660528392,-166.00
2025-11-18 15:12:50.315142,599617498660528392,-175.00
2025-11-18 15:12:50.315142,599617498660528392,-166.00
2025-11-18 15:12:50.315142,599617498660528392,-156.00
2025-11-18 15:12:50.315142,599617498660528392,-156.00
2025-11-18 15:12:50.315142,599617498660528392,-142.00
2025-11-18 15:12:50.315142,599617498660528392,-132.00
2025-11-18 15:12:50.315142,599617498660528392,-127.00
2025-11-18 15:12:50.315142,599617498660528392,-113.00
2025-11-18 15:12:50.315142,599617498660528392,-98.00
2025-11-18 15:12:50.315142,599617498660528392,-96.00
2025-11-18 15:12:50.315142,599617498660528392,-96.00
2025-11-18 15:12:50.315142,599617498660528392,-91.00
2025-11-18 15:12:50.315142,599617498660528392,-98.00
2025-11-18 15:12:50.315142,599617498660528392,-101.00
2025-11-18 15:12:50.315142,599617498660528392,-84.00
2025-11-18 15:12:50.315142,599617498660528392,-79.00
2025-11-18 15:12:50.315142,599617498660528392,-86.00
2025-11-18 15:12:50.315142,599617498660528392,-84.00
2025-11-18 15:12:50.315142,599617498660528392,-89.00
2025-11-18 15:12:50.315142,599617498660528392,-105.00
2025-11-18 15:12:50.315142,599617498660528392,-103.00
2025-11-18 15:12:50.315142,599617498660528392,-81.00
2025-11-18 15:12:50.315142,599617498660528392,-79.00
2025-11-18 15:12:50.315142,599617498660528392,-74.00
2025-11-18 15:12:50.315142,599617498660528392,-62.00
2025-11-18 15:12:50.315142,599617498660528392,-62.00
2025-11-18 15:12:50.315142,599617498660528392,-74.00
2025-11-18 15:12:50.315142,599617498660528392,-65.00
2025-11-18 15:12:50.885288,599617499221205089,-50.00
2025-11-18 15:12:50.885288,599617499221205089,-57.00
2025-11-18 15:12:50.885288,599617499221205089,-57.00
2025-11-18 15:12:50.885288,599617499221205089,-50.00
2025-11-18 15:12:50.885288,599617499221205089,-55.00
2025-11-18 15:12:50.885288,599617499221205089,-50.00
2025-11-18 15:12:50.885288,599617499221205089,-45.00
2025-11-18 15:12:50.885288,599617499221205089,-52.00
2025-11-18 15:12:50.885288,599617499221205089,-48.00
2025-11-18 15:12:50.885288,599617499221205089,-45.00
2025-11-18 15:12:50.885288,599617499221205089,-48.00
2025-11-18 15:12:50.885288,599617499221205089,-38.00
2025-11-18 15:12:50.885288,599617499221205089,-33.00
2025-11-18 15:12:50.885288,599617499221205089,-38.00
2025-11-18 15:12:50.885288,599617499221205089,-38.00
2025-11-18 15:12:50.885288,599617499221205089,-36.00
2025-11-18 15:12:50.885288,599617499221205089,-33.00
2025-11-18 15:12:50.885288,599617499221205089,-31.00
2025-11-18 15:12:50.885288,599617499221205089,-26.00
2025-11-18 15:12:50.885288,599617499221205089,-21.00
2025-11-18 15:12:50.885288,599617499221205089,-21.00
2025-11-18 15:12:50.885288,599617499221205089,-26.00
2025-11-18 15:12:50.885288,599617499221205089,-14.00
2025-11-18 15:12:50.885288,599617499221205089,12.00
2025-11-18 15:12:50.885288,599617499221205089,4.00
2025-11-18 15:12:50.885288,599617499221205089,-9.00
2025-11-18 15:12:50.885288,599617499221205089,9.00
2025-11-18 15:12:50.885288,599617499221205089,14.00
2025-11-18 15:12:50.885288,599617499221205089,-2.00
2025-11-18 15:12:50.885288,599617499221205089,-14.00
2025-11-18 15:12:50.885288,599617499221205089,-28.00
2025-11-18 15:12:50.885288,599617499221205089,-24.00
2025-11-18 15:12:50.885288,599617499221205089,-7.00
2025-11-18 15:12:50.885288,599617499221205089,-24.00
2025-11-18 15:12:50.885288,599617499221205089,-52.00
2025-11-18 15:12:50.885288,599617499221205089,-26.00
2025-11-18 15:12:50.885288,599617499221205089,12.00
2025-11-18 15:12:50.885288,599617499221205089,-4.00
2025-11-18 15:12:50.885288,599617499221205089,-26.00
2025-11-18 15:12:50.885288,599617499221205089,-33.00
2025-11-18 15:12:50.885288,599617499221205089,-38.00
2025-11-18 15:12:50.885288,599617499221205089,67.00
2025-11-18 15:12:50.885288,599617499221205089,320.00
2025-11-18 15:12:50.885288,599617499221205089,566.00
2025-11-18 15:12:50.885288,599617499221205089,537.00
2025-11-18 15:12:50.885288,599617499221205089,130.00
2025-11-18 15:12:50.885288,599617499221205089,-248.00
2025-11-18 15:12:50.885288,599617499221205089,-240.00
2025-11-18 15:12:50.885288,599617499221205089,-122.00
2025-11-18 15:12:50.885288,599617499221205089,-110.00
2025-11-18 15:12:50.885288,599617499221205089,-62.00
2025-11-18 15:12:50.885288,599617499221205089,-2.00
2025-11-18 15:12:50.885288,599617499221205089,-28.00
2025-11-18 15:12:50.885288,599617499221205089,-40.00
2025-11-18 15:12:50.885288,599617499221205089,-12.00
2025-11-18 15:12:50.885288,599617499221205089,-9.00
2025-11-18 15:12:50.885288,599617499221205089,-2.00
2025-11-18 15:12:50.885288,599617499221205089,21.00
2025-11-18 15:12:50.885288,599617499221205089,16.00
2025-11-18 15:12:50.885288,599617499221205089,7.00
2025-11-18 15:12:50.885288,599617499221205089,19.00
2025-11-18 15:12:50.885288,599617499221205089,24.00
2025-11-18 15:12:50.885288,599617499221205089,26.00
2025-11-18 15:12:50.885288,599617499221205089,38.00
2025-11-18 15:12:50.885288,599617499221205089,31.00
2025-11-18 15:12:50.885288,599617499221205089,38.00
2025-11-18 15:12:50.885288,599617499221205089,74.00
2025-11-18 15:12:50.885288,599617499221205089,84.00
2025-11-18 15:12:50.885288,599617499221205089,77.00
2025-11-18 15:12:50.885288,599617499221205089,86.00
2025-11-18 15:12:50.885288,599617499221205089,101.00
2025-11-18 15:12:50.885288,599617499221205089,122.00
2025-11-18 15:12:50.885288,599617499221205089,144.00
2025-11-18 15:12:51.455335,599617499781902130,149.00
2025-11-18 15:12:51.455335,599617499781902130,130.00
2025-11-18 15:12:51.455335,599617499781902130,137.00
2025-11-18 15:12:51.455335,599617499781902130,204.00
2025-11-18 15:12:51.455335,599617499781902130,219.00
2025-11-18 15:12:51.455335,599617499781902130,161.00
2025-11-18 15:12:51.455335,599617499781902130,146.00
2025-11-18 15:12:51.455335,599617499781902130,146.00
2025-11-18 15:12:51.455335,599617499781902130,96.00
2025-11-18 15:12:51.455335,599617499781902130,38.00
2025-11-18 15:12:51.455335,599617499781902130,0.00
2025-11-18 15:12:51.455335,599617499781902130,-28.00
2025-11-18 15:12:51.455335,599617499781902130,-40.00
2025-11-18 15:12:51.455335,599617499781902130,-57.00
2025-11-18 15:12:51.455335,599617499781902130,-103.00
2025-11-18 15:12:51.455335,599617499781902130,-108.00
2025-11-18 15:12:51.455335,599617499781902130,-52.00
2025-11-18 15:12:51.455335,599617499781902130,-52.00
2025-11-18 15:12:51.455335,599617499781902130,-86.00
2025-11-18 15:12:51.455335,599617499781902130,-77.00
2025-11-18 15:12:51.455335,599617499781902130,-65.00
2025-11-18 15:12:51.455335,599617499781902130,-77.00
2025-11-18 15:12:51.455335,599617499781902130,-79.00
2025-11-18 15:12:51.455335,599617499781902130,-67.00
2025-11-18 15:12:51.455335,599617499781902130,-45.00
2025-11-18 15:12:51.455335,599617499781902130,-28.00
2025-11-18 15:12:51.455335,599617499781902130,-38.00
2025-11-18 15:12:51.455335,599617499781902130,-40.00
2025-11-18 15:12:51.455335,599617499781902130,-31.00
2025-11-18 15:12:51.455335,599617499781902130,-28.00
2025-11-18 15:12:51.455335,599617499781902130,-19.00
2025-11-18 15:12:51.455335,599617499781902130,-9.00
2025-11-18 15:12:51.455335,599617499781902130,-14.00
2025-11-18 15:12:51.455335,599617499781902130,-16.00
2025-11-18 15:12:51.455335,599617499781902130,-16.00
2025-11-18 15:12:51.455335,599617499781902130,-26.00
2025-11-18 15:12:51.455335,599617499781902130,-24.00
2025-11-18 15:12:51.455335,599617499781902130,-19.00
2025-11-18 15:12:51.455335,599617499781902130,-26.00
2025-11-18 15:12:51.455335,599617499781902130,-26.00
2025-11-18 15:12:51.455335,599617499781902130,-26.00
2025-11-18 15:12:51.455335,599617499781902130,-26.00
2025-11-18 15:12:51.455335,599617499781902130,-9.00
2025-11-18 15:12:51.455335,599617499781902130,-2.00
2025-11-18 15:12:51.455335,599617499781902130,-12.00
2025-11-18 15:12:51.455335,599617499781902130,-9.00
2025-11-18 15:12:51.455335,599617499781902130,-4.00
2025-11-18 15:12:51.455335,599617499781902130,-9.00
2025-11-18 15:12:51.455335,599617499781902130,-14.00
2025-11-18 15:12:51.455335,599617499781902130,-16.00
2025-11-18 15:12:51.455335,599617499781902130,-16.00
2025-11-18 15:12:51.455335,599617499781902130,-9.00
2025-11-18 15:12:51.455335,599617499781902130,-7.00
2025-11-18 15:12:51.455335,599617499781902130,-12.00
2025-11-18 15:12:51.455335,599617499781902130,-9.00
2025-11-18 15:12:51.455335,599617499781902130,0.00
2025-11-18 15:12:51.455335,599617499781902130,12.00
2025-11-18 15:12:51.455335,599617499781902130,7.00
2025-11-18 15:12:51.455335,599617499781902130,7.00
2025-11-18 15:12:51.455335,599617499781902130,12.00
2025-11-18 15:12:51.455335,599617499781902130,9.00
2025-11-18 15:12:51.455335,599617499781902130,2.00
2025-11-18 15:12:51.455335,599617499781902130,2.00
2025-11-18 15:12:51.455335,599617499781902130,7.00
2025-11-18 15:12:51.455335,599617499781902130,2.00
2025-11-18 15:12:51.455335,599617499781902130,-7.00
2025-11-18 15:12:51.455335,599617499781902130,2.00
2025-11-18 15:12:51.455335,599617499781902130,9.00
2025-11-18 15:12:51.455335,599617499781902130,7.00
2025-11-18 15:12:51.455335,599617499781902130,9.00
2025-11-18 15:12:51.455335,599617499781902130,16.00
2025-11-18 15:12:51.455335,599617499781902130,26.00
2025-11-18 15:12:51.455335,599617499781902130,40.00
2025-11-18 15:12:52.055881,599617500342599173,45.00
2025-11-18 15:12:52.055881,599617500342599173,40.00
2025-11-18 15:12:52.055881,599617500342599173,31.00
2025-11-18 15:12:52.055881,599617500342599173,16.00
2025-11-18 15:12:52.055881,599617500342599173,9.00
2025-11-18 15:12:52.055881,599617500342599173,19.00
2025-11-18 15:12:52.055881,599617500342599173,14.00
2025-11-18 15:12:52.055881,599617500342599173,-4.00
2025-11-18 15:12:52.055881,599617500342599173,-9.00
2025-11-18 15:12:52.055881,599617500342599173,2.00
2025-11-18 15:12:52.055881,599617500342599173,2.00
2025-11-18 15:12:52.055881,599617500342599173,0.00
2025-11-18 15:12:52.055881,599617500342599173,7.00
2025-11-18 15:12:52.055881,599617500342599173,7.00
2025-11-18 15:12:52.055881,599617500342599173,0.00
2025-11-18 15:12:52.055881,599617500342599173,-9.00
2025-11-18 15:12:52.055881,599617500342599173,-24.00
2025-11-18 15:12:52.055881,599617500342599173,4.00
2025-11-18 15:12:52.055881,599617500342599173,173.00
2025-11-18 15:12:52.055881,599617500342599173,436.00
2025-11-18 15:12:52.055881,599617500342599173,578.00
2025-11-18 15:12:52.055881,599617500342599173,363.00
2025-11-18 15:12:52.055881,599617500342599173,-62.00
2025-11-18 15:12:52.055881,599617500342599173,-231.00
2025-11-18 15:12:52.055881,599617500342599173,-137.00
2025-11-18 15:12:52.055881,599617500342599173,-84.00
2025-11-18 15:12:52.055881,599617500342599173,-67.00
2025-11-18 15:12:52.055881,599617500342599173,-19.00
2025-11-18 15:12:52.055881,599617500342599173,-2.00
2025-11-18 15:12:52.055881,599617500342599173,-14.00
2025-11-18 15:12:52.055881,599617500342599173,-2.00
2025-11-18 15:12:52.055881,599617500342599173,14.00
2025-11-18 15:12:52.055881,599617500342599173,9.00
2025-11-18 15:12:52.055881,599617500342599173,19.00
2025-11-18 15:12:52.055881,599617500342599173,26.00
2025-11-18 15:12:52.055881,599617500342599173,24.00
2025-11-18 15:12:52.055881,599617500342599173,31.00
2025-11-18 15:12:52.055881,599617500342599173,43.00
2025-11-18 15:12:52.055881,599617500342599173,48.00
2025-11-18 15:12:52.055881,599617500342599173,40.00
2025-11-18 15:12:52.055881,599617500342599173,33.00
2025-11-18 15:12:52.055881,599617500342599173,33.00
2025-11-18 15:12:52.055881,599617500342599173,43.00
2025-11-18 15:12:52.055881,599617500342599173,57.00
2025-11-18 15:12:52.055881,599617500342599173,69.00
2025-11-18 15:12:52.055881,599617500342599173,77.00
2025-11-18 15:12:52.055881,599617500342599173,86.00
2025-11-18 15:12:52.055881,599617500342599173,98.00
2025-11-18 15:12:52.055881,599617500342599173,113.00
2025-11-18 15:12:52.055881,599617500342599173,130.00
2025-11-18 15:12:52.055881,599617500342599173,144.00
2025-11-18 15:12:52.055881,599617500342599173,154.00
2025-11-18 15:12:52.055881,599617500342599173,156.00
2025-11-18 15:12:52.055881,599617500342599173,151.00
2025-11-18 15:12:52.055881,599617500342599173,146.00
2025-11-18 15:12:52.055881,599617500342599173,134.00
2025-11-18 15:12:52.055881,599617500342599173,110.00
2025-11-18 15:12:52.055881,599617500342599173,74.00
2025-11-18 15:12:52.055881,599617500342599173,31.00
2025-11-18 15:12:52.055881,599617500342599173,-4.00
2025-11-18 15:12:52.055881,599617500342599173,-33.00
2025-11-18 15:12:52.055881,599617500342599173,-65.00
2025-11-18 15:12:52.055881,599617500342599173,-96.00
2025-11-18 15:12:52.055881,599617500342599173,-110.00
2025-11-18 15:12:52.055881,599617500342599173,-110.00
2025-11-18 15:12:52.055881,599617500342599173,-115.00
2025-11-18 15:12:52.055881,599617500342599173,-122.00
2025-11-18 15:12:52.055881,599617500342599173,-122.00
2025-11-18 15:12:52.055881,599617500342599173,-120.00
2025-11-18 15:12:52.055881,599617500342599173,-118.00
2025-11-18 15:12:52.055881,599617500342599173,-118.00
2025-11-18 15:12:52.055881,599617500342599173,-110.00
2025-11-18 15:12:52.055881,599617500342599173,-108.00
2025-11-18 15:12:52.625996,599617500903296214,-103.00
2025-11-18 15:12:52.625996,599617500903296214,-96.00
2025-11-18 15:12:52.625996,599617500903296214,-89.00
2025-11-18 15:12:52.625996,599617500903296214,-84.00
2025-11-18 15:12:52.625996,599617500903296214,-81.00
2025-11-18 15:12:52.625996,599617500903296214,-79.00
2025-11-18 15:12:52.625996,599617500903296214,-77.00
2025-11-18 15:12:52.625996,599617500903296214,-77.00
2025-11-18 15:12:52.625996,599617500903296214,-74.00
2025-11-18 15:12:52.625996,599617500903296214,-74.00
2025-11-18 15:12:52.625996,599617500903296214,-77.00
2025-11-18 15:12:52.625996,599617500903296214,-74.00
2025-11-18 15:12:52.625996,599617500903296214,-69.00
2025-11-18 15:12:52.625996,599617500903296214,-67.00
2025-11-18 15:12:52.625996,599617500903296214,-69.00
2025-11-18 15:12:52.625996,599617500903296214,-69.00
2025-11-18 15:12:52.625996,599617500903296214,-69.00
2025-11-18 15:12:52.625996,599617500903296214,-74.00
2025-11-18 15:12:52.625996,599617500903296214,-79.00
2025-11-18 15:12:52.625996,599617500903296214,-74.00
2025-11-18 15:12:52.625996,599617500903296214,-67.00
2025-11-18 15:12:52.625996,599617500903296214,-67.00
2025-11-18 15:12:52.625996,599617500903296214,-69.00
2025-11-18 15:12:52.625996,599617500903296214,-65.00
2025-11-18 15:12:52.625996,599617500903296214,-65.00
2025-11-18 15:12:52.625996,599617500903296214,-72.00
2025-11-18 15:12:52.625996,599617500903296214,-74.00
2025-11-18 15:12:52.625996,599617500903296214,-69.00
2025-11-18 15:12:52.625996,599617500903296214,-67.00
2025-11-18 15:12:52.625996,599617500903296214,-65.00
2025-11-18 15:12:52.625996,599617500903296214,-60.00
2025-11-18 15:12:52.625996,599617500903296214,-62.00
2025-11-18 15:12:52.625996,599617500903296214,-65.00
2025-11-18 15:12:52.625996,599617500903296214,-65.00
2025-11-18 15:12:52.625996,599617500903296214,-60.00
2025-11-18 15:12:52.625996,599617500903296214,-57.00
2025-11-18 15:12:52.625996,599617500903296214,-62.00
2025-11-18 15:12:52.625996,599617500903296214,-67.00
2025-11-18 15:12:52.625996,599617500903296214,-62.00
2025-11-18 15:12:52.625996,599617500903296214,-55.00
2025-11-18 15:12:52.625996,599617500903296214,-57.00
2025-11-18 15:12:52.625996,599617500903296214,-65.00
2025-11-18 15:12:52.625996,599617500903296214,-57.00
2025-11-18 15:12:52.625996,599617500903296214,-45.00
2025-11-18 15:12:52.625996,599617500903296214,-36.00
2025-11-18 15:12:52.625996,599617500903296214,-26.00
2025-11-18 15:12:52.625996,599617500903296214,-21.00
2025-11-18 15:12:52.625996,599617500903296214,-28.00
2025-11-18 15:12:52.625996,599617500903296214,-36.00
2025-11-18 15:12:52.625996,599617500903296214,-50.00
2025-11-18 15:12:52.625996,599617500903296214,-60.00
2025-11-18 15:12:52.625996,599617500903296214,-62.00
2025-11-18 15:12:52.625996,599617500903296214,-62.00
2025-11-18 15:12:52.625996,599617500903296214,-62.00
2025-11-18 15:12:52.625996,599617500903296214,-62.00
2025-11-18 15:12:52.625996,599617500903296214,-62.00
2025-11-18 15:12:52.625996,599617500903296214,-62.00
2025-11-18 15:12:52.625996,599617500903296214,-62.00
2025-11-18 15:12:52.625996,599617500903296214,-65.00
2025-11-18 15:12:52.625996,599617500903296214,-67.00
2025-11-18 15:12:52.625996,599617500903296214,-74.00
2025-11-18 15:12:52.625996,599617500903296214,-91.00
2025-11-18 15:12:52.625996,599617500903296214,-86.00
2025-11-18 15:12:52.625996,599617500903296214,31.00
2025-11-18 15:12:52.625996,599617500903296214,269.00
2025-11-18 15:12:52.625996,599617500903296214,481.00
2025-11-18 15:12:52.625996,599617500903296214,390.00
2025-11-18 15:12:52.625996,599617500903296214,-45.00
2025-11-18 15:12:52.625996,599617500903296214,-356.00
2025-11-18 15:12:52.625996,599617500903296214,-298.00
2025-11-18 15:12:52.625996,599617500903296214,-190.00
2025-11-18 15:12:52.625996,599617500903296214,-158.00
2025-11-18 15:12:52.625996,599617500903296214,-98.00
2025-11-18 15:12:53.136761,599617501463993255,-60.00
2025-11-18 15:12:53.136761,599617501463993255,-79.00
2025-11-18 15:12:53.136761,599617501463993255,-74.00
2025-11-18 15:12:53.136761,599617501463993255,-52.00
2025-11-18 15:12:53.136761,599617501463993255,-52.00
2025-11-18 15:12:53.136761,599617501463993255,-52.00
2025-11-18 15:12:53.136761,599617501463993255,-40.00
2025-11-18 15:12:53.136761,599617501463993255,-31.00
2025-11-18 15:12:53.136761,599617501463993255,-31.00
2025-11-18 15:12:53.136761,599617501463993255,-28.00
2025-11-18 15:12:53.136761,599617501463993255,-26.00
2025-11-18 15:12:53.136761,599617501463993255,-24.00
2025-11-18 15:12:53.136761,599617501463993255,-24.00
2025-11-18 15:12:53.136761,599617501463993255,-19.00
2025-11-18 15:12:53.136761,599617501463993255,-9.00
2025-11-18 15:12:53.136761,599617501463993255,2.00
2025-11-18 15:12:53.136761,599617501463993255,9.00
2025-11-18 15:12:53.136761,599617501463993255,19.00
2025-11-18 15:12:53.136761,599617501463993255,31.00
2025-11-18 15:12:53.136761,599617501463993255,43.00
2025-11-18 15:12:53.136761,599617501463993255,57.00
2025-11-18 15:12:53.136761,599617501463993255,72.00
2025-11-18 15:12:53.136761,599617501463993255,86.00
2025-11-18 15:12:53.136761,599617501463993255,93.00
2025-11-18 15:12:53.136761,599617501463993255,96.00
2025-11-18 15:12:53.136761,599617501463993255,93.00
2025-11-18 15:12:53.136761,599617501463993255,93.00
2025-11-18 15:12:53.136761,599617501463993255,89.00
2025-11-18 15:12:53.136761,599617501463993255,69.00
2025-11-18 15:12:53.136761,599617501463993255,40.00
2025-11-18 15:12:53.136761,599617501463993255,9.00
2025-11-18 15:12:53.136761,599617501463993255,-31.00
2025-11-18 15:12:53.136761,599617501463993255,-72.00
2025-11-18 15:12:53.136761,599617501463993255,-105.00
2025-11-18 15:12:53.136761,599617501463993255,-130.00
2025-11-18 15:12:53.136761,599617501463993255,-142.00
2025-11-18 15:12:53.136761,599617501463993255,-154.00
2025-11-18 15:12:53.136761,599617501463993255,-163.00
2025-11-18 15:12:53.136761,599617501463993255,-166.00
2025-11-18 15:12:53.136761,599617501463993255,-166.00
2025-11-18 15:12:53.136761,599617501463993255,-163.00
2025-11-18 15:12:53.136761,599617501463993255,-158.00
2025-11-18 15:12:53.136761,599617501463993255,-151.00
2025-11-18 15:12:53.136761,599617501463993255,-149.00
2025-11-18 15:12:53.136761,599617501463993255,-149.00
2025-11-18 15:12:53.136761,599617501463993255,-146.00
2025-11-18 15:12:53.136761,599617501463993255,-139.00
2025-11-18 15:12:53.136761,599617501463993255,-137.00
2025-11-18 15:12:53.136761,599617501463993255,-132.00
2025-11-18 15:12:53.136761,599617501463993255,-130.00
2025-11-18 15:12:53.136761,599617501463993255,-127.00
2025-11-18 15:12:53.136761,599617501463993255,-122.00
2025-11-18 15:12:53.136761,599617501463993255,-120.00
2025-11-18 15:12:53.136761,599617501463993255,-120.00
2025-11-18 15:12:53.136761,599617501463993255,-122.00
2025-11-18 15:12:53.136761,599617501463993255,-120.00
2025-11-18 15:12:53.136761,599617501463993255,-118.00
2025-11-18 15:12:53.136761,599617501463993255,-118.00
2025-11-18 15:12:53.136761,599617501463993255,-120.00
2025-11-18 15:12:53.136761,599617501463993255,-122.00
2025-11-18 15:12:53.136761,599617501463993255,-122.00
2025-11-18 15:12:53.136761,599617501463993255,-115.00
2025-11-18 15:12:53.136761,599617501463993255,-113.00
2025-11-18 15:12:53.136761,599617501463993255,-118.00
2025-11-18 15:12:53.136761,599617501463993255,-120.00
2025-11-18 15:12:53.136761,599617501463993255,-118.00
2025-11-18 15:12:53.136761,599617501463993255,-115.00
2025-11-18 15:12:53.136761,599617501463993255,-108.00
2025-11-18 15:12:53.136761,599617501463993255,-108.00
2025-11-18 15:12:53.136761,599617501463993255,-110.00
2025-11-18 15:12:53.136761,599617501463993255,-110.00
2025-11-18 15:12:53.136761,599617501463993255,-105.00
2025-11-18 15:12:53.136761,599617501463993255,-103.00
2025-11-18 15:12:53.708495,599617502024669952,-105.00
2025-11-18 15:12:53.708495,599617502024669952,-105.00
2025-11-18 15:12:53.708495,599617502024669952,-101.00
2025-11-18 15:12:53.708495,599617502024669952,-103.00
2025-11-18 15:12:53.708495,599617502024669952,-101.00
2025-11-18 15:12:53.708495,599617502024669952,-101.00
2025-11-18 15:12:53.708495,599617502024669952,-101.00
2025-11-18 15:12:53.708495,599617502024669952,-96.00
2025-11-18 15:12:53.708495,599617502024669952,-96.00
2025-11-18 15:12:53.708495,599617502024669952,-96.00
2025-11-18 15:12:53.708495,599617502024669952,-93.00
2025-11-18 15:12:53.708495,599617502024669952,-91.00
2025-11-18 15:12:53.708495,599617502024669952,-81.00
2025-11-18 15:12:53.708495,599617502024669952,-67.00
2025-11-18 15:12:53.708495,599617502024669952,-55.00
2025-11-18 15:12:53.708495,599617502024669952,-50.00
2025-11-18 15:12:53.708495,599617502024669952,-57.00
2025-11-18 15:12:53.708495,599617502024669952,-67.00
2025-11-18 15:12:53.708495,599617502024669952,-74.00
2025-11-18 15:12:53.708495,599617502024669952,-77.00
2025-11-18 15:12:53.708495,599617502024669952,-74.00
2025-11-18 15:12:53.708495,599617502024669952,-81.00
2025-11-18 15:12:53.708495,599617502024669952,-86.00
2025-11-18 15:12:53.708495,599617502024669952,-86.00
2025-11-18 15:12:53.708495,599617502024669952,-86.00
2025-11-18 15:12:53.708495,599617502024669952,-84.00
2025-11-18 15:12:53.708495,599617502024669952,-81.00
2025-11-18 15:12:53.708495,599617502024669952,-81.00
2025-11-18 15:12:53.708495,599617502024669952,-84.00
2025-11-18 15:12:53.708495,599617502024669952,-89.00
2025-11-18 15:12:53.708495,599617502024669952,-105.00
2025-11-18 15:12:53.708495,599617502024669952,-103.00
2025-11-18 15:12:53.708495,599617502024669952,7.00
2025-11-18 15:12:53.708495,599617502024669952,245.00
2025-11-18 15:12:53.708495,599617502024669952,486.00
2025-11-18 15:12:53.708495,599617502024669952,460.00
2025-11-18 15:12:53.708495,599617502024669952,74.00
2025-11-18 15:12:53.708495,599617502024669952,-269.00
2025-11-18 15:12:53.708495,599617502024669952,-274.00
2025-11-18 15:12:53.708495,599617502024669952,-178.00
2025-11-18 15:12:53.708495,599617502024669952,-149.00
2025-11-18 15:12:53.708495,599617502024669952,-110.00
2025-11-18 15:12:53.708495,599617502024669952,-77.00
2025-11-18 15:12:53.708495,599617502024669952,-86.00
2025-11-18 15:12:53.708495,599617502024669952,-79.00
2025-11-18 15:12:53.708495,599617502024669952,-57.00
2025-11-18 15:12:53.708495,599617502024669952,-52.00
2025-11-18 15:12:53.708495,599617502024669952,-55.00
2025-11-18 15:12:53.708495,599617502024669952,-45.00
2025-11-18 15:12:53.708495,599617502024669952,-40.00
2025-11-18 15:12:53.708495,599617502024669952,-36.00
2025-11-18 15:12:53.708495,599617502024669952,-28.00
2025-11-18 15:12:53.708495,599617502024669952,-26.00
2025-11-18 15:12:53.708495,599617502024669952,-26.00
2025-11-18 15:12:53.708495,599617502024669952,-16.00
2025-11-18 15:12:53.708495,599617502024669952,-7.00
2025-11-18 15:12:53.708495,599617502024669952,0.00
2025-11-18 15:12:53.708495,599617502024669952,7.00
2025-11-18 15:12:53.708495,599617502024669952,16.00
2025-11-18 15:12:53.708495,599617502024669952,28.00
2025-11-18 15:12:53.708495,599617502024669952,43.00
2025-11-18 15:12:53.708495,599617502024669952,57.00
2025-11-18 15:12:53.708495,599617502024669952,67.00
2025-11-18 15:12:53.708495,599617502024669952,79.00
2025-11-18 15:12:53.708495,599617502024669952,98.00
2025-11-18 15:12:53.708495,599617502024669952,115.00
2025-11-18 15:12:53.708495,599617502024669952,122.00
2025-11-18 15:12:53.708495,599617502024669952,122.00
2025-11-18 15:12:53.708495,599617502024669952,122.00
2025-11-18 15:12:53.708495,599617502024669952,118.00
2025-11-18 15:12:53.708495,599617502024669952,98.00
2025-11-18 15:12:53.708495,599617502024669952,69.00
2025-11-18 15:12:53.708495,599617502024669952,36.00
2025-11-18 15:12:54.247758,599617502585356819,0.00
2025-11-18 15:12:54.247758,599617502585356819,-40.00
2025-11-18 15:12:54.247758,599617502585356819,-72.00
2025-11-18 15:12:54.247758,599617502585356819,-101.00
2025-11-18 15:12:54.247758,599617502585356819,-122.00
2025-11-18 15:12:54.247758,599617502585356819,-132.00
2025-11-18 15:12:54.247758,599617502585356819,-139.00
2025-11-18 15:12:54.247758,599617502585356819,-144.00
2025-11-18 15:12:54.247758,599617502585356819,-142.00
2025-11-18 15:12:54.247758,599617502585356819,-137.00
2025-11-18 15:12:54.247758,599617502585356819,-134.00
2025-11-18 15:12:54.247758,599617502585356819,-132.00
2025-11-18 15:12:54.247758,599617502585356819,-127.00
2025-11-18 15:12:54.247758,599617502585356819,-120.00
2025-11-18 15:12:54.247758,599617502585356819,-118.00
2025-11-18 15:12:54.247758,599617502585356819,-118.00
2025-11-18 15:12:54.247758,599617502585356819,-110.00
2025-11-18 15:12:54.247758,599617502585356819,-105.00
2025-11-18 15:12:54.247758,599617502585356819,-105.00
2025-11-18 15:12:54.247758,599617502585356819,-103.00
2025-11-18 15:12:54.247758,599617502585356819,-98.00
2025-11-18 15:12:54.247758,599617502585356819,-91.00
2025-11-18 15:12:54.247758,599617502585356819,-89.00
2025-11-18 15:12:54.247758,599617502585356819,-86.00
2025-11-18 15:12:54.247758,599617502585356819,-81.00
2025-11-18 15:12:54.247758,599617502585356819,-84.00
2025-11-18 15:12:54.247758,599617502585356819,-86.00
2025-11-18 15:12:54.247758,599617502585356819,-84.00
2025-11-18 15:12:54.247758,599617502585356819,-79.00
2025-11-18 15:12:54.247758,599617502585356819,-81.00
2025-11-18 15:12:54.247758,599617502585356819,-84.00
2025-11-18 15:12:54.247758,599617502585356819,-89.00
2025-11-18 15:12:54.247758,599617502585356819,-86.00
2025-11-18 15:12:54.247758,599617502585356819,-79.00
2025-11-18 15:12:54.247758,599617502585356819,-77.00
2025-11-18 15:12:54.247758,599617502585356819,-79.00
2025-11-18 15:12:54.247758,599617502585356819,-79.00
2025-11-18 15:12:54.247758,599617502585356819,-74.00
2025-11-18 15:12:54.247758,599617502585356819,-77.00
2025-11-18 15:12:54.247758,599617502585356819,-84.00
2025-11-18 15:12:54.247758,599617502585356819,-79.00
2025-11-18 15:12:54.247758,599617502585356819,-72.00
2025-11-18 15:12:54.247758,599617502585356819,-72.00
2025-11-18 15:12:54.247758,599617502585356819,-77.00
2025-11-18 15:12:54.247758,599617502585356819,-77.00
2025-11-18 15:12:54.247758,599617502585356819,-72.00
2025-11-18 15:12:54.247758,599617502585356819,-69.00
2025-11-18 15:12:54.247758,599617502585356819,-69.00
2025-11-18 15:12:54.247758,599617502585356819,-69.00
2025-11-18 15:12:54.247758,599617502585356819,-67.00
2025-11-18 15:12:54.247758,599617502585356819,-67.00
2025-11-18 15:12:54.247758,599617502585356819,-65.00
2025-11-18 15:12:54.247758,599617502585356819,-60.00
2025-11-18 15:12:54.247758,599617502585356819,-60.00
2025-11-18 15:12:54.247758,599617502585356819,-57.00
2025-11-18 15:12:54.247758,599617502585356819,-52.00
2025-11-18 15:12:54.247758,599617502585356819,-52.00
2025-11-18 15:12:54.247758,599617502585356819,-57.00
2025-11-18 15:12:54.247758,599617502585356819,-60.00
2025-11-18 15:12:54.247758,599617502585356819,-55.00
2025-11-18 15:12:54.247758,599617502585356819,-52.00
2025-11-18 15:12:54.247758,599617502585356819,-52.00
2025-11-18 15:12:54.247758,599617502585356819,-45.00
2025-11-18 15:12:54.247758,599617502585356819,-36.00
2025-11-18 15:12:54.247758,599617502585356819,-28.00
2025-11-18 15:12:54.247758,599617502585356819,-19.00
2025-11-18 15:12:54.247758,599617502585356819,-12.00
2025-11-18 15:12:54.247758,599617502585356819,-16.00
2025-11-18 15:12:54.247758,599617502585356819,-26.00
2025-11-18 15:12:54.247758,599617502585356819,-33.00
2025-11-18 15:12:54.247758,599617502585356819,-38.00
2025-11-18 15:12:54.247758,599617502585356819,-38.00
2025-11-18 15:12:54.247758,599617502585356819,-43.00
2025-11-18 15:12:54.788521,599617503146053860,-55.00
2025-11-18 15:12:54.788521,599617503146053860,-60.00
2025-11-18 15:12:54.788521,599617503146053860,-55.00
2025-11-18 15:12:54.788521,599617503146053860,-50.00
2025-11-18 15:12:54.788521,599617503146053860,-48.00
2025-11-18 15:12:54.788521,599617503146053860,-45.00
2025-11-18 15:12:54.788521,599617503146053860,-50.00
2025-11-18 15:12:54.788521,599617503146053860,-57.00
2025-11-18 15:12:54.788521,599617503146053860,-74.00
2025-11-18 15:12:54.788521,599617503146053860,-62.00
2025-11-18 15:12:54.788521,599617503146053860,67.00
2025-11-18 15:12:54.788521,599617503146053860,305.00
2025-11-18 15:12:54.788521,599617503146053860,501.00
2025-11-18 15:12:54.788521,599617503146053860,409.00
2025-11-18 15:12:54.788521,599617503146053860,4.00
2025-11-18 15:12:54.788521,599617503146053860,-277.00
2025-11-18 15:12:54.788521,599617503146053860,-233.00
2025-11-18 15:12:54.788521,599617503146053860,-149.00
2025-11-18 15:12:54.788521,599617503146053860,-127.00
2025-11-18 15:12:54.788521,599617503146053860,-79.00
2025-11-18 15:12:54.788521,599617503146053860,-55.00
2025-11-18 15:12:54.788521,599617503146053860,-72.00
2025-11-18 15:12:54.788521,599617503146053860,-62.00
2025-11-18 15:12:54.788521,599617503146053860,-45.00
2025-11-18 15:12:54.788521,599617503146053860,-48.00
2025-11-18 15:12:54.788521,599617503146053860,-45.00
2025-11-18 15:12:54.788521,599617503146053860,-36.00
2025-11-18 15:12:54.788521,599617503146053860,-36.00
2025-11-18 15:12:54.788521,599617503146053860,-28.00
2025-11-18 15:12:54.788521,599617503146053860,-19.00
2025-11-18 15:12:54.788521,599617503146053860,-19.00
2025-11-18 15:12:54.788521,599617503146053860,-16.00
2025-11-18 15:12:54.788521,599617503146053860,-4.00
2025-11-18 15:12:54.788521,599617503146053860,2.00
2025-11-18 15:12:54.788521,599617503146053860,9.00
2025-11-18 15:12:54.788521,599617503146053860,24.00
2025-11-18 15:12:54.788521,599617503146053860,33.00
2025-11-18 15:12:54.788521,599617503146053860,40.00
2025-11-18 15:12:54.788521,599617503146053860,48.00
2025-11-18 15:12:54.788521,599617503146053860,57.00
2025-11-18 15:12:54.788521,599617503146053860,65.00
2025-11-18 15:12:54.788521,599617503146053860,72.00
2025-11-18 15:12:54.788521,599617503146053860,89.00
2025-11-18 15:12:54.788521,599617503146053860,110.00
2025-11-18 15:12:54.788521,599617503146053860,120.00
2025-11-18 15:12:54.788521,599617503146053860,125.00
2025-11-18 15:12:54.788521,599617503146053860,127.00
2025-11-18 15:12:54.788521,599617503146053860,122.00
2025-11-18 15:12:54.788521,599617503146053860,108.00
2025-11-18 15:12:54.788521,599617503146053860,84.00
2025-11-18 15:12:54.788521,599617503146053860,50.00
2025-11-18 15:12:54.788521,599617503146053860,7.00
2025-11-18 15:12:54.788521,599617503146053860,-36.00
2025-11-18 15:12:54.788521,599617503146053860,-65.00
2025-11-18 15:12:54.788521,599617503146053860,-91.00
2025-11-18 15:12:54.788521,599617503146053860,-113.00
2025-11-18 15:12:54.788521,599617503146053860,-120.00
2025-11-18 15:12:54.788521,599617503146053860,-125.00
2025-11-18 15:12:54.788521,599617503146053860,-127.00
2025-11-18 15:12:54.788521,599617503146053860,-127.00
2025-11-18 15:12:54.788521,599617503146053860,-122.00
2025-11-18 15:12:54.788521,599617503146053860,-122.00
2025-11-18 15:12:54.788521,599617503146053860,-122.00
2025-11-18 15:12:54.788521,599617503146053860,-110.00
2025-11-18 15:12:54.788521,599617503146053860,-103.00
2025-11-18 15:12:54.788521,599617503146053860,-101.00
2025-11-18 15:12:54.788521,599617503146053860,-96.00
2025-11-18 15:12:54.788521,599617503146053860,-96.00
2025-11-18 15:12:54.788521,599617503146053860,-98.00
2025-11-18 15:12:54.788521,599617503146053860,-91.00
2025-11-18 15:12:54.788521,599617503146053860,-81.00
2025-11-18 15:12:54.788521,599617503146053860,-79.00
2025-11-18 15:12:54.788521,599617503146053860,-79.00
2025-11-18 15:12:55.386390,599617503706750903,-74.00
2025-11-18 15:12:55.386390,599617503706750903,-69.00
2025-11-18 15:12:55.386390,599617503706750903,-69.00
2025-11-18 15:12:55.386390,599617503706750903,-74.00
2025-11-18 15:12:55.386390,599617503706750903,-67.00
2025-11-18 15:12:55.386390,599617503706750903,-65.00
2025-11-18 15:12:55.386390,599617503706750903,-65.00
2025-11-18 15:12:55.386390,599617503706750903,-67.00
2025-11-18 15:12:55.386390,599617503706750903,-69.00
2025-11-18 15:12:55.386390,599617503706750903,-69.00
2025-11-18 15:12:55.386390,599617503706750903,-67.00
2025-11-18 15:12:55.386390,599617503706750903,-62.00
2025-11-18 15:12:55.386390,599617503706750903,-62.00
2025-11-18 15:12:55.386390,599617503706750903,-62.00
2025-11-18 15:12:55.386390,599617503706750903,-62.00
2025-11-18 15:12:55.386390,599617503706750903,-57.00
2025-11-18 15:12:55.386390,599617503706750903,-55.00
2025-11-18 15:12:55.386390,599617503706750903,-52.00
2025-11-18 15:12:55.386390,599617503706750903,-52.00
2025-11-18 15:12:55.386390,599617503706750903,-52.00
2025-11-18 15:12:55.386390,599617503706750903,-55.00
2025-11-18 15:12:55.386390,599617503706750903,-57.00
2025-11-18 15:12:55.386390,599617503706750903,-57.00
2025-11-18 15:12:55.386390,599617503706750903,-52.00
2025-11-18 15:12:55.386390,599617503706750903,-52.00
2025-11-18 15:12:55.386390,599617503706750903,-55.00
2025-11-18 15:12:55.386390,599617503706750903,-45.00
2025-11-18 15:12:55.386390,599617503706750903,-40.00
2025-11-18 15:12:55.386390,599617503706750903,-43.00
2025-11-18 15:12:55.386390,599617503706750903,-43.00
2025-11-18 15:12:55.386390,599617503706750903,-43.00
2025-11-18 15:12:55.386390,599617503706750903,-40.00
2025-11-18 15:12:55.386390,599617503706750903,-36.00
2025-11-18 15:12:55.386390,599617503706750903,-33.00
2025-11-18 15:12:55.386390,599617503706750903,-40.00
2025-11-18 15:12:55.386390,599617503706750903,-43.00
2025-11-18 15:12:55.386390,599617503706750903,-38.00
2025-11-18 15:12:55.386390,599617503706750903,-36.00
2025-11-18 15:12:55.386390,599617503706750903,-38.00
2025-11-18 15:12:55.386390,599617503706750903,-31.00
2025-11-18 15:12:55.386390,599617503706750903,-26.00
2025-11-18 15:12:55.386390,599617503706750903,-26.00
2025-11-18 15:12:55.386390,599617503706750903,-12.00
2025-11-18 15:12:55.386390,599617503706750903,7.00
2025-11-18 15:12:55.386390,599617503706750903,4.00
2025-11-18 15:12:55.386390,599617503706750903,-4.00
2025-11-18 15:12:55.386390,599617503706750903,-7.00
2025-11-18 15:12:55.386390,599617503706750903,-7.00
2025-11-18 15:12:55.386390,599617503706750903,-16.00
2025-11-18 15:12:55.386390,599617503706750903,-28.00
2025-11-18 15:12:55.386390,599617503706750903,-33.00
2025-11-18 15:12:55.386390,599617503706750903,-26.00
2025-11-18 15:12:55.386390,599617503706750903,-21.00
2025-11-18 15:12:55.386390,599617503706750903,-31.00
2025-11-18 15:12:55.386390,599617503706750903,-36.00
2025-11-18 15:12:55.386390,599617503706750903,-31.00
2025-11-18 15:12:55.386390,599617503706750903,-26.00
2025-11-18 15:12:55.386390,599617503706750903,-31.00
2025-11-18 15:12:55.386390,599617503706750903,-45.00
2025-11-18 15:12:55.386390,599617503706750903,-60.00
2025-11-18 15:12:55.386390,599617503706750903,-12.00
2025-11-18 15:12:55.386390,599617503706750903,166.00
2025-11-18 15:12:55.386390,599617503706750903,423.00
2025-11-18 15:12:55.386390,599617503706750903,566.00
2025-11-18 15:12:55.386390,599617503706750903,351.00
2025-11-18 15:12:55.386390,599617503706750903,-79.00
2025-11-18 15:12:55.386390,599617503706750903,-252.00
2025-11-18 15:12:55.386390,599617503706750903,-166.00
2025-11-18 15:12:55.386390,599617503706750903,-110.00
2025-11-18 15:12:55.386390,599617503706750903,-86.00
2025-11-18 15:12:55.386390,599617503706750903,-45.00
2025-11-18 15:12:55.386390,599617503706750903,-36.00
2025-11-18 15:12:55.386390,599617503706750903,-45.00
2025-11-18 15:12:55.955217,599617504267417426,-24.00
2025-11-18 15:12:55.955217,599617504267417426,-12.00
2025-11-18 15:12:55.955217,599617504267417426,-21.00
2025-11-18 15:12:55.955217,599617504267417426,-19.00
2025-11-18 15:12:55.955217,599617504267417426,-7.00
2025-11-18 15:12:55.955217,599617504267417426,-9.00
2025-11-18 15:12:55.955217,599617504267417426,-9.00
2025-11-18 15:12:55.955217,599617504267417426,0.00
2025-11-18 15:12:55.955217,599617504267417426,12.00
2025-11-18 15:12:55.955217,599617504267417426,16.00
2025-11-18 15:12:55.955217,599617504267417426,19.00
2025-11-18 15:12:55.955217,599617504267417426,24.00
2025-11-18 15:12:55.955217,599617504267417426,36.00
2025-11-18 15:12:55.955217,599617504267417426,48.00
2025-11-18 15:12:55.955217,599617504267417426,60.00
2025-11-18 15:12:55.955217,599617504267417426,72.00
2025-11-18 15:12:55.955217,599617504267417426,81.00
2025-11-18 15:12:55.955217,599617504267417426,89.00
2025-11-18 15:12:55.955217,599617504267417426,101.00
2025-11-18 15:12:55.955217,599617504267417426,122.00
2025-11-18 15:12:55.955217,599617504267417426,132.00
2025-11-18 15:12:55.955217,599617504267417426,134.00
2025-11-18 15:12:55.955217,599617504267417426,139.00
2025-11-18 15:12:55.955217,599617504267417426,144.00
2025-11-18 15:12:55.955217,599617504267417426,144.00
2025-11-18 15:12:55.955217,599617504267417426,139.00
2025-11-18 15:12:55.955217,599617504267417426,125.00
2025-11-18 15:12:55.955217,599617504267417426,98.00
2025-11-18 15:12:55.955217,599617504267417426,60.00
2025-11-18 15:12:55.955217,599617504267417426,21.00
2025-11-18 15:12:55.955217,599617504267417426,-14.00
2025-11-18 15:12:55.955217,599617504267417426,-45.00
2025-11-18 15:12:55.955217,599617504267417426,-65.00
2025-11-18 15:12:55.955217,599617504267417426,-77.00
2025-11-18 15:12:55.955217,599617504267417426,-89.00
2025-11-18 15:12:55.955217,599617504267417426,-96.00
2025-11-18 15:12:55.955217,599617504267417426,-93.00
2025-11-18 15:12:55.955217,599617504267417426,-93.00
2025-11-18 15:12:55.955217,599617504267417426,-96.00
2025-11-18 15:12:55.955217,599617504267417426,-89.00
2025-11-18 15:12:55.955217,599617504267417426,-84.00
2025-11-18 15:12:55.955217,599617504267417426,-86.00
2025-11-18 15:12:55.955217,599617504267417426,-81.00
2025-11-18 15:12:55.955217,599617504267417426,-74.00
2025-11-18 15:12:55.955217,599617504267417426,-74.00
2025-11-18 15:12:55.955217,599617504267417426,-72.00
2025-11-18 15:12:55.955217,599617504267417426,-65.00
2025-11-18 15:12:55.955217,599617504267417426,-62.00
2025-11-18 15:12:55.955217,599617504267417426,-62.00
2025-11-18 15:12:55.955217,599617504267417426,-60.00
2025-11-18 15:12:55.955217,599617504267417426,-55.00
2025-11-18 15:12:55.955217,599617504267417426,-55.00
2025-11-18 15:12:55.955217,599617504267417426,-52.00
2025-11-18 15:12:55.955217,599617504267417426,-50.00
2025-11-18 15:12:55.955217,599617504267417426,-52.00
2025-11-18 15:12:55.955217,599617504267417426,-50.00
2025-11-18 15:12:55.955217,599617504267417426,-45.00
2025-11-18 15:12:55.955217,599617504267417426,-43.00
2025-11-18 15:12:55.955217,599617504267417426,-45.00
2025-11-18 15:12:55.955217,599617504267417426,-45.00
2025-11-18 15:12:55.955217,599617504267417426,-43.00
2025-11-18 15:12:55.955217,599617504267417426,-45.00
2025-11-18 15:12:55.955217,599617504267417426,-52.00
2025-11-18 15:12:55.955217,599617504267417426,-50.00
2025-11-18 15:12:55.955217,599617504267417426,-43.00
2025-11-18 15:12:55.955217,599617504267417426,-45.00
2025-11-18 15:12:55.955217,599617504267417426,-48.00
2025-11-18 15:12:55.955217,599617504267417426,-43.00
2025-11-18 15:12:55.955217,599617504267417426,-43.00
2025-11-18 15:12:55.955217,599617504267417426,-40.00
2025-11-18 15:12:55.955217,599617504267417426,-40.00
2025-11-18 15:12:55.955217,599617504267417426,-43.00
2025-11-18 15:12:55.955217,599617504267417426,-45.00
2025-11-18 15:12:56.495203,599617504828114467,-43.00
2025-11-18 15:12:56.495203,599617504828114467,-40.00
2025-11-18 15:12:56.495203,599617504828114467,-40.00
2025-11-18 15:12:56.495203,599617504828114467,-40.00
2025-11-18 15:12:56.495203,599617504828114467,-40.00
2025-11-18 15:12:56.495203,599617504828114467,-43.00
2025-11-18 15:12:56.495203,599617504828114467,-43.00
2025-11-18 15:12:56.495203,599617504828114467,-33.00
2025-11-18 15:12:56.495203,599617504828114467,-31.00
2025-11-18 15:12:56.495203,599617504828114467,-33.00
2025-11-18 15:12:56.495203,599617504828114467,-33.00
2025-11-18 15:12:56.495203,599617504828114467,-33.00
2025-11-18 15:12:56.495203,599617504828114467,-38.00
2025-11-18 15:12:56.495203,599617504828114467,-36.00
2025-11-18 15:12:56.495203,599617504828114467,-33.00
2025-11-18 15:12:56.495203,599617504828114467,-33.00
2025-11-18 15:12:56.495203,599617504828114467,-36.00
2025-11-18 15:12:56.495203,599617504828114467,-31.00
2025-11-18 15:12:56.495203,599617504828114467,-28.00
2025-11-18 15:12:56.495203,599617504828114467,-28.00
2025-11-18 15:12:56.495203,599617504828114467,-31.00
2025-11-18 15:12:56.495203,599617504828114467,-31.00
2025-11-18 15:12:56.495203,599617504828114467,-28.00
2025-11-18 15:12:56.495203,599617504828114467,-26.00
2025-11-18 15:12:56.495203,599617504828114467,-24.00
2025-11-18 15:12:56.495203,599617504828114467,-16.00
2025-11-18 15:12:56.495203,599617504828114467,-7.00
2025-11-18 15:12:56.495203,599617504828114467,0.00
2025-11-18 15:12:56.495203,599617504828114467,7.00
2025-11-18 15:12:56.495203,599617504828114467,12.00
2025-11-18 15:12:56.495203,599617504828114467,7.00
2025-11-18 15:12:56.495203,599617504828114467,-2.00
2025-11-18 15:12:56.495203,599617504828114467,-9.00
2025-11-18 15:12:56.495203,599617504828114467,-16.00
2025-11-18 15:12:56.495203,599617504828114467,-21.00
2025-11-18 15:12:56.495203,599617504828114467,-24.00
2025-11-18 15:12:56.495203,599617504828114467,-28.00
2025-11-18 15:12:56.495203,599617504828114467,-28.00
2025-11-18 15:12:56.495203,599617504828114467,-26.00
2025-11-18 15:12:56.495203,599617504828114467,-31.00
2025-11-18 15:12:56.495203,599617504828114467,-36.00
2025-11-18 15:12:56.495203,599617504828114467,-36.00
2025-11-18 15:12:56.495203,599617504828114467,-36.00
2025-11-18 15:12:56.495203,599617504828114467,-36.00
2025-11-18 15:12:56.495203,599617504828114467,-50.00
2025-11-18 15:12:56.495203,599617504828114467,-60.00
2025-11-18 15:12:56.495203,599617504828114467,21.00
2025-11-18 15:12:56.495203,599617504828114467,238.00
2025-11-18 15:12:56.495203,599617504828114467,481.00
2025-11-18 15:12:56.495203,599617504828114467,493.00
2025-11-18 15:12:56.495203,599617504828114467,149.00
2025-11-18 15:12:56.495203,599617504828114467,-204.00
2025-11-18 15:12:56.495203,599617504828114467,-240.00
2025-11-18 15:12:56.495203,599617504828114467,-144.00
2025-11-18 15:12:56.495203,599617504828114467,-108.00
2025-11-18 15:12:56.495203,599617504828114467,-74.00
2025-11-18 15:12:56.495203,599617504828114467,-43.00
2025-11-18 15:12:56.495203,599617504828114467,-45.00
2025-11-18 15:12:56.495203,599617504828114467,-40.00
2025-11-18 15:12:56.495203,599617504828114467,-26.00
2025-11-18 15:12:56.495203,599617504828114467,-26.00
2025-11-18 15:12:56.495203,599617504828114467,-24.00
2025-11-18 15:12:56.495203,599617504828114467,-16.00
2025-11-18 15:12:56.495203,599617504828114467,-12.00
2025-11-18 15:12:56.495203,599617504828114467,-9.00
2025-11-18 15:12:56.495203,599617504828114467,0.00
2025-11-18 15:12:56.495203,599617504828114467,4.00
2025-11-18 15:12:56.495203,599617504828114467,0.00
2025-11-18 15:12:56.495203,599617504828114467,-2.00
2025-11-18 15:12:56.495203,599617504828114467,7.00
2025-11-18 15:12:56.495203,599617504828114467,16.00
2025-11-18 15:12:56.495203,599617504828114467,28.00
2025-11-18 15:12:56.495203,599617504828114467,36.00
2025-11-18 15:12:57.070860,599617505388811508,40.00
2025-11-18 15:12:57.070860,599617505388811508,43.00
2025-11-18 15:12:57.070860,599617505388811508,50.00
2025-11-18 15:12:57.070860,599617505388811508,65.00
2025-11-18 15:12:57.070860,599617505388811508,81.00
2025-11-18 15:12:57.070860,599617505388811508,98.00
2025-11-18 15:12:57.070860,599617505388811508,113.00
2025-11-18 15:12:57.070860,599617505388811508,115.00
2025-11-18 15:12:57.070860,599617505388811508,110.00
2025-11-18 15:12:57.070860,599617505388811508,113.00
2025-11-18 15:12:57.070860,599617505388811508,115.00
2025-11-18 15:12:57.070860,599617505388811508,98.00
2025-11-18 15:12:57.070860,599617505388811508,77.00
2025-11-18 15:12:57.070860,599617505388811508,52.00
2025-11-18 15:12:57.070860,599617505388811508,21.00
2025-11-18 15:12:57.070860,599617505388811508,-16.00
2025-11-18 15:12:57.070860,599617505388811508,-48.00
2025-11-18 15:12:57.070860,599617505388811508,-69.00
2025-11-18 15:12:57.070860,599617505388811508,-89.00
2025-11-18 15:12:57.070860,599617505388811508,-108.00
2025-11-18 15:12:57.070860,599617505388811508,-118.00
2025-11-18 15:12:57.070860,599617505388811508,-120.00
2025-11-18 15:12:57.070860,599617505388811508,-122.00
2025-11-18 15:12:57.070860,599617505388811508,-127.00
2025-11-18 15:12:57.070860,599617505388811508,-125.00
2025-11-18 15:12:57.070860,599617505388811508,-122.00
2025-11-18 15:12:57.070860,599617505388811508,-120.00
2025-11-18 15:12:57.070860,599617505388811508,-115.00
2025-11-18 15:12:57.070860,599617505388811508,-108.00
2025-11-18 15:12:57.070860,599617505388811508,-105.00
2025-11-18 15:12:57.070860,599617505388811508,-105.00
2025-11-18 15:12:57.070860,599617505388811508,-103.00
2025-11-18 15:12:57.070860,599617505388811508,-93.00
2025-11-18 15:12:57.070860,599617505388811508,-91.00
2025-11-18 15:12:57.070860,599617505388811508,-96.00
2025-11-18 15:12:57.070860,599617505388811508,-98.00
2025-11-18 15:12:57.070860,599617505388811508,-93.00
2025-11-18 15:12:57.070860,599617505388811508,-96.00
2025-11-18 15:12:57.070860,599617505388811508,-101.00
2025-11-18 15:12:57.070860,599617505388811508,-98.00
2025-11-18 15:12:57.070860,599617505388811508,-96.00
2025-11-18 15:12:57.070860,599617505388811508,-93.00
2025-11-18 15:12:57.070860,599617505388811508,-96.00
2025-11-18 15:12:57.070860,599617505388811508,-96.00
2025-11-18 15:12:57.070860,599617505388811508,-96.00
2025-11-18 15:12:57.070860,599617505388811508,-96.00
2025-11-18 15:12:57.070860,599617505388811508,-91.00
2025-11-18 15:12:57.070860,599617505388811508,-91.00
2025-11-18 15:12:57.070860,599617505388811508,-96.00
2025-11-18 15:12:57.070860,599617505388811508,-93.00
2025-11-18 15:12:57.070860,599617505388811508,-91.00
2025-11-18 15:12:57.070860,599617505388811508,-93.00
2025-11-18 15:12:57.070860,599617505388811508,-91.00
2025-11-18 15:12:57.070860,599617505388811508,-91.00
2025-11-18 15:12:57.070860,599617505388811508,-89.00
2025-11-18 15:12:57.070860,599617505388811508,-89.00
2025-11-18 15:12:57.070860,599617505388811508,-96.00
2025-11-18 15:12:57.070860,599617505388811508,-93.00
2025-11-18 15:12:57.070860,599617505388811508,-86.00
2025-11-18 15:12:57.070860,599617505388811508,-84.00
2025-11-18 15:12:57.070860,599617505388811508,-84.00
2025-11-18 15:12:57.070860,599617505388811508,-86.00
2025-11-18 15:12:57.070860,599617505388811508,-84.00
2025-11-18 15:12:57.070860,599617505388811508,-81.00
2025-11-18 15:12:57.070860,599617505388811508,-81.00
2025-11-18 15:12:57.070860,599617505388811508,-81.00
2025-11-18 15:12:57.070860,599617505388811508,-81.00
2025-11-18 15:12:57.070860,599617505388811508,-81.00
2025-11-18 15:12:57.070860,599617505388811508,-81.00
2025-11-18 15:12:57.070860,599617505388811508,-81.00
2025-11-18 15:12:57.070860,599617505388811508,-74.00
2025-11-18 15:12:57.070860,599617505388811508,-74.00
2025-11-18 15:12:57.070860,599617505388811508,-81.00
2025-11-18 15:12:57.607563,599617505949508549,-84.00
2025-11-18 15:12:57.607563,599617505949508549,-79.00
2025-11-18 15:12:57.607563,599617505949508549,-74.00
2025-11-18 15:12:57.607563,599617505949508549,-74.00
2025-11-18 15:12:57.607563,599617505949508549,-77.00
2025-11-18 15:12:57.607563,599617505949508549,-79.00
2025-11-18 15:12:57.607563,599617505949508549,-74.00
2025-11-18 15:12:57.607563,599617505949508549,-65.00
2025-11-18 15:12:57.607563,599617505949508549,-60.00
2025-11-18 15:12:57.607563,599617505949508549,-50.00
2025-11-18 15:12:57.607563,599617505949508549,-33.00
2025-11-18 15:12:57.607563,599617505949508549,-28.00
2025-11-18 15:12:57.607563,599617505949508549,-38.00
2025-11-18 15:12:57.607563,599617505949508549,-45.00
2025-11-18 15:12:57.607563,599617505949508549,-48.00
2025-11-18 15:12:57.607563,599617505949508549,-52.00
2025-11-18 15:12:57.607563,599617505949508549,-60.00
2025-11-18 15:12:57.607563,599617505949508549,-62.00
2025-11-18 15:12:57.607563,599617505949508549,-57.00
2025-11-18 15:12:57.607563,599617505949508549,-57.00
2025-11-18 15:12:57.607563,599617505949508549,-62.00
2025-11-18 15:12:57.607563,599617505949508549,-67.00
2025-11-18 15:12:57.607563,599617505949508549,-62.00
2025-11-18 15:12:57.607563,599617505949508549,-57.00
2025-11-18 15:12:57.607563,599617505949508549,-62.00
2025-11-18 15:12:57.607563,599617505949508549,-67.00
2025-11-18 15:12:57.607563,599617505949508549,-77.00
2025-11-18 15:12:57.607563,599617505949508549,-86.00
2025-11-18 15:12:57.607563,599617505949508549,-19.00
2025-11-18 15:12:57.607563,599617505949508549,187.00
2025-11-18 15:12:57.607563,599617505949508549,440.00
2025-11-18 15:12:57.607563,599617505949508549,491.00
2025-11-18 15:12:57.607563,599617505949508549,173.00
