Timestamp,Device Timestamp (ns),ECG Value (uV)
2025-11-18 14:17:00.571846,599617583109327634,-493.00
2025-11-18 14:17:00.571846,599617583109327634,-513.00
2025-11-18 14:17:00.571846,599617583109327634,-522.00
2025-11-18 14:17:00.571846,599617583109327634,-520.00
2025-11-18 14:17:00.571846,599617583109327634,-503.00
2025-11-18 14:17:00.571846,599617583109327634,-460.00
2025-11-18 14:17:00.571846,599617583109327634,-384.00
2025-11-18 14:17:00.571846,599617583109327634,-290.00
2025-11-18 14:17:00.571846,599617583109327634,-193.00
2025-11-18 14:17:00.571846,599617583109327634,-101.00
2025-11-18 14:17:00.571846,599617583109327634,-16.00
2025-11-18 14:17:00.571846,599617583109327634,50.00
2025-11-18 14:17:00.571846,599617583109327634,99.00
2025-11-18 14:17:00.571846,599617583109327634,133.00
2025-11-18 14:17:00.571846,599617583109327634,150.00
2025-11-18 14:17:00.571846,599617583109327634,150.00
2025-11-18 14:17:00.571846,599617583109327634,145.00
2025-11-18 14:17:00.571846,599617583109327634,150.00
2025-11-18 14:17:00.571846,599617583109327634,159.00
2025-11-18 14:17:00.571846,599617583109327634,150.00
2025-11-18 14:17:00.571846,599617583109327634,106.00
2025-11-18 14:17:00.571846,599617583109327634,79.00
2025-11-18 14:17:00.571846,599617583109327634,84.00
2025-11-18 14:17:00.571846,599617583109327634,79.00
2025-11-18 14:17:00.571846,599617583109327634,58.00
2025-11-18 14:17:00.571846,599617583109327634,55.00
2025-11-18 14:17:00.571846,599617583109327634,65.00
2025-11-18 14:17:00.571846,599617583109327634,62.00
2025-11-18 14:17:00.571846,599617583109327634,53.00
2025-11-18 14:17:00.571846,599617583109327634,50.00
2025-11-18 14:17:00.571846,599617583109327634,50.00
2025-11-18 14:17:00.571846,599617583109327634,53.00
2025-11-18 14:17:00.571846,599617583109327634,58.00
2025-11-18 14:17:00.571846,599617583109327634,38.00
2025-11-18 14:17:00.571846,599617583109327634,4.00
2025-11-18 14:17:00.571846,599617583109327634,7.00
2025-11-18 14:17:00.571846,599617583109327634,43.00
2025-11-18 14:17:00.571846,599617583109327634,50.00
2025-11-18 14:17:00.571846,599617583109327634,26.00
2025-11-18 14:17:00.571846,599617583109327634,26.00
2025-11-18 14:17:00.571846,599617583109327634,60.00
2025-11-18 14:17:00.571846,599617583109327634,67.00
2025-11-18 14:17:00.571846,599617583109327634,50.00
2025-11-18 14:17:00.571846,599617583109327634,36.00
2025-11-18 14:17:00.571846,599617583109327634,41.00
2025-11-18 14:17:00.571846,599617583109327634,46.00
2025-11-18 14:17:00.571846,599617583109327634,12.00
2025-11-18 14:17:00.571846,599617583109327634,-12.00
2025-11-18 14:17:00.571846,599617583109327634,31.00
2025-11-18 14:17:00.571846,599617583109327634,60.00
2025-11-18 14:17:00.571846,599617583109327634,19.00
2025-11-18 14:17:00.571846,599617583109327634,12.00
2025-11-18 14:17:00.571846,599617583109327634,46.00
2025-11-18 14:17:00.571846,599617583109327634,36.00
2025-11-18 14:17:00.571846,599617583109327634,31.00
2025-11-18 14:17:00.571846,599617583109327634,55.00
2025-11-18 14:17:00.571846,599617583109327634,7.00
2025-11-18 14:17:00.571846,599617583109327634,-55.00
2025-11-18 14:17:00.571846,599617583109327634,-31.00
2025-11-18 14:17:00.571846,599617583109327634,-2.00
2025-11-18 14:17:00.571846,599617583109327634,-4.00
2025-11-18 14:17:00.571846,599617583109327634,4.00
2025-11-18 14:17:00.571846,599617583109327634,-12.00
2025-11-18 14:17:00.571846,599617583109327634,-36.00
2025-11-18 14:17:00.571846,599617583109327634,-36.00
2025-11-18 14:17:00.571846,599617583109327634,-36.00
2025-11-18 14:17:00.571846,599617583109327634,-33.00
2025-11-18 14:17:00.571846,599617583109327634,-46.00
2025-11-18 14:17:00.571846,599617583109327634,-43.00
2025-11-18 14:17:00.571846,599617583109327634,-21.00
2025-11-18 14:17:00.571846,599617583109327634,-43.00
2025-11-18 14:17:00.571846,599617583109327634,-50.00
2025-11-18 14:17:00.571846,599617583109327634,-14.00
2025-11-18 14:17:01.141140,599617583670024675,-16.00
2025-11-18 14:17:01.141140,599617583670024675,-7.00
2025-11-18 14:17:01.141140,599617583670024675,24.00
2025-11-18 14:17:01.141140,599617583670024675,19.00
2025-11-18 14:17:01.141140,599617583670024675,0.00
2025-11-18 14:17:01.141140,599617583670024675,-9.00
2025-11-18 14:17:01.141140,599617583670024675,7.00
2025-11-18 14:17:01.141140,599617583670024675,14.00
2025-11-18 14:17:01.141140,599617583670024675,-38.00
2025-11-18 14:17:01.141140,599617583670024675,-58.00
2025-11-18 14:17:01.141140,599617583670024675,-118.00
2025-11-18 14:17:01.141140,599617583670024675,-266.00
2025-11-18 14:17:01.141140,599617583670024675,-111.00
2025-11-18 14:17:01.141140,599617583670024675,593.00
2025-11-18 14:17:01.141140,599617583670024675,1481.00
2025-11-18 14:17:01.141140,599617583670024675,1735.00
2025-11-18 14:17:01.141140,599617583670024675,1028.00
2025-11-18 14:17:01.141140,599617583670024675,203.00
2025-11-18 14:17:01.141140,599617583670024675,-94.00
2025-11-18 14:17:01.141140,599617583670024675,-208.00
2025-11-18 14:17:01.141140,599617583670024675,-363.00
2025-11-18 14:17:01.141140,599617583670024675,-377.00
2025-11-18 14:17:01.141140,599617583670024675,-312.00
2025-11-18 14:17:01.141140,599617583670024675,-331.00
2025-11-18 14:17:01.141140,599617583670024675,-343.00
2025-11-18 14:17:01.141140,599617583670024675,-309.00
2025-11-18 14:17:01.141140,599617583670024675,-317.00
2025-11-18 14:17:01.141140,599617583670024675,-353.00
2025-11-18 14:17:01.141140,599617583670024675,-348.00
2025-11-18 14:17:01.141140,599617583670024675,-317.00
2025-11-18 14:17:01.141140,599617583670024675,-295.00
2025-11-18 14:17:01.141140,599617583670024675,-309.00
2025-11-18 14:17:01.141140,599617583670024675,-355.00
2025-11-18 14:17:01.141140,599617583670024675,-397.00
2025-11-18 14:17:01.141140,599617583670024675,-416.00
2025-11-18 14:17:01.141140,599617583670024675,-418.00
2025-11-18 14:17:01.141140,599617583670024675,-414.00
2025-11-18 14:17:01.141140,599617583670024675,-435.00
2025-11-18 14:17:01.141140,599617583670024675,-515.00
2025-11-18 14:17:01.141140,599617583670024675,-576.00
2025-11-18 14:17:01.141140,599617583670024675,-544.00
2025-11-18 14:17:01.141140,599617583670024675,-515.00
2025-11-18 14:17:01.141140,599617583670024675,-501.00
2025-11-18 14:17:01.141140,599617583670024675,-447.00
2025-11-18 14:17:01.141140,599617583670024675,-430.00
2025-11-18 14:17:01.141140,599617583670024675,-372.00
2025-11-18 14:17:01.141140,599617583670024675,-208.00
2025-11-18 14:17:01.141140,599617583670024675,-104.00
2025-11-18 14:17:01.141140,599617583670024675,-72.00
2025-11-18 14:17:01.141140,599617583670024675,26.00
2025-11-18 14:17:01.141140,599617583670024675,135.00
2025-11-18 14:17:01.141140,599617583670024675,147.00
2025-11-18 14:17:01.141140,599617583670024675,135.00
2025-11-18 14:17:01.141140,599617583670024675,162.00
2025-11-18 14:17:01.141140,599617583670024675,154.00
2025-11-18 14:17:01.141140,599617583670024675,133.00
2025-11-18 14:17:01.141140,599617583670024675,128.00
2025-11-18 14:17:01.141140,599617583670024675,113.00
2025-11-18 14:17:01.141140,599617583670024675,111.00
2025-11-18 14:17:01.141140,599617583670024675,118.00
2025-11-18 14:17:01.141140,599617583670024675,108.00
2025-11-18 14:17:01.141140,599617583670024675,82.00
2025-11-18 14:17:01.141140,599617583670024675,65.00
2025-11-18 14:17:01.141140,599617583670024675,70.00
2025-11-18 14:17:01.141140,599617583670024675,50.00
2025-11-18 14:17:01.141140,599617583670024675,21.00
2025-11-18 14:17:01.141140,599617583670024675,58.00
2025-11-18 14:17:01.141140,599617583670024675,84.00
2025-11-18 14:17:01.141140,599617583670024675,43.00
2025-11-18 14:17:01.141140,599617583670024675,31.00
2025-11-18 14:17:01.141140,599617583670024675,48.00
2025-11-18 14:17:01.141140,599617583670024675,36.00
2025-11-18 14:17:01.141140,599617583670024675,7.00
2025-11-18 14:17:01.683168,599617584230711542,4.00
2025-11-18 14:17:01.683168,599617584230711542,36.00
2025-11-18 14:17:01.683168,599617584230711542,43.00
2025-11-18 14:17:01.683168,599617584230711542,29.00
2025-11-18 14:17:01.683168,599617584230711542,36.00
2025-11-18 14:17:01.683168,599617584230711542,36.00
2025-11-18 14:17:01.683168,599617584230711542,9.00
2025-11-18 14:17:01.683168,599617584230711542,26.00
2025-11-18 14:17:01.683168,599617584230711542,65.00
2025-11-18 14:17:01.683168,599617584230711542,16.00
2025-11-18 14:17:01.683168,599617584230711542,-16.00
2025-11-18 14:17:01.683168,599617584230711542,29.00
2025-11-18 14:17:01.683168,599617584230711542,60.00
2025-11-18 14:17:01.683168,599617584230711542,19.00
2025-11-18 14:17:01.683168,599617584230711542,-29.00
2025-11-18 14:17:01.683168,599617584230711542,12.00
2025-11-18 14:17:01.683168,599617584230711542,72.00
2025-11-18 14:17:01.683168,599617584230711542,38.00
2025-11-18 14:17:01.683168,599617584230711542,0.00
2025-11-18 14:17:01.683168,599617584230711542,21.00
2025-11-18 14:17:01.683168,599617584230711542,38.00
2025-11-18 14:17:01.683168,599617584230711542,7.00
2025-11-18 14:17:01.683168,599617584230711542,-29.00
2025-11-18 14:17:01.683168,599617584230711542,-4.00
2025-11-18 14:17:01.683168,599617584230711542,2.00
2025-11-18 14:17:01.683168,599617584230711542,-4.00
2025-11-18 14:17:01.683168,599617584230711542,9.00
2025-11-18 14:17:01.683168,599617584230711542,-19.00
2025-11-18 14:17:01.683168,599617584230711542,-53.00
2025-11-18 14:17:01.683168,599617584230711542,-36.00
2025-11-18 14:17:01.683168,599617584230711542,-16.00
2025-11-18 14:17:01.683168,599617584230711542,-14.00
2025-11-18 14:17:01.683168,599617584230711542,-7.00
2025-11-18 14:17:01.683168,599617584230711542,-16.00
2025-11-18 14:17:01.683168,599617584230711542,-19.00
2025-11-18 14:17:01.683168,599617584230711542,7.00
2025-11-18 14:17:01.683168,599617584230711542,-4.00
2025-11-18 14:17:01.683168,599617584230711542,-19.00
2025-11-18 14:17:01.683168,599617584230711542,12.00
2025-11-18 14:17:01.683168,599617584230711542,26.00
2025-11-18 14:17:01.683168,599617584230711542,12.00
2025-11-18 14:17:01.683168,599617584230711542,4.00
2025-11-18 14:17:01.683168,599617584230711542,2.00
2025-11-18 14:17:01.683168,599617584230711542,-4.00
2025-11-18 14:17:01.683168,599617584230711542,-33.00
2025-11-18 14:17:01.683168,599617584230711542,-145.00
2025-11-18 14:17:01.683168,599617584230711542,-237.00
2025-11-18 14:17:01.683168,599617584230711542,-16.00
2025-11-18 14:17:01.683168,599617584230711542,694.00
2025-11-18 14:17:01.683168,599617584230711542,1614.00
2025-11-18 14:17:01.683168,599617584230711542,1847.00
2025-11-18 14:17:01.683168,599617584230711542,1067.00
2025-11-18 14:17:01.683168,599617584230711542,205.00
2025-11-18 14:17:01.683168,599617584230711542,-145.00
2025-11-18 14:17:01.683168,599617584230711542,-290.00
2025-11-18 14:17:01.683168,599617584230711542,-384.00
2025-11-18 14:17:01.683168,599617584230711542,-382.00
2025-11-18 14:17:01.683168,599617584230711542,-370.00
2025-11-18 14:17:01.683168,599617584230711542,-377.00
2025-11-18 14:17:01.683168,599617584230711542,-372.00
2025-11-18 14:17:01.683168,599617584230711542,-363.00
2025-11-18 14:17:01.683168,599617584230711542,-353.00
2025-11-18 14:17:01.683168,599617584230711542,-346.00
2025-11-18 14:17:01.683168,599617584230711542,-355.00
2025-11-18 14:17:01.683168,599617584230711542,-370.00
2025-11-18 14:17:01.683168,599617584230711542,-363.00
2025-11-18 14:17:01.683168,599617584230711542,-363.00
2025-11-18 14:17:01.683168,599617584230711542,-377.00
2025-11-18 14:17:01.683168,599617584230711542,-384.00
2025-11-18 14:17:01.683168,599617584230711542,-414.00
2025-11-18 14:17:01.683168,599617584230711542,-457.00
2025-11-18 14:17:01.683168,599617584230711542,-462.00
2025-11-18 14:17:01.683168,599617584230711542,-474.00
2025-11-18 14:17:02.250986,599617584791418757,-518.00
2025-11-18 14:17:02.250986,599617584791418757,-544.00
2025-11-18 14:17:02.250986,599617584791418757,-554.00
2025-11-18 14:17:02.250986,599617584791418757,-561.00
2025-11-18 14:17:02.250986,599617584791418757,-542.00
2025-11-18 14:17:02.250986,599617584791418757,-489.00
2025-11-18 14:17:02.250986,599617584791418757,-406.00
2025-11-18 14:17:02.250986,599617584791418757,-312.00
2025-11-18 14:17:02.250986,599617584791418757,-217.00
2025-11-18 14:17:02.250986,599617584791418757,-118.00
2025-11-18 14:17:02.250986,599617584791418757,-16.00
2025-11-18 14:17:02.250986,599617584791418757,46.00
2025-11-18 14:17:02.250986,599617584791418757,101.00
2025-11-18 14:17:02.250986,599617584791418757,159.00
2025-11-18 14:17:02.250986,599617584791418757,167.00
2025-11-18 14:17:02.250986,599617584791418757,159.00
2025-11-18 14:17:02.250986,599617584791418757,167.00
2025-11-18 14:17:02.250986,599617584791418757,162.00
2025-11-18 14:17:02.250986,599617584791418757,150.00
2025-11-18 14:17:02.250986,599617584791418757,145.00
2025-11-18 14:17:02.250986,599617584791418757,133.00
2025-11-18 14:17:02.250986,599617584791418757,113.00
2025-11-18 14:17:02.250986,599617584791418757,101.00
2025-11-18 14:17:02.250986,599617584791418757,104.00
2025-11-18 14:17:02.250986,599617584791418757,99.00
2025-11-18 14:17:02.250986,599617584791418757,77.00
2025-11-18 14:17:02.250986,599617584791418757,62.00
2025-11-18 14:17:02.250986,599617584791418757,67.00
2025-11-18 14:17:02.250986,599617584791418757,75.00
2025-11-18 14:17:02.250986,599617584791418757,65.00
2025-11-18 14:17:02.250986,599617584791418757,60.00
2025-11-18 14:17:02.250986,599617584791418757,55.00
2025-11-18 14:17:02.250986,599617584791418757,53.00
2025-11-18 14:17:02.250986,599617584791418757,55.00
2025-11-18 14:17:02.250986,599617584791418757,53.00
2025-11-18 14:17:02.250986,599617584791418757,53.00
2025-11-18 14:17:02.250986,599617584791418757,53.00
2025-11-18 14:17:02.250986,599617584791418757,50.00
2025-11-18 14:17:02.250986,599617584791418757,53.00
2025-11-18 14:17:02.250986,599617584791418757,60.00
2025-11-18 14:17:02.250986,599617584791418757,53.00
2025-11-18 14:17:02.250986,599617584791418757,48.00
2025-11-18 14:17:02.250986,599617584791418757,58.00
2025-11-18 14:17:02.250986,599617584791418757,50.00
2025-11-18 14:17:02.250986,599617584791418757,24.00
2025-11-18 14:17:02.250986,599617584791418757,24.00
2025-11-18 14:17:02.250986,599617584791418757,53.00
2025-11-18 14:17:02.250986,599617584791418757,53.00
2025-11-18 14:17:02.250986,599617584791418757,29.00
2025-11-18 14:17:02.250986,599617584791418757,36.00
2025-11-18 14:17:02.250986,599617584791418757,36.00
2025-11-18 14:17:02.250986,599617584791418757,29.00
2025-11-18 14:17:02.250986,599617584791418757,38.00
2025-11-18 14:17:02.250986,599617584791418757,19.00
2025-11-18 14:17:02.250986,599617584791418757,-2.00
2025-11-18 14:17:02.250986,599617584791418757,12.00
2025-11-18 14:17:02.250986,599617584791418757,12.00
2025-11-18 14:17:02.250986,599617584791418757,-31.00
2025-11-18 14:17:02.250986,599617584791418757,-41.00
2025-11-18 14:17:02.250986,599617584791418757,14.00
2025-11-18 14:17:02.250986,599617584791418757,14.00
2025-11-18 14:17:02.250986,599617584791418757,-33.00
2025-11-18 14:17:02.250986,599617584791418757,-14.00
2025-11-18 14:17:02.250986,599617584791418757,21.00
2025-11-18 14:17:02.250986,599617584791418757,-14.00
2025-11-18 14:17:02.250986,599617584791418757,-58.00
2025-11-18 14:17:02.250986,599617584791418757,9.00
2025-11-18 14:17:02.250986,599617584791418757,70.00
2025-11-18 14:17:02.250986,599617584791418757,9.00
2025-11-18 14:17:02.250986,599617584791418757,-24.00
2025-11-18 14:17:02.250986,599617584791418757,38.00
2025-11-18 14:17:02.250986,599617584791418757,43.00
2025-11-18 14:17:02.250986,599617584791418757,9.00
2025-11-18 14:17:02.761136,599617585352085280,12.00
2025-11-18 14:17:02.761136,599617585352085280,-12.00
2025-11-18 14:17:02.761136,599617585352085280,-128.00
2025-11-18 14:17:02.761136,599617585352085280,-263.00
2025-11-18 14:17:02.761136,599617585352085280,-150.00
2025-11-18 14:17:02.761136,599617585352085280,445.00
2025-11-18 14:17:02.761136,599617585352085280,1367.00
2025-11-18 14:17:02.761136,599617585352085280,1898.00
2025-11-18 14:17:02.761136,599617585352085280,1380.00
2025-11-18 14:17:02.761136,599617585352085280,418.00
2025-11-18 14:17:02.761136,599617585352085280,-75.00
2025-11-18 14:17:02.761136,599617585352085280,-239.00
2025-11-18 14:17:02.761136,599617585352085280,-382.00
2025-11-18 14:17:02.761136,599617585352085280,-384.00
2025-11-18 14:17:02.761136,599617585352085280,-346.00
2025-11-18 14:17:02.761136,599617585352085280,-404.00
2025-11-18 14:17:02.761136,599617585352085280,-384.00
2025-11-18 14:17:02.761136,599617585352085280,-300.00
2025-11-18 14:17:02.761136,599617585352085280,-348.00
2025-11-18 14:17:02.761136,599617585352085280,-421.00
2025-11-18 14:17:02.761136,599617585352085280,-360.00
2025-11-18 14:17:02.761136,599617585352085280,-317.00
2025-11-18 14:17:02.761136,599617585352085280,-363.00
2025-11-18 14:17:02.761136,599617585352085280,-387.00
2025-11-18 14:17:02.761136,599617585352085280,-377.00
2025-11-18 14:17:02.761136,599617585352085280,-377.00
2025-11-18 14:17:02.761136,599617585352085280,-382.00
2025-11-18 14:17:02.761136,599617585352085280,-447.00
2025-11-18 14:17:02.761136,599617585352085280,-491.00
2025-11-18 14:17:02.761136,599617585352085280,-426.00
2025-11-18 14:17:02.761136,599617585352085280,-438.00
2025-11-18 14:17:02.761136,599617585352085280,-564.00
2025-11-18 14:17:02.761136,599617585352085280,-581.00
2025-11-18 14:17:02.761136,599617585352085280,-518.00
2025-11-18 14:17:02.761136,599617585352085280,-530.00
2025-11-18 14:17:02.761136,599617585352085280,-549.00
2025-11-18 14:17:02.761136,599617585352085280,-455.00
2025-11-18 14:17:02.761136,599617585352085280,-305.00
2025-11-18 14:17:02.761136,599617585352085280,-205.00
2025-11-18 14:17:02.761136,599617585352085280,-130.00
2025-11-18 14:17:02.761136,599617585352085280,-33.00
2025-11-18 14:17:02.761136,599617585352085280,48.00
2025-11-18 14:17:02.761136,599617585352085280,116.00
2025-11-18 14:17:02.761136,599617585352085280,147.00
2025-11-18 14:17:02.761136,599617585352085280,128.00
2025-11-18 14:17:02.761136,599617585352085280,162.00
2025-11-18 14:17:02.761136,599617585352085280,179.00
2025-11-18 14:17:02.761136,599617585352085280,125.00
2025-11-18 14:17:02.761136,599617585352085280,164.00
2025-11-18 14:17:02.761136,599617585352085280,234.00
2025-11-18 14:17:02.761136,599617585352085280,179.00
2025-11-18 14:17:02.761136,599617585352085280,111.00
2025-11-18 14:17:02.761136,599617585352085280,101.00
2025-11-18 14:17:02.761136,599617585352085280,92.00
2025-11-18 14:17:02.761136,599617585352085280,99.00
2025-11-18 14:17:02.761136,599617585352085280,106.00
2025-11-18 14:17:02.761136,599617585352085280,48.00
2025-11-18 14:17:02.761136,599617585352085280,2.00
2025-11-18 14:17:02.761136,599617585352085280,41.00
2025-11-18 14:17:02.761136,599617585352085280,58.00
2025-11-18 14:17:02.761136,599617585352085280,31.00
2025-11-18 14:17:02.761136,599617585352085280,53.00
2025-11-18 14:17:02.761136,599617585352085280,79.00
2025-11-18 14:17:02.761136,599617585352085280,46.00
2025-11-18 14:17:02.761136,599617585352085280,38.00
2025-11-18 14:17:02.761136,599617585352085280,29.00
2025-11-18 14:17:02.761136,599617585352085280,-2.00
2025-11-18 14:17:02.761136,599617585352085280,14.00
2025-11-18 14:17:02.761136,599617585352085280,41.00
2025-11-18 14:17:02.761136,599617585352085280,60.00
2025-11-18 14:17:02.761136,599617585352085280,62.00
2025-11-18 14:17:02.761136,599617585352085280,16.00
2025-11-18 14:17:02.761136,599617585352085280,-7.00
2025-11-18 14:17:03.362222,599617585912782323,12.00
2025-11-18 14:17:03.362222,599617585912782323,24.00
2025-11-18 14:17:03.362222,599617585912782323,-4.00
2025-11-18 14:17:03.362222,599617585912782323,-7.00
2025-11-18 14:17:03.362222,599617585912782323,43.00
2025-11-18 14:17:03.362222,599617585912782323,9.00
2025-11-18 14:17:03.362222,599617585912782323,-62.00
2025-11-18 14:17:03.362222,599617585912782323,-16.00
2025-11-18 14:17:03.362222,599617585912782323,33.00
2025-11-18 14:17:03.362222,599617585912782323,-19.00
2025-11-18 14:17:03.362222,599617585912782323,-46.00
2025-11-18 14:17:03.362222,599617585912782323,16.00
2025-11-18 14:17:03.362222,599617585912782323,36.00
2025-11-18 14:17:03.362222,599617585912782323,-29.00
2025-11-18 14:17:03.362222,599617585912782323,-14.00
2025-11-18 14:17:03.362222,599617585912782323,72.00
2025-11-18 14:17:03.362222,599617585912782323,29.00
2025-11-18 14:17:03.362222,599617585912782323,-55.00
2025-11-18 14:17:03.362222,599617585912782323,-16.00
2025-11-18 14:17:03.362222,599617585912782323,24.00
2025-11-18 14:17:03.362222,599617585912782323,4.00
2025-11-18 14:17:03.362222,599617585912782323,7.00
2025-11-18 14:17:03.362222,599617585912782323,36.00
2025-11-18 14:17:03.362222,599617585912782323,4.00
2025-11-18 14:17:03.362222,599617585912782323,-50.00
2025-11-18 14:17:03.362222,599617585912782323,16.00
2025-11-18 14:17:03.362222,599617585912782323,50.00
2025-11-18 14:17:03.362222,599617585912782323,-108.00
2025-11-18 14:17:03.362222,599617585912782323,-254.00
2025-11-18 14:17:03.362222,599617585912782323,-169.00
2025-11-18 14:17:03.362222,599617585912782323,355.00
2025-11-18 14:17:03.362222,599617585912782323,1324.00
2025-11-18 14:17:03.362222,599617585912782323,1852.00
2025-11-18 14:17:03.362222,599617585912782323,1244.00
2025-11-18 14:17:03.362222,599617585912782323,324.00
2025-11-18 14:17:03.362222,599617585912782323,-87.00
2025-11-18 14:17:03.362222,599617585912782323,-256.00
2025-11-18 14:17:03.362222,599617585912782323,-363.00
2025-11-18 14:17:03.362222,599617585912782323,-351.00
2025-11-18 14:17:03.362222,599617585912782323,-331.00
2025-11-18 14:17:03.362222,599617585912782323,-336.00
2025-11-18 14:17:03.362222,599617585912782323,-312.00
2025-11-18 14:17:03.362222,599617585912782323,-280.00
2025-11-18 14:17:03.362222,599617585912782323,-290.00
2025-11-18 14:17:03.362222,599617585912782323,-355.00
2025-11-18 14:17:03.362222,599617585912782323,-380.00
2025-11-18 14:17:03.362222,599617585912782323,-329.00
2025-11-18 14:17:03.362222,599617585912782323,-338.00
2025-11-18 14:17:03.362222,599617585912782323,-370.00
2025-11-18 14:17:03.362222,599617585912782323,-353.00
2025-11-18 14:17:03.362222,599617585912782323,-370.00
2025-11-18 14:17:03.362222,599617585912782323,-399.00
2025-11-18 14:17:03.362222,599617585912782323,-401.00
2025-11-18 14:17:03.362222,599617585912782323,-416.00
2025-11-18 14:17:03.362222,599617585912782323,-438.00
2025-11-18 14:17:03.362222,599617585912782323,-452.00
2025-11-18 14:17:03.362222,599617585912782323,-464.00
2025-11-18 14:17:03.362222,599617585912782323,-493.00
2025-11-18 14:17:03.362222,599617585912782323,-498.00
2025-11-18 14:17:03.362222,599617585912782323,-450.00
2025-11-18 14:17:03.362222,599617585912782323,-452.00
2025-11-18 14:17:03.362222,599617585912782323,-462.00
2025-11-18 14:17:03.362222,599617585912782323,-329.00
2025-11-18 14:17:03.362222,599617585912782323,-193.00
2025-11-18 14:17:03.362222,599617585912782323,-123.00
2025-11-18 14:17:03.362222,599617585912782323,-9.00
2025-11-18 14:17:03.362222,599617585912782323,77.00
2025-11-18 14:17:03.362222,599617585912782323,104.00
2025-11-18 14:17:03.362222,599617585912782323,147.00
2025-11-18 14:17:03.362222,599617585912782323,184.00
2025-11-18 14:17:03.362222,599617585912782323,198.00
2025-11-18 14:17:03.362222,599617585912782323,198.00
2025-11-18 14:17:03.362222,599617585912782323,154.00
2025-11-18 14:17:03.931621,599617586473479364,96.00
2025-11-18 14:17:03.931621,599617586473479364,92.00
2025-11-18 14:17:03.931621,599617586473479364,118.00
2025-11-18 14:17:03.931621,599617586473479364,96.00
2025-11-18 14:17:03.931621,599617586473479364,53.00
2025-11-18 14:17:03.931621,599617586473479364,72.00
2025-11-18 14:17:03.931621,599617586473479364,84.00
2025-11-18 14:17:03.931621,599617586473479364,48.00
2025-11-18 14:17:03.931621,599617586473479364,48.00
2025-11-18 14:17:03.931621,599617586473479364,62.00
2025-11-18 14:17:03.931621,599617586473479364,79.00
2025-11-18 14:17:03.931621,599617586473479364,108.00
2025-11-18 14:17:03.931621,599617586473479364,72.00
2025-11-18 14:17:03.931621,599617586473479364,12.00
2025-11-18 14:17:03.931621,599617586473479364,36.00
2025-11-18 14:17:03.931621,599617586473479364,31.00
2025-11-18 14:17:03.931621,599617586473479364,-16.00
2025-11-18 14:17:03.931621,599617586473479364,9.00
2025-11-18 14:17:03.931621,599617586473479364,38.00
2025-11-18 14:17:03.931621,599617586473479364,29.00
2025-11-18 14:17:03.931621,599617586473479364,41.00
2025-11-18 14:17:03.931621,599617586473479364,36.00
2025-11-18 14:17:03.931621,599617586473479364,19.00
2025-11-18 14:17:03.931621,599617586473479364,29.00
2025-11-18 14:17:03.931621,599617586473479364,48.00
2025-11-18 14:17:03.931621,599617586473479364,58.00
2025-11-18 14:17:03.931621,599617586473479364,53.00
2025-11-18 14:17:03.931621,599617586473479364,-14.00
2025-11-18 14:17:03.931621,599617586473479364,-79.00
2025-11-18 14:17:03.931621,599617586473479364,-29.00
2025-11-18 14:17:03.931621,599617586473479364,21.00
2025-11-18 14:17:03.931621,599617586473479364,-12.00
2025-11-18 14:17:03.931621,599617586473479364,-24.00
2025-11-18 14:17:03.931621,599617586473479364,-4.00
2025-11-18 14:17:03.931621,599617586473479364,-4.00
2025-11-18 14:17:03.931621,599617586473479364,7.00
2025-11-18 14:17:03.931621,599617586473479364,33.00
2025-11-18 14:17:03.931621,599617586473479364,33.00
2025-11-18 14:17:03.931621,599617586473479364,46.00
2025-11-18 14:17:03.931621,599617586473479364,70.00
2025-11-18 14:17:03.931621,599617586473479364,14.00
2025-11-18 14:17:03.931621,599617586473479364,-43.00
2025-11-18 14:17:03.931621,599617586473479364,-2.00
2025-11-18 14:17:03.931621,599617586473479364,29.00
2025-11-18 14:17:03.931621,599617586473479364,-7.00
2025-11-18 14:17:03.931621,599617586473479364,-31.00
2025-11-18 14:17:03.931621,599617586473479364,-113.00
2025-11-18 14:17:03.931621,599617586473479364,-283.00
2025-11-18 14:17:03.931621,599617586473479364,-263.00
2025-11-18 14:17:03.931621,599617586473479364,237.00
2025-11-18 14:17:03.931621,599617586473479364,1150.00
2025-11-18 14:17:03.931621,599617586473479364,1639.00
2025-11-18 14:17:03.931621,599617586473479364,1096.00
2025-11-18 14:17:03.931621,599617586473479364,324.00
2025-11-18 14:17:03.931621,599617586473479364,33.00
2025-11-18 14:17:03.931621,599617586473479364,-142.00
2025-11-18 14:17:03.931621,599617586473479364,-334.00
2025-11-18 14:17:03.931621,599617586473479364,-336.00
2025-11-18 14:17:03.931621,599617586473479364,-300.00
2025-11-18 14:17:03.931621,599617586473479364,-336.00
2025-11-18 14:17:03.931621,599617586473479364,-348.00
2025-11-18 14:17:03.931621,599617586473479364,-326.00
2025-11-18 14:17:03.931621,599617586473479364,-309.00
2025-11-18 14:17:03.931621,599617586473479364,-317.00
2025-11-18 14:17:03.931621,599617586473479364,-322.00
2025-11-18 14:17:03.931621,599617586473479364,-307.00
2025-11-18 14:17:03.931621,599617586473479364,-319.00
2025-11-18 14:17:03.931621,599617586473479364,-358.00
2025-11-18 14:17:03.931621,599617586473479364,-348.00
2025-11-18 14:17:03.931621,599617586473479364,-346.00
2025-11-18 14:17:03.931621,599617586473479364,-411.00
2025-11-18 14:17:03.931621,599617586473479364,-433.00
2025-11-18 14:17:03.931621,599617586473479364,-416.00
2025-11-18 14:17:04.472253,599617587034176405,-464.00
2025-11-18 14:17:04.472253,599617587034176405,-520.00
2025-11-18 14:17:04.472253,599617587034176405,-515.00
2025-11-18 14:17:04.472253,599617587034176405,-493.00
2025-11-18 14:17:04.472253,599617587034176405,-515.00
2025-11-18 14:17:04.472253,599617587034176405,-549.00
2025-11-18 14:17:04.472253,599617587034176405,-479.00
2025-11-18 14:17:04.472253,599617587034176405,-336.00
2025-11-18 14:17:04.472253,599617587034176405,-237.00
2025-11-18 14:17:04.472253,599617587034176405,-164.00
2025-11-18 14:17:04.472253,599617587034176405,-70.00
2025-11-18 14:17:04.472253,599617587034176405,12.00
2025-11-18 14:17:04.472253,599617587034176405,82.00
2025-11-18 14:17:04.472253,599617587034176405,138.00
2025-11-18 14:17:04.472253,599617587034176405,154.00
2025-11-18 14:17:04.472253,599617587034176405,174.00
2025-11-18 14:17:04.472253,599617587034176405,208.00
2025-11-18 14:17:04.472253,599617587034176405,208.00
2025-11-18 14:17:04.472253,599617587034176405,171.00
2025-11-18 14:17:04.472253,599617587034176405,174.00
2025-11-18 14:17:04.472253,599617587034176405,147.00
2025-11-18 14:17:04.472253,599617587034176405,55.00
2025-11-18 14:17:04.472253,599617587034176405,53.00
2025-11-18 14:17:04.472253,599617587034176405,116.00
2025-11-18 14:17:04.472253,599617587034176405,118.00
2025-11-18 14:17:04.472253,599617587034176405,94.00
2025-11-18 14:17:04.472253,599617587034176405,96.00
2025-11-18 14:17:04.472253,599617587034176405,111.00
2025-11-18 14:17:04.472253,599617587034176405,111.00
2025-11-18 14:17:04.472253,599617587034176405,84.00
2025-11-18 14:17:04.472253,599617587034176405,31.00
2025-11-18 14:17:04.472253,599617587034176405,21.00
2025-11-18 14:17:04.472253,599617587034176405,79.00
2025-11-18 14:17:04.472253,599617587034176405,53.00
2025-11-18 14:17:04.472253,599617587034176405,0.00
2025-11-18 14:17:04.472253,599617587034176405,60.00
2025-11-18 14:17:04.472253,599617587034176405,84.00
2025-11-18 14:17:04.472253,599617587034176405,60.00
2025-11-18 14:17:04.472253,599617587034176405,79.00
2025-11-18 14:17:04.472253,599617587034176405,36.00
2025-11-18 14:17:04.472253,599617587034176405,9.00
2025-11-18 14:17:04.472253,599617587034176405,72.00
2025-11-18 14:17:04.472253,599617587034176405,62.00
2025-11-18 14:17:04.472253,599617587034176405,36.00
2025-11-18 14:17:04.472253,599617587034176405,77.00
2025-11-18 14:17:04.472253,599617587034176405,21.00
2025-11-18 14:17:04.472253,599617587034176405,-50.00
2025-11-18 14:17:04.472253,599617587034176405,9.00
2025-11-18 14:17:04.472253,599617587034176405,38.00
2025-11-18 14:17:04.472253,599617587034176405,-2.00
2025-11-18 14:17:04.472253,599617587034176405,12.00
2025-11-18 14:17:04.472253,599617587034176405,36.00
2025-11-18 14:17:04.472253,599617587034176405,33.00
2025-11-18 14:17:04.472253,599617587034176405,60.00
2025-11-18 14:17:04.472253,599617587034176405,87.00
2025-11-18 14:17:04.472253,599617587034176405,41.00
2025-11-18 14:17:04.472253,599617587034176405,19.00
2025-11-18 14:17:04.472253,599617587034176405,70.00
2025-11-18 14:17:04.472253,599617587034176405,24.00
2025-11-18 14:17:04.472253,599617587034176405,-24.00
2025-11-18 14:17:04.472253,599617587034176405,53.00
2025-11-18 14:17:04.472253,599617587034176405,50.00
2025-11-18 14:17:04.472253,599617587034176405,-14.00
2025-11-18 14:17:04.472253,599617587034176405,-31.00
2025-11-18 14:17:04.472253,599617587034176405,-123.00
2025-11-18 14:17:04.472253,599617587034176405,-246.00
2025-11-18 14:17:04.472253,599617587034176405,-94.00
2025-11-18 14:17:04.472253,599617587034176405,472.00
2025-11-18 14:17:04.472253,599617587034176405,1205.00
2025-11-18 14:17:04.472253,599617587034176405,1469.00
2025-11-18 14:17:04.472253,599617587034176405,944.00
2025-11-18 14:17:04.472253,599617587034176405,302.00
2025-11-18 14:17:04.472253,599617587034176405,33.00
2025-11-18 14:17:05.043055,599617587594873446,-147.00
2025-11-18 14:17:05.043055,599617587594873446,-302.00
2025-11-18 14:17:05.043055,599617587594873446,-292.00
2025-11-18 14:17:05.043055,599617587594873446,-246.00
2025-11-18 14:17:05.043055,599617587594873446,-276.00
2025-11-18 14:17:05.043055,599617587594873446,-288.00
2025-11-18 14:17:05.043055,599617587594873446,-263.00
2025-11-18 14:17:05.043055,599617587594873446,-273.00
2025-11-18 14:17:05.043055,599617587594873446,-319.00
2025-11-18 14:17:05.043055,599617587594873446,-319.00
2025-11-18 14:17:05.043055,599617587594873446,-271.00
2025-11-18 14:17:05.043055,599617587594873446,-273.00
2025-11-18 14:17:05.043055,599617587594873446,-317.00
2025-11-18 14:17:05.043055,599617587594873446,-326.00
2025-11-18 14:17:05.043055,599617587594873446,-331.00
2025-11-18 14:17:05.043055,599617587594873446,-358.00
2025-11-18 14:17:05.043055,599617587594873446,-372.00
2025-11-18 14:17:05.043055,599617587594873446,-375.00
2025-11-18 14:17:05.043055,599617587594873446,-435.00
2025-11-18 14:17:05.043055,599617587594873446,-510.00
2025-11-18 14:17:05.043055,599617587594873446,-530.00
2025-11-18 14:17:05.043055,599617587594873446,-537.00
2025-11-18 14:17:05.043055,599617587594873446,-518.00
2025-11-18 14:17:05.043055,599617587594873446,-469.00
2025-11-18 14:17:05.043055,599617587594873446,-428.00
2025-11-18 14:17:05.043055,599617587594873446,-334.00
2025-11-18 14:17:05.043055,599617587594873446,-179.00
2025-11-18 14:17:05.043055,599617587594873446,-92.00
2025-11-18 14:17:05.043055,599617587594873446,-67.00
2025-11-18 14:17:05.043055,599617587594873446,19.00
2025-11-18 14:17:05.043055,599617587594873446,104.00
2025-11-18 14:17:05.043055,599617587594873446,104.00
2025-11-18 14:17:05.043055,599617587594873446,116.00
2025-11-18 14:17:05.043055,599617587594873446,162.00
2025-11-18 14:17:05.043055,599617587594873446,174.00
2025-11-18 14:17:05.043055,599617587594873446,164.00
2025-11-18 14:17:05.043055,599617587594873446,135.00
2025-11-18 14:17:05.043055,599617587594873446,108.00
2025-11-18 14:17:05.043055,599617587594873446,142.00
2025-11-18 14:17:05.043055,599617587594873446,140.00
2025-11-18 14:17:05.043055,599617587594873446,82.00
2025-11-18 14:17:05.043055,599617587594873446,77.00
2025-11-18 14:17:05.043055,599617587594873446,89.00
2025-11-18 14:17:05.043055,599617587594873446,94.00
2025-11-18 14:17:05.043055,599617587594873446,84.00
2025-11-18 14:17:05.043055,599617587594873446,38.00
2025-11-18 14:17:05.043055,599617587594873446,46.00
2025-11-18 14:17:05.043055,599617587594873446,84.00
2025-11-18 14:17:05.043055,599617587594873446,36.00
2025-11-18 14:17:05.043055,599617587594873446,-2.00
2025-11-18 14:17:05.043055,599617587594873446,36.00
2025-11-18 14:17:05.043055,599617587594873446,58.00
2025-11-18 14:17:05.043055,599617587594873446,33.00
2025-11-18 14:17:05.043055,599617587594873446,16.00
2025-11-18 14:17:05.043055,599617587594873446,29.00
2025-11-18 14:17:05.043055,599617587594873446,48.00
2025-11-18 14:17:05.043055,599617587594873446,38.00
2025-11-18 14:17:05.043055,599617587594873446,31.00
2025-11-18 14:17:05.043055,599617587594873446,38.00
2025-11-18 14:17:05.043055,599617587594873446,36.00
2025-11-18 14:17:05.043055,599617587594873446,36.00
2025-11-18 14:17:05.043055,599617587594873446,62.00
2025-11-18 14:17:05.043055,599617587594873446,70.00
2025-11-18 14:17:05.043055,599617587594873446,26.00
2025-11-18 14:17:05.043055,599617587594873446,0.00
2025-11-18 14:17:05.043055,599617587594873446,21.00
2025-11-18 14:17:05.043055,599617587594873446,21.00
2025-11-18 14:17:05.043055,599617587594873446,-4.00
2025-11-18 14:17:05.043055,599617587594873446,0.00
2025-11-18 14:17:05.043055,599617587594873446,38.00
2025-11-18 14:17:05.043055,599617587594873446,31.00
2025-11-18 14:17:05.043055,599617587594873446,-9.00
2025-11-18 14:17:05.043055,599617587594873446,9.00
2025-11-18 14:17:05.582640,599617588155570487,46.00
2025-11-18 14:17:05.582640,599617588155570487,24.00
2025-11-18 14:17:05.582640,599617588155570487,7.00
2025-11-18 14:17:05.582640,599617588155570487,24.00
2025-11-18 14:17:05.582640,599617588155570487,41.00
2025-11-18 14:17:05.582640,599617588155570487,43.00
2025-11-18 14:17:05.582640,599617588155570487,38.00
2025-11-18 14:17:05.582640,599617588155570487,41.00
2025-11-18 14:17:05.582640,599617588155570487,50.00
2025-11-18 14:17:05.582640,599617588155570487,60.00
2025-11-18 14:17:05.582640,599617588155570487,50.00
2025-11-18 14:17:05.582640,599617588155570487,19.00
2025-11-18 14:17:05.582640,599617588155570487,-55.00
2025-11-18 14:17:05.582640,599617588155570487,-157.00
2025-11-18 14:17:05.582640,599617588155570487,-79.00
2025-11-18 14:17:05.582640,599617588155570487,387.00
2025-11-18 14:17:05.582640,599617588155570487,1193.00
2025-11-18 14:17:05.582640,599617588155570487,1733.00
2025-11-18 14:17:05.582640,599617588155570487,1321.00
2025-11-18 14:17:05.582640,599617588155570487,462.00
2025-11-18 14:17:05.582640,599617588155570487,-4.00
2025-11-18 14:17:05.582640,599617588155570487,-191.00
2025-11-18 14:17:05.582640,599617588155570487,-329.00
2025-11-18 14:17:05.582640,599617588155570487,-351.00
2025-11-18 14:17:05.582640,599617588155570487,-322.00
2025-11-18 14:17:05.582640,599617588155570487,-334.00
2025-11-18 14:17:05.582640,599617588155570487,-346.00
2025-11-18 14:17:05.582640,599617588155570487,-336.00
2025-11-18 14:17:05.582640,599617588155570487,-319.00
2025-11-18 14:17:05.582640,599617588155570487,-307.00
2025-11-18 14:17:05.582640,599617588155570487,-302.00
2025-11-18 14:17:05.582640,599617588155570487,-319.00
2025-11-18 14:17:05.582640,599617588155570487,-351.00
2025-11-18 14:17:05.582640,599617588155570487,-353.00
2025-11-18 14:17:05.582640,599617588155570487,-338.00
2025-11-18 14:17:05.582640,599617588155570487,-358.00
2025-11-18 14:17:05.582640,599617588155570487,-389.00
2025-11-18 14:17:05.582640,599617588155570487,-414.00
2025-11-18 14:17:05.582640,599617588155570487,-440.00
2025-11-18 14:17:05.582640,599617588155570487,-476.00
2025-11-18 14:17:05.582640,599617588155570487,-508.00
2025-11-18 14:17:05.582640,599617588155570487,-530.00
2025-11-18 14:17:05.582640,599617588155570487,-542.00
2025-11-18 14:17:05.582640,599617588155570487,-542.00
2025-11-18 14:17:05.582640,599617588155570487,-522.00
2025-11-18 14:17:05.582640,599617588155570487,-469.00
2025-11-18 14:17:05.582640,599617588155570487,-384.00
2025-11-18 14:17:05.582640,599617588155570487,-283.00
2025-11-18 14:17:05.582640,599617588155570487,-176.00
2025-11-18 14:17:05.582640,599617588155570487,-70.00
2025-11-18 14:17:05.582640,599617588155570487,19.00
2025-11-18 14:17:05.582640,599617588155570487,84.00
2025-11-18 14:17:05.582640,599617588155570487,133.00
2025-11-18 14:17:05.582640,599617588155570487,174.00
2025-11-18 14:17:05.582640,599617588155570487,196.00
2025-11-18 14:17:05.582640,599617588155570487,191.00
2025-11-18 14:17:05.582640,599617588155570487,167.00
2025-11-18 14:17:05.582640,599617588155570487,157.00
2025-11-18 14:17:05.582640,599617588155570487,179.00
2025-11-18 14:17:05.582640,599617588155570487,164.00
2025-11-18 14:17:05.582640,599617588155570487,130.00
2025-11-18 14:17:05.582640,599617588155570487,125.00
2025-11-18 14:17:05.582640,599617588155570487,130.00
2025-11-18 14:17:05.582640,599617588155570487,118.00
2025-11-18 14:17:05.582640,599617588155570487,94.00
2025-11-18 14:17:05.582640,599617588155570487,79.00
2025-11-18 14:17:05.582640,599617588155570487,84.00
2025-11-18 14:17:05.582640,599617588155570487,79.00
2025-11-18 14:17:05.582640,599617588155570487,65.00
2025-11-18 14:17:05.582640,599617588155570487,60.00
2025-11-18 14:17:05.582640,599617588155570487,62.00
2025-11-18 14:17:05.582640,599617588155570487,62.00
2025-11-18 14:17:05.582640,599617588155570487,58.00
2025-11-18 14:17:06.149970,599617588716267528,50.00
2025-11-18 14:17:06.149970,599617588716267528,50.00
2025-11-18 14:17:06.149970,599617588716267528,55.00
2025-11-18 14:17:06.149970,599617588716267528,58.00
2025-11-18 14:17:06.149970,599617588716267528,55.00
2025-11-18 14:17:06.149970,599617588716267528,55.00
2025-11-18 14:17:06.149970,599617588716267528,58.00
2025-11-18 14:17:06.149970,599617588716267528,53.00
2025-11-18 14:17:06.149970,599617588716267528,43.00
2025-11-18 14:17:06.149970,599617588716267528,46.00
2025-11-18 14:17:06.149970,599617588716267528,58.00
2025-11-18 14:17:06.149970,599617588716267528,58.00
2025-11-18 14:17:06.149970,599617588716267528,48.00
2025-11-18 14:17:06.149970,599617588716267528,43.00
2025-11-18 14:17:06.149970,599617588716267528,41.00
2025-11-18 14:17:06.149970,599617588716267528,29.00
2025-11-18 14:17:06.149970,599617588716267528,19.00
2025-11-18 14:17:06.149970,599617588716267528,29.00
2025-11-18 14:17:06.149970,599617588716267528,31.00
2025-11-18 14:17:06.149970,599617588716267528,24.00
2025-11-18 14:17:06.149970,599617588716267528,21.00
2025-11-18 14:17:06.149970,599617588716267528,21.00
2025-11-18 14:17:06.149970,599617588716267528,19.00
2025-11-18 14:17:06.149970,599617588716267528,2.00
2025-11-18 14:17:06.149970,599617588716267528,-9.00
2025-11-18 14:17:06.149970,599617588716267528,-7.00
2025-11-18 14:17:06.149970,599617588716267528,-7.00
2025-11-18 14:17:06.149970,599617588716267528,-7.00
2025-11-18 14:17:06.149970,599617588716267528,12.00
2025-11-18 14:17:06.149970,599617588716267528,19.00
2025-11-18 14:17:06.149970,599617588716267528,4.00
2025-11-18 14:17:06.149970,599617588716267528,0.00
2025-11-18 14:17:06.149970,599617588716267528,-2.00
2025-11-18 14:17:06.149970,599617588716267528,0.00
2025-11-18 14:17:06.149970,599617588716267528,29.00
2025-11-18 14:17:06.149970,599617588716267528,55.00
2025-11-18 14:17:06.149970,599617588716267528,53.00
2025-11-18 14:17:06.149970,599617588716267528,46.00
2025-11-18 14:17:06.149970,599617588716267528,48.00
2025-11-18 14:17:06.149970,599617588716267528,12.00
2025-11-18 14:17:06.149970,599617588716267528,-19.00
2025-11-18 14:17:06.149970,599617588716267528,-7.00
2025-11-18 14:17:06.149970,599617588716267528,-70.00
2025-11-18 14:17:06.149970,599617588716267528,-213.00
2025-11-18 14:17:06.149970,599617588716267528,-167.00
2025-11-18 14:17:06.149970,599617588716267528,263.00
2025-11-18 14:17:06.149970,599617588716267528,1036.00
2025-11-18 14:17:06.149970,599617588716267528,1648.00
2025-11-18 14:17:06.149970,599617588716267528,1396.00
2025-11-18 14:17:06.149970,599617588716267528,583.00
2025-11-18 14:17:06.149970,599617588716267528,48.00
2025-11-18 14:17:06.149970,599617588716267528,-171.00
2025-11-18 14:17:06.149970,599617588716267528,-319.00
2025-11-18 14:17:06.149970,599617588716267528,-351.00
2025-11-18 14:17:06.149970,599617588716267528,-319.00
2025-11-18 14:17:06.149970,599617588716267528,-331.00
2025-11-18 14:17:06.149970,599617588716267528,-341.00
2025-11-18 14:17:06.149970,599617588716267528,-317.00
2025-11-18 14:17:06.149970,599617588716267528,-314.00
2025-11-18 14:17:06.149970,599617588716267528,-326.00
2025-11-18 14:17:06.149970,599617588716267528,-324.00
2025-11-18 14:17:06.149970,599617588716267528,-322.00
2025-11-18 14:17:06.149970,599617588716267528,-331.00
2025-11-18 14:17:06.149970,599617588716267528,-334.00
2025-11-18 14:17:06.149970,599617588716267528,-341.00
2025-11-18 14:17:06.149970,599617588716267528,-365.00
2025-11-18 14:17:06.149970,599617588716267528,-384.00
2025-11-18 14:17:06.149970,599617588716267528,-411.00
2025-11-18 14:17:06.149970,599617588716267528,-455.00
2025-11-18 14:17:06.149970,599617588716267528,-484.00
2025-11-18 14:17:06.149970,599617588716267528,-503.00
2025-11-18 14:17:06.149970,599617588716267528,-537.00
2025-11-18 14:17:06.149970,599617588716267528,-561.00
2025-11-18 14:17:06.752175,599617589276964571,-566.00
2025-11-18 14:17:06.752175,599617589276964571,-549.00
2025-11-18 14:17:06.752175,599617589276964571,-508.00
2025-11-18 14:17:06.752175,599617589276964571,-438.00
2025-11-18 14:17:06.752175,599617589276964571,-341.00
2025-11-18 14:17:06.752175,599617589276964571,-222.00
2025-11-18 14:17:06.752175,599617589276964571,-118.00
2025-11-18 14:17:06.752175,599617589276964571,-46.00
2025-11-18 14:17:06.752175,599617589276964571,33.00
2025-11-18 14:17:06.752175,599617589276964571,113.00
2025-11-18 14:17:06.752175,599617589276964571,154.00
2025-11-18 14:17:06.752175,599617589276964571,188.00
2025-11-18 14:17:06.752175,599617589276964571,215.00
2025-11-18 14:17:06.752175,599617589276964571,188.00
2025-11-18 14:17:06.752175,599617589276964571,167.00
2025-11-18 14:17:06.752175,599617589276964571,193.00
2025-11-18 14:17:06.752175,599617589276964571,179.00
2025-11-18 14:17:06.752175,599617589276964571,106.00
2025-11-18 14:17:06.752175,599617589276964571,87.00
2025-11-18 14:17:06.752175,599617589276964571,140.00
2025-11-18 14:17:06.752175,599617589276964571,169.00
2025-11-18 14:17:06.752175,599617589276964571,111.00
2025-11-18 14:17:06.752175,599617589276964571,62.00
2025-11-18 14:17:06.752175,599617589276964571,92.00
2025-11-18 14:17:06.752175,599617589276964571,87.00
2025-11-18 14:17:06.752175,599617589276964571,50.00
2025-11-18 14:17:06.752175,599617589276964571,70.00
2025-11-18 14:17:06.752175,599617589276964571,92.00
2025-11-18 14:17:06.752175,599617589276964571,82.00
2025-11-18 14:17:06.752175,599617589276964571,75.00
2025-11-18 14:17:06.752175,599617589276964571,62.00
2025-11-18 14:17:06.752175,599617589276964571,53.00
2025-11-18 14:17:06.752175,599617589276964571,55.00
2025-11-18 14:17:06.752175,599617589276964571,41.00
2025-11-18 14:17:06.752175,599617589276964571,24.00
2025-11-18 14:17:06.752175,599617589276964571,50.00
2025-11-18 14:17:06.752175,599617589276964571,50.00
2025-11-18 14:17:06.752175,599617589276964571,4.00
2025-11-18 14:17:06.752175,599617589276964571,12.00
2025-11-18 14:17:06.752175,599617589276964571,53.00
2025-11-18 14:17:06.752175,599617589276964571,62.00
2025-11-18 14:17:06.752175,599617589276964571,72.00
2025-11-18 14:17:06.752175,599617589276964571,58.00
2025-11-18 14:17:06.752175,599617589276964571,14.00
2025-11-18 14:17:06.752175,599617589276964571,7.00
2025-11-18 14:17:06.752175,599617589276964571,26.00
2025-11-18 14:17:06.752175,599617589276964571,41.00
2025-11-18 14:17:06.752175,599617589276964571,46.00
2025-11-18 14:17:06.752175,599617589276964571,46.00
2025-11-18 14:17:06.752175,599617589276964571,50.00
2025-11-18 14:17:06.752175,599617589276964571,33.00
2025-11-18 14:17:06.752175,599617589276964571,14.00
2025-11-18 14:17:06.752175,599617589276964571,38.00
2025-11-18 14:17:06.752175,599617589276964571,46.00
2025-11-18 14:17:06.752175,599617589276964571,19.00
2025-11-18 14:17:06.752175,599617589276964571,29.00
2025-11-18 14:17:06.752175,599617589276964571,21.00
2025-11-18 14:17:06.752175,599617589276964571,-14.00
2025-11-18 14:17:06.752175,599617589276964571,7.00
2025-11-18 14:17:06.752175,599617589276964571,41.00
2025-11-18 14:17:06.752175,599617589276964571,33.00
2025-11-18 14:17:06.752175,599617589276964571,19.00
2025-11-18 14:17:06.752175,599617589276964571,16.00
2025-11-18 14:17:06.752175,599617589276964571,16.00
2025-11-18 14:17:06.752175,599617589276964571,0.00
2025-11-18 14:17:06.752175,599617589276964571,-2.00
2025-11-18 14:17:06.752175,599617589276964571,0.00
2025-11-18 14:17:06.752175,599617589276964571,-12.00
2025-11-18 14:17:06.752175,599617589276964571,7.00
2025-11-18 14:17:06.752175,599617589276964571,7.00
2025-11-18 14:17:06.752175,599617589276964571,4.00
2025-11-18 14:17:06.752175,599617589276964571,0.00
2025-11-18 14:17:06.752175,599617589276964571,-46.00
2025-11-18 14:17:07.292151,599617589837661612,-12.00
2025-11-18 14:17:07.292151,599617589837661612,33.00
2025-11-18 14:17:07.292151,599617589837661612,-2.00
2025-11-18 14:17:07.292151,599617589837661612,14.00
2025-11-18 14:17:07.292151,599617589837661612,50.00
2025-11-18 14:17:07.292151,599617589837661612,-4.00
2025-11-18 14:17:07.292151,599617589837661612,-46.00
2025-11-18 14:17:07.292151,599617589837661612,-16.00
2025-11-18 14:17:07.292151,599617589837661612,-31.00
2025-11-18 14:17:07.292151,599617589837661612,-145.00
2025-11-18 14:17:07.292151,599617589837661612,-234.00
2025-11-18 14:17:07.292151,599617589837661612,-82.00
2025-11-18 14:17:07.292151,599617589837661612,503.00
2025-11-18 14:17:07.292151,599617589837661612,1341.00
2025-11-18 14:17:07.292151,599617589837661612,1639.00
2025-11-18 14:17:07.292151,599617589837661612,1014.00
2025-11-18 14:17:07.292151,599617589837661612,256.00
2025-11-18 14:17:07.292151,599617589837661612,-58.00
2025-11-18 14:17:07.292151,599617589837661612,-196.00
2025-11-18 14:17:07.292151,599617589837661612,-317.00
2025-11-18 14:17:07.292151,599617589837661612,-341.00
2025-11-18 14:17:07.292151,599617589837661612,-331.00
2025-11-18 14:17:07.292151,599617589837661612,-338.00
2025-11-18 14:17:07.292151,599617589837661612,-348.00
2025-11-18 14:17:07.292151,599617589837661612,-346.00
2025-11-18 14:17:07.292151,599617589837661612,-317.00
2025-11-18 14:17:07.292151,599617589837661612,-297.00
2025-11-18 14:17:07.292151,599617589837661612,-309.00
2025-11-18 14:17:07.292151,599617589837661612,-329.00
2025-11-18 14:17:07.292151,599617589837661612,-334.00
2025-11-18 14:17:07.292151,599617589837661612,-355.00
2025-11-18 14:17:07.292151,599617589837661612,-368.00
2025-11-18 14:17:07.292151,599617589837661612,-355.00
2025-11-18 14:17:07.292151,599617589837661612,-389.00
2025-11-18 14:17:07.292151,599617589837661612,-428.00
2025-11-18 14:17:07.292151,599617589837661612,-443.00
2025-11-18 14:17:07.292151,599617589837661612,-479.00
2025-11-18 14:17:07.292151,599617589837661612,-515.00
2025-11-18 14:17:07.292151,599617589837661612,-518.00
2025-11-18 14:17:07.292151,599617589837661612,-525.00
2025-11-18 14:17:07.292151,599617589837661612,-547.00
2025-11-18 14:17:07.292151,599617589837661612,-527.00
2025-11-18 14:17:07.292151,599617589837661612,-464.00
2025-11-18 14:17:07.292151,599617589837661612,-392.00
2025-11-18 14:17:07.292151,599617589837661612,-302.00
2025-11-18 14:17:07.292151,599617589837661612,-213.00
2025-11-18 14:17:07.292151,599617589837661612,-121.00
2025-11-18 14:17:07.292151,599617589837661612,-19.00
2025-11-18 14:17:07.292151,599617589837661612,72.00
2025-11-18 14:17:07.292151,599617589837661612,128.00
2025-11-18 14:17:07.292151,599617589837661612,130.00
2025-11-18 14:17:07.292151,599617589837661612,130.00
2025-11-18 14:17:07.292151,599617589837661612,157.00
2025-11-18 14:17:07.292151,599617589837661612,162.00
2025-11-18 14:17:07.292151,599617589837661612,147.00
2025-11-18 14:17:07.292151,599617589837661612,147.00
2025-11-18 14:17:07.292151,599617589837661612,140.00
2025-11-18 14:17:07.292151,599617589837661612,123.00
2025-11-18 14:17:07.292151,599617589837661612,116.00
2025-11-18 14:17:07.292151,599617589837661612,104.00
2025-11-18 14:17:07.292151,599617589837661612,99.00
2025-11-18 14:17:07.292151,599617589837661612,104.00
2025-11-18 14:17:07.292151,599617589837661612,104.00
2025-11-18 14:17:07.292151,599617589837661612,82.00
2025-11-18 14:17:07.292151,599617589837661612,46.00
2025-11-18 14:17:07.292151,599617589837661612,58.00
2025-11-18 14:17:07.292151,599617589837661612,55.00
2025-11-18 14:17:07.292151,599617589837661612,31.00
2025-11-18 14:17:07.292151,599617589837661612,48.00
2025-11-18 14:17:07.292151,599617589837661612,65.00
2025-11-18 14:17:07.292151,599617589837661612,46.00
2025-11-18 14:17:07.292151,599617589837661612,31.00
2025-11-18 14:17:07.292151,599617589837661612,48.00
2025-11-18 14:17:07.831070,599617590398358653,50.00
2025-11-18 14:17:07.831070,599617590398358653,31.00
2025-11-18 14:17:07.831070,599617590398358653,46.00
2025-11-18 14:17:07.831070,599617590398358653,43.00
2025-11-18 14:17:07.831070,599617590398358653,24.00
2025-11-18 14:17:07.831070,599617590398358653,41.00
2025-11-18 14:17:07.831070,599617590398358653,31.00
2025-11-18 14:17:07.831070,599617590398358653,33.00
2025-11-18 14:17:07.831070,599617590398358653,67.00
2025-11-18 14:17:07.831070,599617590398358653,38.00
2025-11-18 14:17:07.831070,599617590398358653,19.00
2025-11-18 14:17:07.831070,599617590398358653,21.00
2025-11-18 14:17:07.831070,599617590398358653,-12.00
2025-11-18 14:17:07.831070,599617590398358653,7.00
2025-11-18 14:17:07.831070,599617590398358653,36.00
2025-11-18 14:17:07.831070,599617590398358653,9.00
2025-11-18 14:17:07.831070,599617590398358653,14.00
2025-11-18 14:17:07.831070,599617590398358653,46.00
2025-11-18 14:17:07.831070,599617590398358653,41.00
2025-11-18 14:17:07.831070,599617590398358653,24.00
2025-11-18 14:17:07.831070,599617590398358653,14.00
2025-11-18 14:17:07.831070,599617590398358653,-2.00
2025-11-18 14:17:07.831070,599617590398358653,4.00
2025-11-18 14:17:07.831070,599617590398358653,19.00
2025-11-18 14:17:07.831070,599617590398358653,12.00
2025-11-18 14:17:07.831070,599617590398358653,9.00
2025-11-18 14:17:07.831070,599617590398358653,21.00
2025-11-18 14:17:07.831070,599617590398358653,4.00
2025-11-18 14:17:07.831070,599617590398358653,-9.00
2025-11-18 14:17:07.831070,599617590398358653,21.00
2025-11-18 14:17:07.831070,599617590398358653,24.00
2025-11-18 14:17:07.831070,599617590398358653,0.00
2025-11-18 14:17:07.831070,599617590398358653,9.00
2025-11-18 14:17:07.831070,599617590398358653,12.00
2025-11-18 14:17:07.831070,599617590398358653,-16.00
2025-11-18 14:17:07.831070,599617590398358653,-31.00
2025-11-18 14:17:07.831070,599617590398358653,-26.00
2025-11-18 14:17:07.831070,599617590398358653,-29.00
2025-11-18 14:17:07.831070,599617590398358653,-33.00
2025-11-18 14:17:07.831070,599617590398358653,0.00
2025-11-18 14:17:07.831070,599617590398358653,24.00
2025-11-18 14:17:07.831070,599617590398358653,-9.00
2025-11-18 14:17:07.831070,599617590398358653,-31.00
2025-11-18 14:17:07.831070,599617590398358653,-14.00
2025-11-18 14:17:07.831070,599617590398358653,0.00
2025-11-18 14:17:07.831070,599617590398358653,21.00
2025-11-18 14:17:07.831070,599617590398358653,43.00
2025-11-18 14:17:07.831070,599617590398358653,24.00
2025-11-18 14:17:07.831070,599617590398358653,9.00
2025-11-18 14:17:07.831070,599617590398358653,14.00
2025-11-18 14:17:07.831070,599617590398358653,4.00
2025-11-18 14:17:07.831070,599617590398358653,-7.00
2025-11-18 14:17:07.831070,599617590398358653,-7.00
2025-11-18 14:17:07.831070,599617590398358653,-55.00
2025-11-18 14:17:07.831070,599617590398358653,-174.00
2025-11-18 14:17:07.831070,599617590398358653,-203.00
2025-11-18 14:17:07.831070,599617590398358653,101.00
2025-11-18 14:17:07.831070,599617590398358653,828.00
2025-11-18 14:17:07.831070,599617590398358653,1556.00
2025-11-18 14:17:07.831070,599617590398358653,1484.00
2025-11-18 14:17:07.831070,599617590398358653,719.00
2025-11-18 14:17:07.831070,599617590398358653,130.00
2025-11-18 14:17:07.831070,599617590398358653,-111.00
2025-11-18 14:17:07.831070,599617590398358653,-278.00
2025-11-18 14:17:07.831070,599617590398358653,-346.00
2025-11-18 14:17:07.831070,599617590398358653,-312.00
2025-11-18 14:17:07.831070,599617590398358653,-317.00
2025-11-18 14:17:07.831070,599617590398358653,-338.00
2025-11-18 14:17:07.831070,599617590398358653,-324.00
2025-11-18 14:17:07.831070,599617590398358653,-312.00
2025-11-18 14:17:07.831070,599617590398358653,-317.00
2025-11-18 14:17:07.831070,599617590398358653,-319.00
2025-11-18 14:17:07.831070,599617590398358653,-322.00
2025-11-18 14:17:08.401323,599617590959055694,-322.00
2025-11-18 14:17:08.401323,599617590959055694,-326.00
2025-11-18 14:17:08.401323,599617590959055694,-331.00
2025-11-18 14:17:08.401323,599617590959055694,-343.00
2025-11-18 14:17:08.401323,599617590959055694,-355.00
2025-11-18 14:17:08.401323,599617590959055694,-365.00
2025-11-18 14:17:08.401323,599617590959055694,-406.00
2025-11-18 14:17:08.401323,599617590959055694,-447.00
2025-11-18 14:17:08.401323,599617590959055694,-460.00
2025-11-18 14:17:08.401323,599617590959055694,-484.00
2025-11-18 14:17:08.401323,599617590959055694,-515.00
2025-11-18 14:17:08.401323,599617590959055694,-525.00
2025-11-18 14:17:08.401323,599617590959055694,-520.00
2025-11-18 14:17:08.401323,599617590959055694,-493.00
2025-11-18 14:17:08.401323,599617590959055694,-426.00
2025-11-18 14:17:08.401323,599617590959055694,-348.00
2025-11-18 14:17:08.401323,599617590959055694,-271.00
2025-11-18 14:17:08.401323,599617590959055694,-171.00
2025-11-18 14:17:08.401323,599617590959055694,-89.00
2025-11-18 14:17:08.401323,599617590959055694,-26.00
2025-11-18 14:17:08.401323,599617590959055694,62.00
2025-11-18 14:17:08.401323,599617590959055694,123.00
2025-11-18 14:17:08.401323,599617590959055694,145.00
2025-11-18 14:17:08.401323,599617590959055694,164.00
2025-11-18 14:17:08.401323,599617590959055694,176.00
2025-11-18 14:17:08.401323,599617590959055694,174.00
2025-11-18 14:17:08.401323,599617590959055694,164.00
2025-11-18 14:17:08.401323,599617590959055694,154.00
2025-11-18 14:17:08.401323,599617590959055694,150.00
2025-11-18 14:17:08.401323,599617590959055694,157.00
2025-11-18 14:17:08.401323,599617590959055694,140.00
2025-11-18 14:17:08.401323,599617590959055694,104.00
2025-11-18 14:17:08.401323,599617590959055694,94.00
2025-11-18 14:17:08.401323,599617590959055694,96.00
2025-11-18 14:17:08.401323,599617590959055694,89.00
2025-11-18 14:17:08.401323,599617590959055694,79.00
2025-11-18 14:17:08.401323,599617590959055694,75.00
2025-11-18 14:17:08.401323,599617590959055694,70.00
2025-11-18 14:17:08.401323,599617590959055694,65.00
2025-11-18 14:17:08.401323,599617590959055694,60.00
2025-11-18 14:17:08.401323,599617590959055694,58.00
2025-11-18 14:17:08.401323,599617590959055694,60.00
2025-11-18 14:17:08.401323,599617590959055694,65.00
2025-11-18 14:17:08.401323,599617590959055694,65.00
2025-11-18 14:17:08.401323,599617590959055694,41.00
2025-11-18 14:17:08.401323,599617590959055694,21.00
2025-11-18 14:17:08.401323,599617590959055694,38.00
2025-11-18 14:17:08.401323,599617590959055694,50.00
2025-11-18 14:17:08.401323,599617590959055694,43.00
2025-11-18 14:17:08.401323,599617590959055694,43.00
2025-11-18 14:17:08.401323,599617590959055694,48.00
2025-11-18 14:17:08.401323,599617590959055694,41.00
2025-11-18 14:17:08.401323,599617590959055694,33.00
2025-11-18 14:17:08.401323,599617590959055694,38.00
2025-11-18 14:17:08.401323,599617590959055694,36.00
2025-11-18 14:17:08.401323,599617590959055694,31.00
2025-11-18 14:17:08.401323,599617590959055694,41.00
2025-11-18 14:17:08.401323,599617590959055694,55.00
2025-11-18 14:17:08.401323,599617590959055694,16.00
2025-11-18 14:17:08.401323,599617590959055694,-48.00
2025-11-18 14:17:08.401323,599617590959055694,-38.00
2025-11-18 14:17:08.401323,599617590959055694,29.00
2025-11-18 14:17:08.401323,599617590959055694,62.00
2025-11-18 14:17:08.401323,599617590959055694,46.00
2025-11-18 14:17:08.401323,599617590959055694,21.00
2025-11-18 14:17:08.401323,599617590959055694,21.00
2025-11-18 14:17:08.401323,599617590959055694,24.00
2025-11-18 14:17:08.401323,599617590959055694,14.00
2025-11-18 14:17:08.401323,599617590959055694,19.00
2025-11-18 14:17:08.401323,599617590959055694,36.00
2025-11-18 14:17:08.401323,599617590959055694,38.00
2025-11-18 14:17:08.401323,599617590959055694,26.00
2025-11-18 14:17:08.401323,599617590959055694,7.00
2025-11-18 14:17:08.939687,599617591519752735,-24.00
2025-11-18 14:17:08.939687,599617591519752735,-19.00
2025-11-18 14:17:08.939687,599617591519752735,16.00
2025-11-18 14:17:08.939687,599617591519752735,12.00
2025-11-18 14:17:08.939687,599617591519752735,0.00
2025-11-18 14:17:08.939687,599617591519752735,14.00
2025-11-18 14:17:08.939687,599617591519752735,9.00
2025-11-18 14:17:08.939687,599617591519752735,-7.00
2025-11-18 14:17:08.939687,599617591519752735,0.00
2025-11-18 14:17:08.939687,599617591519752735,-7.00
2025-11-18 14:17:08.939687,599617591519752735,-36.00
2025-11-18 14:17:08.939687,599617591519752735,-43.00
2025-11-18 14:17:08.939687,599617591519752735,-24.00
2025-11-18 14:17:08.939687,599617591519752735,4.00
2025-11-18 14:17:08.939687,599617591519752735,19.00
2025-11-18 14:17:08.939687,599617591519752735,-12.00
2025-11-18 14:17:08.939687,599617591519752735,-21.00
2025-11-18 14:17:08.939687,599617591519752735,0.00
2025-11-18 14:17:08.939687,599617591519752735,7.00
2025-11-18 14:17:08.939687,599617591519752735,16.00
2025-11-18 14:17:08.939687,599617591519752735,38.00
2025-11-18 14:17:08.939687,599617591519752735,21.00
2025-11-18 14:17:08.939687,599617591519752735,0.00
2025-11-18 14:17:08.939687,599617591519752735,12.00
2025-11-18 14:17:08.939687,599617591519752735,7.00
2025-11-18 14:17:08.939687,599617591519752735,-14.00
2025-11-18 14:17:08.939687,599617591519752735,-21.00
2025-11-18 14:17:08.939687,599617591519752735,-65.00
2025-11-18 14:17:08.939687,599617591519752735,-176.00
2025-11-18 14:17:08.939687,599617591519752735,-191.00
2025-11-18 14:17:08.939687,599617591519752735,133.00
2025-11-18 14:17:08.939687,599617591519752735,842.00
2025-11-18 14:17:08.939687,599617591519752735,1532.00
2025-11-18 14:17:08.939687,599617591519752735,1452.00
2025-11-18 14:17:08.939687,599617591519752735,677.00
2025-11-18 14:17:08.939687,599617591519752735,72.00
2025-11-18 14:17:08.939687,599617591519752735,-138.00
2025-11-18 14:17:08.939687,599617591519752735,-259.00
2025-11-18 14:17:08.939687,599617591519752735,-336.00
2025-11-18 14:17:08.939687,599617591519752735,-326.00
2025-11-18 14:17:08.939687,599617591519752735,-338.00
2025-11-18 14:17:08.939687,599617591519752735,-370.00
2025-11-18 14:17:08.939687,599617591519752735,-346.00
2025-11-18 14:17:08.939687,599617591519752735,-324.00
2025-11-18 14:17:08.939687,599617591519752735,-331.00
2025-11-18 14:17:08.939687,599617591519752735,-317.00
2025-11-18 14:17:08.939687,599617591519752735,-309.00
2025-11-18 14:17:08.939687,599617591519752735,-348.00
2025-11-18 14:17:08.939687,599617591519752735,-358.00
2025-11-18 14:17:08.939687,599617591519752735,-341.00
2025-11-18 14:17:08.939687,599617591519752735,-372.00
2025-11-18 14:17:08.939687,599617591519752735,-397.00
2025-11-18 14:17:08.939687,599617591519752735,-389.00
2025-11-18 14:17:08.939687,599617591519752735,-414.00
2025-11-18 14:17:08.939687,599617591519752735,-452.00
2025-11-18 14:17:08.939687,599617591519752735,-474.00
2025-11-18 14:17:08.939687,599617591519752735,-491.00
2025-11-18 14:17:08.939687,599617591519752735,-515.00
2025-11-18 14:17:08.939687,599617591519752735,-532.00
2025-11-18 14:17:08.939687,599617591519752735,-537.00
2025-11-18 14:17:08.939687,599617591519752735,-518.00
2025-11-18 14:17:08.939687,599617591519752735,-464.00
2025-11-18 14:17:08.939687,599617591519752735,-384.00
2025-11-18 14:17:08.939687,599617591519752735,-292.00
2025-11-18 14:17:08.939687,599617591519752735,-200.00
2025-11-18 14:17:08.939687,599617591519752735,-113.00
2025-11-18 14:17:08.939687,599617591519752735,-26.00
2025-11-18 14:17:08.939687,599617591519752735,41.00
2025-11-18 14:17:08.939687,599617591519752735,92.00
2025-11-18 14:17:08.939687,599617591519752735,125.00
2025-11-18 14:17:08.939687,599617591519752735,140.00
2025-11-18 14:17:08.939687,599617591519752735,152.00
2025-11-18 14:17:08.939687,599617591519752735,159.00
2025-11-18 14:17:09.539620,599617592080419260,142.00
2025-11-18 14:17:09.539620,599617592080419260,118.00
2025-11-18 14:17:09.539620,599617592080419260,125.00
2025-11-18 14:17:09.539620,599617592080419260,130.00
2025-11-18 14:17:09.539620,599617592080419260,111.00
2025-11-18 14:17:09.539620,599617592080419260,92.00
2025-11-18 14:17:09.539620,599617592080419260,84.00
2025-11-18 14:17:09.539620,599617592080419260,77.00
2025-11-18 14:17:09.539620,599617592080419260,70.00
2025-11-18 14:17:09.539620,599617592080419260,70.00
2025-11-18 14:17:09.539620,599617592080419260,70.00
2025-11-18 14:17:09.539620,599617592080419260,62.00
2025-11-18 14:17:09.539620,599617592080419260,58.00
2025-11-18 14:17:09.539620,599617592080419260,50.00
2025-11-18 14:17:09.539620,599617592080419260,46.00
2025-11-18 14:17:09.539620,599617592080419260,41.00
2025-11-18 14:17:09.539620,599617592080419260,19.00
2025-11-18 14:17:09.539620,599617592080419260,14.00
2025-11-18 14:17:09.539620,599617592080419260,36.00
2025-11-18 14:17:09.539620,599617592080419260,36.00
2025-11-18 14:17:09.539620,599617592080419260,21.00
2025-11-18 14:17:09.539620,599617592080419260,26.00
2025-11-18 14:17:09.539620,599617592080419260,31.00
2025-11-18 14:17:09.539620,599617592080419260,26.00
2025-11-18 14:17:09.539620,599617592080419260,26.00
2025-11-18 14:17:09.539620,599617592080419260,29.00
2025-11-18 14:17:09.539620,599617592080419260,24.00
2025-11-18 14:17:09.539620,599617592080419260,21.00
2025-11-18 14:17:09.539620,599617592080419260,24.00
2025-11-18 14:17:09.539620,599617592080419260,26.00
2025-11-18 14:17:09.539620,599617592080419260,33.00
2025-11-18 14:17:09.539620,599617592080419260,36.00
2025-11-18 14:17:09.539620,599617592080419260,14.00
2025-11-18 14:17:09.539620,599617592080419260,0.00
2025-11-18 14:17:09.539620,599617592080419260,12.00
2025-11-18 14:17:09.539620,599617592080419260,21.00
2025-11-18 14:17:09.539620,599617592080419260,12.00
2025-11-18 14:17:09.539620,599617592080419260,4.00
2025-11-18 14:17:09.539620,599617592080419260,4.00
2025-11-18 14:17:09.539620,599617592080419260,4.00
2025-11-18 14:17:09.539620,599617592080419260,9.00
2025-11-18 14:17:09.539620,599617592080419260,14.00
2025-11-18 14:17:09.539620,599617592080419260,7.00
2025-11-18 14:17:09.539620,599617592080419260,2.00
2025-11-18 14:17:09.539620,599617592080419260,0.00
2025-11-18 14:17:09.539620,599617592080419260,0.00
2025-11-18 14:17:09.539620,599617592080419260,-2.00
2025-11-18 14:17:09.539620,599617592080419260,-2.00
2025-11-18 14:17:09.539620,599617592080419260,-2.00
2025-11-18 14:17:09.539620,599617592080419260,0.00
2025-11-18 14:17:09.539620,599617592080419260,2.00
2025-11-18 14:17:09.539620,599617592080419260,0.00
2025-11-18 14:17:09.539620,599617592080419260,-2.00
2025-11-18 14:17:09.539620,599617592080419260,-4.00
2025-11-18 14:17:09.539620,599617592080419260,-7.00
2025-11-18 14:17:09.539620,599617592080419260,-7.00
2025-11-18 14:17:09.539620,599617592080419260,-9.00
2025-11-18 14:17:09.539620,599617592080419260,-9.00
2025-11-18 14:17:09.539620,599617592080419260,-9.00
2025-11-18 14:17:09.539620,599617592080419260,-12.00
2025-11-18 14:17:09.539620,599617592080419260,-12.00
2025-11-18 14:17:09.539620,599617592080419260,-19.00
2025-11-18 14:17:09.539620,599617592080419260,-33.00
2025-11-18 14:17:09.539620,599617592080419260,-43.00
2025-11-18 14:17:09.539620,599617592080419260,-41.00
2025-11-18 14:17:09.539620,599617592080419260,-31.00
2025-11-18 14:17:09.539620,599617592080419260,-21.00
2025-11-18 14:17:09.539620,599617592080419260,-24.00
2025-11-18 14:17:09.539620,599617592080419260,-31.00
2025-11-18 14:17:09.539620,599617592080419260,-33.00
2025-11-18 14:17:09.539620,599617592080419260,-26.00
2025-11-18 14:17:09.539620,599617592080419260,-14.00
2025-11-18 14:17:09.539620,599617592080419260,-12.00
2025-11-18 14:17:10.139797,599617592641146819,-9.00
2025-11-18 14:17:10.139797,599617592641146819,4.00
2025-11-18 14:17:10.139797,599617592641146819,7.00
2025-11-18 14:17:10.139797,599617592641146819,-7.00
2025-11-18 14:17:10.139797,599617592641146819,-12.00
2025-11-18 14:17:10.139797,599617592641146819,-9.00
2025-11-18 14:17:10.139797,599617592641146819,-16.00
2025-11-18 14:17:10.139797,599617592641146819,-60.00
2025-11-18 14:17:10.139797,599617592641146819,-167.00
2025-11-18 14:17:10.139797,599617592641146819,-244.00
2025-11-18 14:17:10.139797,599617592641146819,-65.00
2025-11-18 14:17:10.139797,599617592641146819,554.00
2025-11-18 14:17:10.139797,599617592641146819,1343.00
2025-11-18 14:17:10.139797,599617592641146819,1493.00
2025-11-18 14:17:10.139797,599617592641146819,847.00
2025-11-18 14:17:10.139797,599617592641146819,213.00
2025-11-18 14:17:10.139797,599617592641146819,-58.00
2025-11-18 14:17:10.139797,599617592641146819,-237.00
2025-11-18 14:17:10.139797,599617592641146819,-348.00
2025-11-18 14:17:10.139797,599617592641146819,-334.00
2025-11-18 14:17:10.139797,599617592641146819,-317.00
2025-11-18 14:17:10.139797,599617592641146819,-338.00
2025-11-18 14:17:10.139797,599617592641146819,-334.00
2025-11-18 14:17:10.139797,599617592641146819,-322.00
2025-11-18 14:17:10.139797,599617592641146819,-326.00
2025-11-18 14:17:10.139797,599617592641146819,-324.00
2025-11-18 14:17:10.139797,599617592641146819,-322.00
2025-11-18 14:17:10.139797,599617592641146819,-326.00
2025-11-18 14:17:10.139797,599617592641146819,-334.00
2025-11-18 14:17:10.139797,599617592641146819,-341.00
2025-11-18 14:17:10.139797,599617592641146819,-351.00
2025-11-18 14:17:10.139797,599617592641146819,-365.00
2025-11-18 14:17:10.139797,599617592641146819,-382.00
2025-11-18 14:17:10.139797,599617592641146819,-404.00
2025-11-18 14:17:10.139797,599617592641146819,-426.00
2025-11-18 14:17:10.139797,599617592641146819,-452.00
2025-11-18 14:17:10.139797,599617592641146819,-481.00
2025-11-18 14:17:10.139797,599617592641146819,-506.00
2025-11-18 14:17:10.139797,599617592641146819,-522.00
2025-11-18 14:17:10.139797,599617592641146819,-525.00
2025-11-18 14:17:10.139797,599617592641146819,-510.00
2025-11-18 14:17:10.139797,599617592641146819,-472.00
2025-11-18 14:17:10.139797,599617592641146819,-404.00
2025-11-18 14:17:10.139797,599617592641146819,-312.00
2025-11-18 14:17:10.139797,599617592641146819,-220.00
2025-11-18 14:17:10.139797,599617592641146819,-130.00
2025-11-18 14:17:10.139797,599617592641146819,-43.00
2025-11-18 14:17:10.139797,599617592641146819,26.00
2025-11-18 14:17:10.139797,599617592641146819,82.00
2025-11-18 14:17:10.139797,599617592641146819,125.00
2025-11-18 14:17:10.139797,599617592641146819,150.00
2025-11-18 14:17:10.139797,599617592641146819,154.00
2025-11-18 14:17:10.139797,599617592641146819,154.00
2025-11-18 14:17:10.139797,599617592641146819,152.00
2025-11-18 14:17:10.139797,599617592641146819,147.00
2025-11-18 14:17:10.139797,599617592641146819,145.00
2025-11-18 14:17:10.139797,599617592641146819,135.00
2025-11-18 14:17:10.139797,599617592641146819,121.00
2025-11-18 14:17:10.139797,599617592641146819,108.00
2025-11-18 14:17:10.139797,599617592641146819,104.00
2025-11-18 14:17:10.139797,599617592641146819,99.00
2025-11-18 14:17:10.139797,599617592641146819,87.00
2025-11-18 14:17:10.139797,599617592641146819,75.00
2025-11-18 14:17:10.139797,599617592641146819,67.00
2025-11-18 14:17:10.139797,599617592641146819,60.00
2025-11-18 14:17:10.139797,599617592641146819,53.00
2025-11-18 14:17:10.139797,599617592641146819,48.00
2025-11-18 14:17:10.139797,599617592641146819,48.00
2025-11-18 14:17:10.139797,599617592641146819,50.00
2025-11-18 14:17:10.139797,599617592641146819,50.00
2025-11-18 14:17:10.139797,599617592641146819,43.00
2025-11-18 14:17:10.139797,599617592641146819,38.00
2025-11-18 14:17:10.139797,599617592641146819,41.00
2025-11-18 14:17:10.657287,599617593201843860,43.00
2025-11-18 14:17:10.657287,599617593201843860,41.00
2025-11-18 14:17:10.657287,599617593201843860,38.00
2025-11-18 14:17:10.657287,599617593201843860,36.00
2025-11-18 14:17:10.657287,599617593201843860,36.00
2025-11-18 14:17:10.657287,599617593201843860,33.00
2025-11-18 14:17:10.657287,599617593201843860,31.00
2025-11-18 14:17:10.657287,599617593201843860,31.00
2025-11-18 14:17:10.657287,599617593201843860,31.00
2025-11-18 14:17:10.657287,599617593201843860,29.00
2025-11-18 14:17:10.657287,599617593201843860,26.00
2025-11-18 14:17:10.657287,599617593201843860,29.00
2025-11-18 14:17:10.657287,599617593201843860,26.00
2025-11-18 14:17:10.657287,599617593201843860,26.00
2025-11-18 14:17:10.657287,599617593201843860,26.00
2025-11-18 14:17:10.657287,599617593201843860,26.00
2025-11-18 14:17:10.657287,599617593201843860,19.00
2025-11-18 14:17:10.657287,599617593201843860,14.00
2025-11-18 14:17:10.657287,599617593201843860,19.00
2025-11-18 14:17:10.657287,599617593201843860,19.00
2025-11-18 14:17:10.657287,599617593201843860,14.00
2025-11-18 14:17:10.657287,599617593201843860,12.00
2025-11-18 14:17:10.657287,599617593201843860,14.00
2025-11-18 14:17:10.657287,599617593201843860,14.00
2025-11-18 14:17:10.657287,599617593201843860,9.00
2025-11-18 14:17:10.657287,599617593201843860,7.00
2025-11-18 14:17:10.657287,599617593201843860,12.00
2025-11-18 14:17:10.657287,599617593201843860,12.00
2025-11-18 14:17:10.657287,599617593201843860,9.00
2025-11-18 14:17:10.657287,599617593201843860,7.00
2025-11-18 14:17:10.657287,599617593201843860,7.00
2025-11-18 14:17:10.657287,599617593201843860,2.00
2025-11-18 14:17:10.657287,599617593201843860,2.00
2025-11-18 14:17:10.657287,599617593201843860,0.00
2025-11-18 14:17:10.657287,599617593201843860,-4.00
2025-11-18 14:17:10.657287,599617593201843860,-4.00
2025-11-18 14:17:10.657287,599617593201843860,-4.00
2025-11-18 14:17:10.657287,599617593201843860,-7.00
2025-11-18 14:17:10.657287,599617593201843860,-12.00
2025-11-18 14:17:10.657287,599617593201843860,-19.00
2025-11-18 14:17:10.657287,599617593201843860,-29.00
2025-11-18 14:17:10.657287,599617593201843860,-33.00
2025-11-18 14:17:10.657287,599617593201843860,-31.00
2025-11-18 14:17:10.657287,599617593201843860,-21.00
2025-11-18 14:17:10.657287,599617593201843860,-12.00
2025-11-18 14:17:10.657287,599617593201843860,-21.00
2025-11-18 14:17:10.657287,599617593201843860,-33.00
2025-11-18 14:17:10.657287,599617593201843860,-26.00
2025-11-18 14:17:10.657287,599617593201843860,-14.00
2025-11-18 14:17:10.657287,599617593201843860,-12.00
2025-11-18 14:17:10.657287,599617593201843860,-7.00
2025-11-18 14:17:10.657287,599617593201843860,2.00
2025-11-18 14:17:10.657287,599617593201843860,2.00
2025-11-18 14:17:10.657287,599617593201843860,-7.00
2025-11-18 14:17:10.657287,599617593201843860,-14.00
2025-11-18 14:17:10.657287,599617593201843860,-14.00
2025-11-18 14:17:10.657287,599617593201843860,-14.00
2025-11-18 14:17:10.657287,599617593201843860,-36.00
2025-11-18 14:17:10.657287,599617593201843860,-116.00
2025-11-18 14:17:10.657287,599617593201843860,-220.00
2025-11-18 14:17:10.657287,599617593201843860,-164.00
2025-11-18 14:17:10.657287,599617593201843860,268.00
2025-11-18 14:17:10.657287,599617593201843860,1067.00
2025-11-18 14:17:10.657287,599617593201843860,1585.00
2025-11-18 14:17:10.657287,599617593201843860,1196.00
2025-11-18 14:17:10.657287,599617593201843860,430.00
2025-11-18 14:17:10.657287,599617593201843860,12.00
2025-11-18 14:17:10.657287,599617593201843860,-176.00
2025-11-18 14:17:10.657287,599617593201843860,-322.00
2025-11-18 14:17:10.657287,599617593201843860,-351.00
2025-11-18 14:17:10.657287,599617593201843860,-322.00
2025-11-18 14:17:10.657287,599617593201843860,-336.00
2025-11-18 14:17:10.657287,599617593201843860,-346.00
2025-11-18 14:17:11.251744,599617593762540901,-329.00
2025-11-18 14:17:11.251744,599617593762540901,-324.00
2025-11-18 14:17:11.251744,599617593762540901,-326.00
2025-11-18 14:17:11.251744,599617593762540901,-322.00
2025-11-18 14:17:11.251744,599617593762540901,-322.00
2025-11-18 14:17:11.251744,599617593762540901,-326.00
2025-11-18 14:17:11.251744,599617593762540901,-331.00
2025-11-18 14:17:11.251744,599617593762540901,-341.00
2025-11-18 14:17:11.251744,599617593762540901,-353.00
2025-11-18 14:17:11.251744,599617593762540901,-368.00
2025-11-18 14:17:11.251744,599617593762540901,-389.00
2025-11-18 14:17:11.251744,599617593762540901,-416.00
2025-11-18 14:17:11.251744,599617593762540901,-438.00
2025-11-18 14:17:11.251744,599617593762540901,-467.00
2025-11-18 14:17:11.251744,599617593762540901,-498.00
2025-11-18 14:17:11.251744,599617593762540901,-522.00
2025-11-18 14:17:11.251744,599617593762540901,-532.00
2025-11-18 14:17:11.251744,599617593762540901,-525.00
2025-11-18 14:17:11.251744,599617593762540901,-496.00
2025-11-18 14:17:11.251744,599617593762540901,-438.00
2025-11-18 14:17:11.251744,599617593762540901,-355.00
2025-11-18 14:17:11.251744,599617593762540901,-263.00
2025-11-18 14:17:11.251744,599617593762540901,-174.00
2025-11-18 14:17:11.251744,599617593762540901,-87.00
2025-11-18 14:17:11.251744,599617593762540901,-4.00
2025-11-18 14:17:11.251744,599617593762540901,65.00
2025-11-18 14:17:11.251744,599617593762540901,113.00
2025-11-18 14:17:11.251744,599617593762540901,142.00
2025-11-18 14:17:11.251744,599617593762540901,154.00
2025-11-18 14:17:11.251744,599617593762540901,159.00
2025-11-18 14:17:11.251744,599617593762540901,157.00
2025-11-18 14:17:11.251744,599617593762540901,152.00
2025-11-18 14:17:11.251744,599617593762540901,145.00
2025-11-18 14:17:11.251744,599617593762540901,138.00
2025-11-18 14:17:11.251744,599617593762540901,128.00
2025-11-18 14:17:11.251744,599617593762540901,121.00
2025-11-18 14:17:11.251744,599617593762540901,111.00
2025-11-18 14:17:11.251744,599617593762540901,101.00
2025-11-18 14:17:11.251744,599617593762540901,92.00
2025-11-18 14:17:11.251744,599617593762540901,82.00
2025-11-18 14:17:11.251744,599617593762540901,72.00
2025-11-18 14:17:11.251744,599617593762540901,67.00
2025-11-18 14:17:11.251744,599617593762540901,62.00
2025-11-18 14:17:11.251744,599617593762540901,55.00
2025-11-18 14:17:11.251744,599617593762540901,53.00
2025-11-18 14:17:11.251744,599617593762540901,48.00
2025-11-18 14:17:11.251744,599617593762540901,46.00
2025-11-18 14:17:11.251744,599617593762540901,43.00
2025-11-18 14:17:11.251744,599617593762540901,43.00
2025-11-18 14:17:11.251744,599617593762540901,46.00
2025-11-18 14:17:11.251744,599617593762540901,43.00
2025-11-18 14:17:11.251744,599617593762540901,41.00
2025-11-18 14:17:11.251744,599617593762540901,43.00
2025-11-18 14:17:11.251744,599617593762540901,41.00
2025-11-18 14:17:11.251744,599617593762540901,38.00
2025-11-18 14:17:11.251744,599617593762540901,38.00
2025-11-18 14:17:11.251744,599617593762540901,38.00
2025-11-18 14:17:11.251744,599617593762540901,38.00
2025-11-18 14:17:11.251744,599617593762540901,36.00
2025-11-18 14:17:11.251744,599617593762540901,31.00
2025-11-18 14:17:11.251744,599617593762540901,26.00
2025-11-18 14:17:11.251744,599617593762540901,26.00
2025-11-18 14:17:11.251744,599617593762540901,26.00
2025-11-18 14:17:11.251744,599617593762540901,24.00
2025-11-18 14:17:11.251744,599617593762540901,21.00
2025-11-18 14:17:11.251744,599617593762540901,19.00
2025-11-18 14:17:11.251744,599617593762540901,19.00
2025-11-18 14:17:11.251744,599617593762540901,24.00
2025-11-18 14:17:11.251744,599617593762540901,24.00
2025-11-18 14:17:11.251744,599617593762540901,19.00
2025-11-18 14:17:11.251744,599617593762540901,16.00
2025-11-18 14:17:11.251744,599617593762540901,12.00
2025-11-18 14:17:11.251744,599617593762540901,7.00
2025-11-18 14:17:11.761902,599617594323227768,9.00
2025-11-18 14:17:11.761902,599617594323227768,9.00
2025-11-18 14:17:11.761902,599617594323227768,7.00
2025-11-18 14:17:11.761902,599617594323227768,4.00
2025-11-18 14:17:11.761902,599617594323227768,2.00
2025-11-18 14:17:11.761902,599617594323227768,2.00
2025-11-18 14:17:11.761902,599617594323227768,2.00
2025-11-18 14:17:11.761902,599617594323227768,2.00
2025-11-18 14:17:11.761902,599617594323227768,0.00
2025-11-18 14:17:11.761902,599617594323227768,2.00
2025-11-18 14:17:11.761902,599617594323227768,4.00
2025-11-18 14:17:11.761902,599617594323227768,4.00
2025-11-18 14:17:11.761902,599617594323227768,2.00
2025-11-18 14:17:11.761902,599617594323227768,2.00
2025-11-18 14:17:11.761902,599617594323227768,4.00
2025-11-18 14:17:11.761902,599617594323227768,4.00
2025-11-18 14:17:11.761902,599617594323227768,0.00
2025-11-18 14:17:11.761902,599617594323227768,-7.00
2025-11-18 14:17:11.761902,599617594323227768,-14.00
2025-11-18 14:17:11.761902,599617594323227768,-26.00
2025-11-18 14:17:11.761902,599617594323227768,-31.00
2025-11-18 14:17:11.761902,599617594323227768,-31.00
2025-11-18 14:17:11.761902,599617594323227768,-26.00
2025-11-18 14:17:11.761902,599617594323227768,-19.00
2025-11-18 14:17:11.761902,599617594323227768,-16.00
2025-11-18 14:17:11.761902,599617594323227768,-24.00
2025-11-18 14:17:11.761902,599617594323227768,-29.00
2025-11-18 14:17:11.761902,599617594323227768,-26.00
2025-11-18 14:17:11.761902,599617594323227768,-14.00
2025-11-18 14:17:11.761902,599617594323227768,-7.00
2025-11-18 14:17:11.761902,599617594323227768,-7.00
2025-11-18 14:17:11.761902,599617594323227768,-4.00
2025-11-18 14:17:11.761902,599617594323227768,0.00
2025-11-18 14:17:11.761902,599617594323227768,0.00
2025-11-18 14:17:11.761902,599617594323227768,-7.00
2025-11-18 14:17:11.761902,599617594323227768,-14.00
2025-11-18 14:17:11.761902,599617594323227768,-16.00
2025-11-18 14:17:11.761902,599617594323227768,-43.00
2025-11-18 14:17:11.761902,599617594323227768,-135.00
2025-11-18 14:17:11.761902,599617594323227768,-222.00
2025-11-18 14:17:11.761902,599617594323227768,-77.00
2025-11-18 14:17:11.761902,599617594323227768,484.00
2025-11-18 14:17:11.761902,599617594323227768,1290.00
2025-11-18 14:17:11.761902,599617594323227768,1597.00
2025-11-18 14:17:11.761902,599617594323227768,1036.00
2025-11-18 14:17:11.761902,599617594323227768,305.00
2025-11-18 14:17:11.761902,599617594323227768,-50.00
2025-11-18 14:17:11.761902,599617594323227768,-225.00
2025-11-18 14:17:11.761902,599617594323227768,-338.00
2025-11-18 14:17:11.761902,599617594323227768,-338.00
2025-11-18 14:17:11.761902,599617594323227768,-322.00
2025-11-18 14:17:11.761902,599617594323227768,-343.00
2025-11-18 14:17:11.761902,599617594323227768,-341.00
2025-11-18 14:17:11.761902,599617594323227768,-319.00
2025-11-18 14:17:11.761902,599617594323227768,-319.00
2025-11-18 14:17:11.761902,599617594323227768,-324.00
2025-11-18 14:17:11.761902,599617594323227768,-319.00
2025-11-18 14:17:11.761902,599617594323227768,-319.00
2025-11-18 14:17:11.761902,599617594323227768,-326.00
2025-11-18 14:17:11.761902,599617594323227768,-334.00
2025-11-18 14:17:11.761902,599617594323227768,-341.00
2025-11-18 14:17:11.761902,599617594323227768,-353.00
2025-11-18 14:17:11.761902,599617594323227768,-372.00
2025-11-18 14:17:11.761902,599617594323227768,-397.00
2025-11-18 14:17:11.761902,599617594323227768,-423.00
2025-11-18 14:17:11.761902,599617594323227768,-447.00
2025-11-18 14:17:11.761902,599617594323227768,-472.00
2025-11-18 14:17:11.761902,599617594323227768,-498.00
2025-11-18 14:17:11.761902,599617594323227768,-520.00
2025-11-18 14:17:11.761902,599617594323227768,-527.00
2025-11-18 14:17:11.761902,599617594323227768,-522.00
2025-11-18 14:17:11.761902,599617594323227768,-493.00
2025-11-18 14:17:11.761902,599617594323227768,-428.00
2025-11-18 14:17:12.299966,599617594883904465,-341.00
2025-11-18 14:17:12.299966,599617594883904465,-256.00
2025-11-18 14:17:12.299966,599617594883904465,-169.00
2025-11-18 14:17:12.299966,599617594883904465,-77.00
2025-11-18 14:17:12.299966,599617594883904465,4.00
2025-11-18 14:17:12.299966,599617594883904465,67.00
2025-11-18 14:17:12.299966,599617594883904465,113.00
2025-11-18 14:17:12.299966,599617594883904465,145.00
2025-11-18 14:17:12.299966,599617594883904465,164.00
2025-11-18 14:17:12.299966,599617594883904465,171.00
2025-11-18 14:17:12.299966,599617594883904465,164.00
2025-11-18 14:17:12.299966,599617594883904465,154.00
2025-11-18 14:17:12.299966,599617594883904465,150.00
2025-11-18 14:17:12.299966,599617594883904465,145.00
2025-11-18 14:17:12.299966,599617594883904465,135.00
2025-11-18 14:17:12.299966,599617594883904465,123.00
2025-11-18 14:17:12.299966,599617594883904465,113.00
2025-11-18 14:17:12.299966,599617594883904465,101.00
2025-11-18 14:17:12.299966,599617594883904465,89.00
2025-11-18 14:17:12.299966,599617594883904465,84.00
2025-11-18 14:17:12.299966,599617594883904465,77.00
2025-11-18 14:17:12.299966,599617594883904465,67.00
2025-11-18 14:17:12.299966,599617594883904465,60.00
2025-11-18 14:17:12.299966,599617594883904465,58.00
2025-11-18 14:17:12.299966,599617594883904465,55.00
2025-11-18 14:17:12.299966,599617594883904465,48.00
2025-11-18 14:17:12.299966,599617594883904465,41.00
2025-11-18 14:17:12.299966,599617594883904465,43.00
2025-11-18 14:17:12.299966,599617594883904465,43.00
2025-11-18 14:17:12.299966,599617594883904465,41.00
2025-11-18 14:17:12.299966,599617594883904465,38.00
2025-11-18 14:17:12.299966,599617594883904465,41.00
2025-11-18 14:17:12.299966,599617594883904465,41.00
2025-11-18 14:17:12.299966,599617594883904465,36.00
2025-11-18 14:17:12.299966,599617594883904465,36.00
2025-11-18 14:17:12.299966,599617594883904465,41.00
2025-11-18 14:17:12.299966,599617594883904465,41.00
2025-11-18 14:17:12.299966,599617594883904465,36.00
2025-11-18 14:17:12.299966,599617594883904465,33.00
2025-11-18 14:17:12.299966,599617594883904465,31.00
2025-11-18 14:17:12.299966,599617594883904465,31.00
2025-11-18 14:17:12.299966,599617594883904465,31.00
2025-11-18 14:17:12.299966,599617594883904465,31.00
2025-11-18 14:17:12.299966,599617594883904465,29.00
2025-11-18 14:17:12.299966,599617594883904465,21.00
2025-11-18 14:17:12.299966,599617594883904465,21.00
2025-11-18 14:17:12.299966,599617594883904465,19.00
2025-11-18 14:17:12.299966,599617594883904465,14.00
2025-11-18 14:17:12.299966,599617594883904465,12.00
2025-11-18 14:17:12.299966,599617594883904465,12.00
2025-11-18 14:17:12.299966,599617594883904465,14.00
2025-11-18 14:17:12.299966,599617594883904465,14.00
2025-11-18 14:17:12.299966,599617594883904465,9.00
2025-11-18 14:17:12.299966,599617594883904465,4.00
2025-11-18 14:17:12.299966,599617594883904465,4.00
2025-11-18 14:17:12.299966,599617594883904465,2.00
2025-11-18 14:17:12.299966,599617594883904465,2.00
2025-11-18 14:17:12.299966,599617594883904465,2.00
2025-11-18 14:17:12.299966,599617594883904465,0.00
2025-11-18 14:17:12.299966,599617594883904465,-4.00
2025-11-18 14:17:12.299966,599617594883904465,-2.00
2025-11-18 14:17:12.299966,599617594883904465,-2.00
2025-11-18 14:17:12.299966,599617594883904465,-2.00
2025-11-18 14:17:12.299966,599617594883904465,-4.00
2025-11-18 14:17:12.299966,599617594883904465,-9.00
2025-11-18 14:17:12.299966,599617594883904465,-7.00
2025-11-18 14:17:12.299966,599617594883904465,-4.00
2025-11-18 14:17:12.299966,599617594883904465,-7.00
2025-11-18 14:17:12.299966,599617594883904465,-9.00
2025-11-18 14:17:12.299966,599617594883904465,-12.00
2025-11-18 14:17:12.299966,599617594883904465,-12.00
2025-11-18 14:17:12.299966,599617594883904465,-12.00
2025-11-18 14:17:12.299966,599617594883904465,-14.00
2025-11-18 14:17:12.871390,599617595444601506,-19.00
2025-11-18 14:17:12.871390,599617595444601506,-31.00
2025-11-18 14:17:12.871390,599617595444601506,-43.00
2025-11-18 14:17:12.871390,599617595444601506,-43.00
2025-11-18 14:17:12.871390,599617595444601506,-36.00
2025-11-18 14:17:12.871390,599617595444601506,-24.00
2025-11-18 14:17:12.871390,599617595444601506,-14.00
2025-11-18 14:17:12.871390,599617595444601506,-21.00
2025-11-18 14:17:12.871390,599617595444601506,-31.00
2025-11-18 14:17:12.871390,599617595444601506,-33.00
2025-11-18 14:17:12.871390,599617595444601506,-26.00
2025-11-18 14:17:12.871390,599617595444601506,-16.00
2025-11-18 14:17:12.871390,599617595444601506,-9.00
2025-11-18 14:17:12.871390,599617595444601506,-7.00
2025-11-18 14:17:12.871390,599617595444601506,-2.00
2025-11-18 14:17:12.871390,599617595444601506,-2.00
2025-11-18 14:17:12.871390,599617595444601506,-4.00
2025-11-18 14:17:12.871390,599617595444601506,-9.00
2025-11-18 14:17:12.871390,599617595444601506,-9.00
2025-11-18 14:17:12.871390,599617595444601506,-19.00
2025-11-18 14:17:12.871390,599617595444601506,-75.00
2025-11-18 14:17:12.871390,599617595444601506,-188.00
2025-11-18 14:17:12.871390,599617595444601506,-193.00
2025-11-18 14:17:12.871390,599617595444601506,150.00
2025-11-18 14:17:12.871390,599617595444601506,898.00
2025-11-18 14:17:12.871390,599617595444601506,1559.00
2025-11-18 14:17:12.871390,599617595444601506,1396.00
2025-11-18 14:17:12.871390,599617595444601506,631.00
2025-11-18 14:17:12.871390,599617595444601506,87.00
2025-11-18 14:17:12.871390,599617595444601506,-135.00
2025-11-18 14:17:12.871390,599617595444601506,-290.00
2025-11-18 14:17:12.871390,599617595444601506,-351.00
2025-11-18 14:17:12.871390,599617595444601506,-326.00
2025-11-18 14:17:12.871390,599617595444601506,-329.00
2025-11-18 14:17:12.871390,599617595444601506,-343.00
2025-11-18 14:17:12.871390,599617595444601506,-329.00
2025-11-18 14:17:12.871390,599617595444601506,-319.00
2025-11-18 14:17:12.871390,599617595444601506,-322.00
2025-11-18 14:17:12.871390,599617595444601506,-319.00
2025-11-18 14:17:12.871390,599617595444601506,-314.00
2025-11-18 14:17:12.871390,599617595444601506,-317.00
2025-11-18 14:17:12.871390,599617595444601506,-324.00
2025-11-18 14:17:12.871390,599617595444601506,-334.00
2025-11-18 14:17:12.871390,599617595444601506,-346.00
2025-11-18 14:17:12.871390,599617595444601506,-360.00
2025-11-18 14:17:12.871390,599617595444601506,-377.00
2025-11-18 14:17:12.871390,599617595444601506,-401.00
2025-11-18 14:17:12.871390,599617595444601506,-428.00
2025-11-18 14:17:12.871390,599617595444601506,-457.00
2025-11-18 14:17:12.871390,599617595444601506,-484.00
2025-11-18 14:17:12.871390,599617595444601506,-508.00
2025-11-18 14:17:12.871390,599617595444601506,-522.00
2025-11-18 14:17:12.871390,599617595444601506,-525.00
2025-11-18 14:17:12.871390,599617595444601506,-506.00
2025-11-18 14:17:12.871390,599617595444601506,-464.00
2025-11-18 14:17:12.871390,599617595444601506,-394.00
2025-11-18 14:17:12.871390,599617595444601506,-309.00
2025-11-18 14:17:12.871390,599617595444601506,-220.00
2025-11-18 14:17:12.871390,599617595444601506,-130.00
2025-11-18 14:17:12.871390,599617595444601506,-46.00
2025-11-18 14:17:12.871390,599617595444601506,29.00
2025-11-18 14:17:12.871390,599617595444601506,82.00
2025-11-18 14:17:12.871390,599617595444601506,121.00
2025-11-18 14:17:12.871390,599617595444601506,145.00
2025-11-18 14:17:12.871390,599617595444601506,157.00
2025-11-18 14:17:12.871390,599617595444601506,162.00
2025-11-18 14:17:12.871390,599617595444601506,154.00
2025-11-18 14:17:12.871390,599617595444601506,142.00
2025-11-18 14:17:12.871390,599617595444601506,135.00
2025-11-18 14:17:12.871390,599617595444601506,128.00
2025-11-18 14:17:12.871390,599617595444601506,121.00
2025-11-18 14:17:12.871390,599617595444601506,113.00
2025-11-18 14:17:12.871390,599617595444601506,101.00
2025-11-18 14:17:13.502707,599617596005298549,92.00
2025-11-18 14:17:13.502707,599617596005298549,87.00
2025-11-18 14:17:13.502707,599617596005298549,77.00
2025-11-18 14:17:13.502707,599617596005298549,67.00
2025-11-18 14:17:13.502707,599617596005298549,62.00
2025-11-18 14:17:13.502707,599617596005298549,60.00
2025-11-18 14:17:13.502707,599617596005298549,55.00
2025-11-18 14:17:13.502707,599617596005298549,50.00
2025-11-18 14:17:13.502707,599617596005298549,50.00
2025-11-18 14:17:13.502707,599617596005298549,48.00
2025-11-18 14:17:13.502707,599617596005298549,43.00
2025-11-18 14:17:13.502707,599617596005298549,43.00
2025-11-18 14:17:13.502707,599617596005298549,46.00
2025-11-18 14:17:13.502707,599617596005298549,46.00
2025-11-18 14:17:13.502707,599617596005298549,46.00
2025-11-18 14:17:13.502707,599617596005298549,46.00
2025-11-18 14:17:13.502707,599617596005298549,38.00
2025-11-18 14:17:13.502707,599617596005298549,36.00
2025-11-18 14:17:13.502707,599617596005298549,38.00
2025-11-18 14:17:13.502707,599617596005298549,38.00
2025-11-18 14:17:13.502707,599617596005298549,38.00
2025-11-18 14:17:13.502707,599617596005298549,41.00
2025-11-18 14:17:13.502707,599617596005298549,38.00
2025-11-18 14:17:13.502707,599617596005298549,33.00
2025-11-18 14:17:13.502707,599617596005298549,31.00
2025-11-18 14:17:13.502707,599617596005298549,29.00
2025-11-18 14:17:13.502707,599617596005298549,31.00
2025-11-18 14:17:13.502707,599617596005298549,29.00
2025-11-18 14:17:13.502707,599617596005298549,24.00
2025-11-18 14:17:13.502707,599617596005298549,24.00
2025-11-18 14:17:13.502707,599617596005298549,21.00
2025-11-18 14:17:13.502707,599617596005298549,16.00
2025-11-18 14:17:13.502707,599617596005298549,16.00
2025-11-18 14:17:13.502707,599617596005298549,16.00
2025-11-18 14:17:13.502707,599617596005298549,14.00
2025-11-18 14:17:13.502707,599617596005298549,12.00
2025-11-18 14:17:13.502707,599617596005298549,14.00
2025-11-18 14:17:13.502707,599617596005298549,12.00
2025-11-18 14:17:13.502707,599617596005298549,9.00
2025-11-18 14:17:13.502707,599617596005298549,7.00
2025-11-18 14:17:13.502707,599617596005298549,2.00
2025-11-18 14:17:13.502707,599617596005298549,0.00
2025-11-18 14:17:13.502707,599617596005298549,0.00
2025-11-18 14:17:13.502707,599617596005298549,0.00
2025-11-18 14:17:13.502707,599617596005298549,-2.00
2025-11-18 14:17:13.502707,599617596005298549,-2.00
2025-11-18 14:17:13.502707,599617596005298549,-2.00
2025-11-18 14:17:13.502707,599617596005298549,-2.00
2025-11-18 14:17:13.502707,599617596005298549,-4.00
2025-11-18 14:17:13.502707,599617596005298549,-7.00
2025-11-18 14:17:13.502707,599617596005298549,-7.00
2025-11-18 14:17:13.502707,599617596005298549,-7.00
2025-11-18 14:17:13.502707,599617596005298549,-7.00
2025-11-18 14:17:13.502707,599617596005298549,-9.00
2025-11-18 14:17:13.502707,599617596005298549,-9.00
2025-11-18 14:17:13.502707,599617596005298549,-12.00
2025-11-18 14:17:13.502707,599617596005298549,-21.00
2025-11-18 14:17:13.502707,599617596005298549,-31.00
2025-11-18 14:17:13.502707,599617596005298549,-36.00
2025-11-18 14:17:13.502707,599617596005298549,-36.00
2025-11-18 14:17:13.502707,599617596005298549,-36.00
2025-11-18 14:17:13.502707,599617596005298549,-21.00
2025-11-18 14:17:13.502707,599617596005298549,-12.00
2025-11-18 14:17:13.502707,599617596005298549,-19.00
2025-11-18 14:17:13.502707,599617596005298549,-29.00
2025-11-18 14:17:13.502707,599617596005298549,-31.00
2025-11-18 14:17:13.502707,599617596005298549,-26.00
2025-11-18 14:17:13.502707,599617596005298549,-12.00
2025-11-18 14:17:13.502707,599617596005298549,-2.00
2025-11-18 14:17:13.502707,599617596005298549,-2.00
2025-11-18 14:17:13.502707,599617596005298549,2.00
2025-11-18 14:17:13.502707,599617596005298549,0.00
2025-11-18 14:17:13.502707,599617596005298549,-2.00
2025-11-18 14:17:14.012273,599617596565995590,-2.00
2025-11-18 14:17:14.012273,599617596565995590,-9.00
2025-11-18 14:17:14.012273,599617596565995590,-33.00
2025-11-18 14:17:14.012273,599617596565995590,-106.00
2025-11-18 14:17:14.012273,599617596565995590,-217.00
2025-11-18 14:17:14.012273,599617596565995590,-179.00
2025-11-18 14:17:14.012273,599617596565995590,256.00
2025-11-18 14:17:14.012273,599617596565995590,1074.00
2025-11-18 14:17:14.012273,599617596565995590,1631.00
2025-11-18 14:17:14.012273,599617596565995590,1268.00
2025-11-18 14:17:14.012273,599617596565995590,472.00
2025-11-18 14:17:14.012273,599617596565995590,12.00
2025-11-18 14:17:14.012273,599617596565995590,-179.00
2025-11-18 14:17:14.012273,599617596565995590,-317.00
2025-11-18 14:17:14.012273,599617596565995590,-343.00
2025-11-18 14:17:14.012273,599617596565995590,-317.00
2025-11-18 14:17:14.012273,599617596565995590,-331.00
2025-11-18 14:17:14.012273,599617596565995590,-338.00
2025-11-18 14:17:14.012273,599617596565995590,-324.00
2025-11-18 14:17:14.012273,599617596565995590,-319.00
2025-11-18 14:17:14.012273,599617596565995590,-322.00
2025-11-18 14:17:14.012273,599617596565995590,-317.00
2025-11-18 14:17:14.012273,599617596565995590,-314.00
2025-11-18 14:17:14.012273,599617596565995590,-317.00
2025-11-18 14:17:14.012273,599617596565995590,-324.00
2025-11-18 14:17:14.012273,599617596565995590,-334.00
2025-11-18 14:17:14.012273,599617596565995590,-348.00
2025-11-18 14:17:14.012273,599617596565995590,-363.00
2025-11-18 14:17:14.012273,599617596565995590,-382.00
2025-11-18 14:17:14.012273,599617596565995590,-404.00
2025-11-18 14:17:14.012273,599617596565995590,-428.00
2025-11-18 14:17:14.012273,599617596565995590,-455.00
2025-11-18 14:17:14.012273,599617596565995590,-484.00
2025-11-18 14:17:14.012273,599617596565995590,-508.00
2025-11-18 14:17:14.012273,599617596565995590,-518.00
2025-11-18 14:17:14.012273,599617596565995590,-518.00
2025-11-18 14:17:14.012273,599617596565995590,-493.00
2025-11-18 14:17:14.012273,599617596565995590,-445.00
2025-11-18 14:17:14.012273,599617596565995590,-372.00
2025-11-18 14:17:14.012273,599617596565995590,-290.00
2025-11-18 14:17:14.012273,599617596565995590,-205.00
2025-11-18 14:17:14.012273,599617596565995590,-118.00
2025-11-18 14:17:14.012273,599617596565995590,-33.00
2025-11-18 14:17:14.012273,599617596565995590,38.00
2025-11-18 14:17:14.012273,599617596565995590,89.00
2025-11-18 14:17:14.012273,599617596565995590,123.00
2025-11-18 14:17:14.012273,599617596565995590,145.00
2025-11-18 14:17:14.012273,599617596565995590,154.00
2025-11-18 14:17:14.012273,599617596565995590,154.00
2025-11-18 14:17:14.012273,599617596565995590,152.00
2025-11-18 14:17:14.012273,599617596565995590,145.00
2025-11-18 14:17:14.012273,599617596565995590,138.00
2025-11-18 14:17:14.012273,599617596565995590,128.00
2025-11-18 14:17:14.012273,599617596565995590,118.00
2025-11-18 14:17:14.012273,599617596565995590,104.00
2025-11-18 14:17:14.012273,599617596565995590,96.00
2025-11-18 14:17:14.012273,599617596565995590,87.00
2025-11-18 14:17:14.012273,599617596565995590,77.00
2025-11-18 14:17:14.012273,599617596565995590,70.00
2025-11-18 14:17:14.012273,599617596565995590,62.00
2025-11-18 14:17:14.012273,599617596565995590,55.00
2025-11-18 14:17:14.012273,599617596565995590,55.00
2025-11-18 14:17:14.012273,599617596565995590,55.00
2025-11-18 14:17:14.012273,599617596565995590,48.00
2025-11-18 14:17:14.012273,599617596565995590,41.00
2025-11-18 14:17:14.012273,599617596565995590,38.00
2025-11-18 14:17:14.012273,599617596565995590,38.00
2025-11-18 14:17:14.012273,599617596565995590,38.00
2025-11-18 14:17:14.012273,599617596565995590,41.00
2025-11-18 14:17:14.012273,599617596565995590,38.00
2025-11-18 14:17:14.012273,599617596565995590,36.00
2025-11-18 14:17:14.012273,599617596565995590,36.00
2025-11-18 14:17:14.012273,599617596565995590,36.00
2025-11-18 14:17:14.586562,599617597126692631,33.00
2025-11-18 14:17:14.586562,599617597126692631,29.00
2025-11-18 14:17:14.586562,599617597126692631,26.00
2025-11-18 14:17:14.586562,599617597126692631,29.00
2025-11-18 14:17:14.586562,599617597126692631,29.00
2025-11-18 14:17:14.586562,599617597126692631,26.00
2025-11-18 14:17:14.586562,599617597126692631,24.00
2025-11-18 14:17:14.586562,599617597126692631,26.00
2025-11-18 14:17:14.586562,599617597126692631,29.00
2025-11-18 14:17:14.586562,599617597126692631,26.00
2025-11-18 14:17:14.586562,599617597126692631,26.00
2025-11-18 14:17:14.586562,599617597126692631,26.00
2025-11-18 14:17:14.586562,599617597126692631,21.00
2025-11-18 14:17:14.586562,599617597126692631,16.00
2025-11-18 14:17:14.586562,599617597126692631,14.00
2025-11-18 14:17:14.586562,599617597126692631,14.00
2025-11-18 14:17:14.586562,599617597126692631,14.00
2025-11-18 14:17:14.586562,599617597126692631,14.00
2025-11-18 14:17:14.586562,599617597126692631,9.00
2025-11-18 14:17:14.586562,599617597126692631,7.00
2025-11-18 14:17:14.586562,599617597126692631,7.00
2025-11-18 14:17:14.586562,599617597126692631,4.00
2025-11-18 14:17:14.586562,599617597126692631,4.00
2025-11-18 14:17:14.586562,599617597126692631,7.00
2025-11-18 14:17:14.586562,599617597126692631,7.00
2025-11-18 14:17:14.586562,599617597126692631,2.00
2025-11-18 14:17:14.586562,599617597126692631,-2.00
2025-11-18 14:17:14.586562,599617597126692631,-2.00
2025-11-18 14:17:14.586562,599617597126692631,0.00
2025-11-18 14:17:14.586562,599617597126692631,2.00
2025-11-18 14:17:14.586562,599617597126692631,-2.00
2025-11-18 14:17:14.586562,599617597126692631,-7.00
2025-11-18 14:17:14.586562,599617597126692631,-2.00
2025-11-18 14:17:14.586562,599617597126692631,-4.00
2025-11-18 14:17:14.586562,599617597126692631,-7.00
2025-11-18 14:17:14.586562,599617597126692631,-4.00
2025-11-18 14:17:14.586562,599617597126692631,-7.00
2025-11-18 14:17:14.586562,599617597126692631,-19.00
2025-11-18 14:17:14.586562,599617597126692631,-26.00
2025-11-18 14:17:14.586562,599617597126692631,-26.00
2025-11-18 14:17:14.586562,599617597126692631,-33.00
2025-11-18 14:17:14.586562,599617597126692631,-41.00
2025-11-18 14:17:14.586562,599617597126692631,-26.00
2025-11-18 14:17:14.586562,599617597126692631,-16.00
2025-11-18 14:17:14.586562,599617597126692631,-26.00
2025-11-18 14:17:14.586562,599617597126692631,-31.00
2025-11-18 14:17:14.586562,599617597126692631,-26.00
2025-11-18 14:17:14.586562,599617597126692631,-14.00
2025-11-18 14:17:14.586562,599617597126692631,-7.00
2025-11-18 14:17:14.586562,599617597126692631,-4.00
2025-11-18 14:17:14.586562,599617597126692631,0.00
2025-11-18 14:17:14.586562,599617597126692631,0.00
2025-11-18 14:17:14.586562,599617597126692631,-2.00
2025-11-18 14:17:14.586562,599617597126692631,-7.00
2025-11-18 14:17:14.586562,599617597126692631,-12.00
2025-11-18 14:17:14.586562,599617597126692631,-19.00
2025-11-18 14:17:14.586562,599617597126692631,-50.00
2025-11-18 14:17:14.586562,599617597126692631,-154.00
2025-11-18 14:17:14.586562,599617597126692631,-242.00
2025-11-18 14:17:14.586562,599617597126692631,-53.00
2025-11-18 14:17:14.586562,599617597126692631,607.00
2025-11-18 14:17:14.586562,599617597126692631,1438.00
2025-11-18 14:17:14.586562,599617597126692631,1593.00
2025-11-18 14:17:14.586562,599617597126692631,898.00
2025-11-18 14:17:14.586562,599617597126692631,215.00
2025-11-18 14:17:14.586562,599617597126692631,-75.00
2025-11-18 14:17:14.586562,599617597126692631,-251.00
2025-11-18 14:17:14.586562,599617597126692631,-363.00
2025-11-18 14:17:14.586562,599617597126692631,-343.00
2025-11-18 14:17:14.586562,599617597126692631,-326.00
2025-11-18 14:17:14.586562,599617597126692631,-353.00
2025-11-18 14:17:14.586562,599617597126692631,-351.00
2025-11-18 14:17:14.586562,599617597126692631,-331.00
2025-11-18 14:17:15.181784,599617597687389672,-326.00
2025-11-18 14:17:15.181784,599617597687389672,-324.00
2025-11-18 14:17:15.181784,599617597687389672,-322.00
2025-11-18 14:17:15.181784,599617597687389672,-322.00
2025-11-18 14:17:15.181784,599617597687389672,-329.00
2025-11-18 14:17:15.181784,599617597687389672,-334.00
2025-11-18 14:17:15.181784,599617597687389672,-343.00
2025-11-18 14:17:15.181784,599617597687389672,-360.00
2025-11-18 14:17:15.181784,599617597687389672,-377.00
2025-11-18 14:17:15.181784,599617597687389672,-397.00
2025-11-18 14:17:15.181784,599617597687389672,-423.00
2025-11-18 14:17:15.181784,599617597687389672,-452.00
2025-11-18 14:17:15.181784,599617597687389672,-476.00
2025-11-18 14:17:15.181784,599617597687389672,-498.00
2025-11-18 14:17:15.181784,599617597687389672,-518.00
2025-11-18 14:17:15.181784,599617597687389672,-527.00
2025-11-18 14:17:15.181784,599617597687389672,-520.00
2025-11-18 14:17:15.181784,599617597687389672,-491.00
2025-11-18 14:17:15.181784,599617597687389672,-426.00
2025-11-18 14:17:15.181784,599617597687389672,-338.00
2025-11-18 14:17:15.181784,599617597687389672,-249.00
2025-11-18 14:17:15.181784,599617597687389672,-159.00
2025-11-18 14:17:15.181784,599617597687389672,-72.00
2025-11-18 14:17:15.181784,599617597687389672,4.00
2025-11-18 14:17:15.181784,599617597687389672,67.00
2025-11-18 14:17:15.181784,599617597687389672,113.00
2025-11-18 14:17:15.181784,599617597687389672,140.00
2025-11-18 14:17:15.181784,599617597687389672,154.00
2025-11-18 14:17:15.181784,599617597687389672,157.00
2025-11-18 14:17:15.181784,599617597687389672,154.00
2025-11-18 14:17:15.181784,599617597687389672,152.00
2025-11-18 14:17:15.181784,599617597687389672,145.00
2025-11-18 14:17:15.181784,599617597687389672,135.00
2025-11-18 14:17:15.181784,599617597687389672,121.00
2025-11-18 14:17:15.181784,599617597687389672,111.00
2025-11-18 14:17:15.181784,599617597687389672,108.00
2025-11-18 14:17:15.181784,599617597687389672,101.00
2025-11-18 14:17:15.181784,599617597687389672,87.00
2025-11-18 14:17:15.181784,599617597687389672,75.00
2025-11-18 14:17:15.181784,599617597687389672,67.00
2025-11-18 14:17:15.181784,599617597687389672,62.00
2025-11-18 14:17:15.181784,599617597687389672,58.00
2025-11-18 14:17:15.181784,599617597687389672,53.00
2025-11-18 14:17:15.181784,599617597687389672,50.00
2025-11-18 14:17:15.181784,599617597687389672,48.00
2025-11-18 14:17:15.181784,599617597687389672,43.00
2025-11-18 14:17:15.181784,599617597687389672,38.00
2025-11-18 14:17:15.181784,599617597687389672,41.00
2025-11-18 14:17:15.181784,599617597687389672,38.00
2025-11-18 14:17:15.181784,599617597687389672,33.00
2025-11-18 14:17:15.181784,599617597687389672,29.00
2025-11-18 14:17:15.181784,599617597687389672,33.00
2025-11-18 14:17:15.181784,599617597687389672,38.00
2025-11-18 14:17:15.181784,599617597687389672,33.00
2025-11-18 14:17:15.181784,599617597687389672,29.00
2025-11-18 14:17:15.181784,599617597687389672,31.00
2025-11-18 14:17:15.181784,599617597687389672,29.00
2025-11-18 14:17:15.181784,599617597687389672,24.00
2025-11-18 14:17:15.181784,599617597687389672,29.00
2025-11-18 14:17:15.181784,599617597687389672,31.00
2025-11-18 14:17:15.181784,599617597687389672,21.00
2025-11-18 14:17:15.181784,599617597687389672,16.00
2025-11-18 14:17:15.181784,599617597687389672,21.00
2025-11-18 14:17:15.181784,599617597687389672,21.00
2025-11-18 14:17:15.181784,599617597687389672,16.00
2025-11-18 14:17:15.181784,599617597687389672,19.00
2025-11-18 14:17:15.181784,599617597687389672,24.00
2025-11-18 14:17:15.181784,599617597687389672,21.00
2025-11-18 14:17:15.181784,599617597687389672,29.00
2025-11-18 14:17:15.181784,599617597687389672,29.00
2025-11-18 14:17:15.181784,599617597687389672,14.00
2025-11-18 14:17:15.181784,599617597687389672,7.00
2025-11-18 14:17:15.181784,599617597687389672,12.00
2025-11-18 14:17:15.692965,599617598248086713,12.00
2025-11-18 14:17:15.692965,599617598248086713,7.00
2025-11-18 14:17:15.692965,599617598248086713,4.00
2025-11-18 14:17:15.692965,599617598248086713,4.00
2025-11-18 14:17:15.692965,599617598248086713,7.00
2025-11-18 14:17:15.692965,599617598248086713,7.00
2025-11-18 14:17:15.692965,599617598248086713,2.00
2025-11-18 14:17:15.692965,599617598248086713,0.00
2025-11-18 14:17:15.692965,599617598248086713,4.00
2025-11-18 14:17:15.692965,599617598248086713,4.00
2025-11-18 14:17:15.692965,599617598248086713,-4.00
2025-11-18 14:17:15.692965,599617598248086713,-9.00
2025-11-18 14:17:15.692965,599617598248086713,-14.00
2025-11-18 14:17:15.692965,599617598248086713,-26.00
2025-11-18 14:17:15.692965,599617598248086713,-29.00
2025-11-18 14:17:15.692965,599617598248086713,-19.00
2025-11-18 14:17:15.692965,599617598248086713,-9.00
2025-11-18 14:17:15.692965,599617598248086713,-7.00
2025-11-18 14:17:15.692965,599617598248086713,-12.00
2025-11-18 14:17:15.692965,599617598248086713,-21.00
2025-11-18 14:17:15.692965,599617598248086713,-14.00
2025-11-18 14:17:15.692965,599617598248086713,-2.00
2025-11-18 14:17:15.692965,599617598248086713,4.00
2025-11-18 14:17:15.692965,599617598248086713,9.00
2025-11-18 14:17:15.692965,599617598248086713,19.00
2025-11-18 14:17:15.692965,599617598248086713,19.00
2025-11-18 14:17:15.692965,599617598248086713,7.00
2025-11-18 14:17:15.692965,599617598248086713,4.00
2025-11-18 14:17:15.692965,599617598248086713,7.00
2025-11-18 14:17:15.692965,599617598248086713,-2.00
2025-11-18 14:17:15.692965,599617598248086713,-36.00
2025-11-18 14:17:15.692965,599617598248086713,-133.00
2025-11-18 14:17:15.692965,599617598248086713,-259.00
2025-11-18 14:17:15.692965,599617598248086713,-164.00
2025-11-18 14:17:15.692965,599617598248086713,392.00
2025-11-18 14:17:15.692965,599617598248086713,1239.00
2025-11-18 14:17:15.692965,599617598248086713,1585.00
2025-11-18 14:17:15.692965,599617598248086713,1038.00
2025-11-18 14:17:15.692965,599617598248086713,329.00
2025-11-18 14:17:15.692965,599617598248086713,-2.00
2025-11-18 14:17:15.692965,599617598248086713,-179.00
2025-11-18 14:17:15.692965,599617598248086713,-317.00
2025-11-18 14:17:15.692965,599617598248086713,-329.00
2025-11-18 14:17:15.692965,599617598248086713,-302.00
2025-11-18 14:17:15.692965,599617598248086713,-324.00
2025-11-18 14:17:15.692965,599617598248086713,-334.00
2025-11-18 14:17:15.692965,599617598248086713,-312.00
2025-11-18 14:17:15.692965,599617598248086713,-307.00
2025-11-18 14:17:15.692965,599617598248086713,-312.00
2025-11-18 14:17:15.692965,599617598248086713,-309.00
2025-11-18 14:17:15.692965,599617598248086713,-307.00
2025-11-18 14:17:15.692965,599617598248086713,-317.00
2025-11-18 14:17:15.692965,599617598248086713,-324.00
2025-11-18 14:17:15.692965,599617598248086713,-331.00
2025-11-18 14:17:15.692965,599617598248086713,-343.00
2025-11-18 14:17:15.692965,599617598248086713,-358.00
2025-11-18 14:17:15.692965,599617598248086713,-384.00
2025-11-18 14:17:15.692965,599617598248086713,-416.00
2025-11-18 14:17:15.692965,599617598248086713,-435.00
2025-11-18 14:17:15.692965,599617598248086713,-457.00
2025-11-18 14:17:15.692965,599617598248086713,-489.00
2025-11-18 14:17:15.692965,599617598248086713,-513.00
2025-11-18 14:17:15.692965,599617598248086713,-520.00
2025-11-18 14:17:15.692965,599617598248086713,-515.00
2025-11-18 14:17:15.692965,599617598248086713,-489.00
2025-11-18 14:17:15.692965,599617598248086713,-430.00
2025-11-18 14:17:15.692965,599617598248086713,-348.00
2025-11-18 14:17:15.692965,599617598248086713,-254.00
2025-11-18 14:17:15.692965,599617598248086713,-162.00
2025-11-18 14:17:15.692965,599617598248086713,-75.00
2025-11-18 14:17:15.692965,599617598248086713,4.00
2025-11-18 14:17:15.692965,599617598248086713,70.00
2025-11-18 14:17:15.692965,599617598248086713,116.00
2025-11-18 14:17:16.230029,599617598808783752,142.00
2025-11-18 14:17:16.230029,599617598808783752,157.00
2025-11-18 14:17:16.230029,599617598808783752,167.00
2025-11-18 14:17:16.230029,599617598808783752,159.00
2025-11-18 14:17:16.230029,599617598808783752,152.00
2025-11-18 14:17:16.230029,599617598808783752,147.00
2025-11-18 14:17:16.230029,599617598808783752,135.00
2025-11-18 14:17:16.230029,599617598808783752,125.00
2025-11-18 14:17:16.230029,599617598808783752,118.00
2025-11-18 14:17:16.230029,599617598808783752,106.00
2025-11-18 14:17:16.230029,599617598808783752,96.00
2025-11-18 14:17:16.230029,599617598808783752,89.00
2025-11-18 14:17:16.230029,599617598808783752,77.00
2025-11-18 14:17:16.230029,599617598808783752,72.00
2025-11-18 14:17:16.230029,599617598808783752,72.00
2025-11-18 14:17:16.230029,599617598808783752,65.00
2025-11-18 14:17:16.230029,599617598808783752,58.00
2025-11-18 14:17:16.230029,599617598808783752,50.00
2025-11-18 14:17:16.230029,599617598808783752,46.00
2025-11-18 14:17:16.230029,599617598808783752,43.00
2025-11-18 14:17:16.230029,599617598808783752,36.00
2025-11-18 14:17:16.230029,599617598808783752,26.00
2025-11-18 14:17:16.230029,599617598808783752,26.00
2025-11-18 14:17:16.230029,599617598808783752,33.00
2025-11-18 14:17:16.230029,599617598808783752,33.00
2025-11-18 14:17:16.230029,599617598808783752,33.00
2025-11-18 14:17:16.230029,599617598808783752,33.00
2025-11-18 14:17:16.230029,599617598808783752,33.00
2025-11-18 14:17:16.230029,599617598808783752,36.00
2025-11-18 14:17:16.230029,599617598808783752,33.00
2025-11-18 14:17:16.230029,599617598808783752,26.00
2025-11-18 14:17:16.230029,599617598808783752,26.00
2025-11-18 14:17:16.230029,599617598808783752,24.00
2025-11-18 14:17:16.230029,599617598808783752,21.00
2025-11-18 14:17:16.230029,599617598808783752,24.00
2025-11-18 14:17:16.230029,599617598808783752,21.00
2025-11-18 14:17:16.230029,599617598808783752,12.00
2025-11-18 14:17:16.230029,599617598808783752,12.00
2025-11-18 14:17:16.230029,599617598808783752,16.00
2025-11-18 14:17:16.230029,599617598808783752,14.00
2025-11-18 14:17:16.230029,599617598808783752,14.00
2025-11-18 14:17:16.230029,599617598808783752,14.00
2025-11-18 14:17:16.230029,599617598808783752,9.00
2025-11-18 14:17:16.230029,599617598808783752,7.00
2025-11-18 14:17:16.230029,599617598808783752,12.00
2025-11-18 14:17:16.230029,599617598808783752,12.00
2025-11-18 14:17:16.230029,599617598808783752,7.00
2025-11-18 14:17:16.230029,599617598808783752,4.00
2025-11-18 14:17:16.230029,599617598808783752,4.00
2025-11-18 14:17:16.230029,599617598808783752,4.00
2025-11-18 14:17:16.230029,599617598808783752,9.00
2025-11-18 14:17:16.230029,599617598808783752,9.00
2025-11-18 14:17:16.230029,599617598808783752,4.00
2025-11-18 14:17:16.230029,599617598808783752,4.00
2025-11-18 14:17:16.230029,599617598808783752,4.00
2025-11-18 14:17:16.230029,599617598808783752,4.00
2025-11-18 14:17:16.230029,599617598808783752,-4.00
2025-11-18 14:17:16.230029,599617598808783752,-19.00
2025-11-18 14:17:16.230029,599617598808783752,-24.00
2025-11-18 14:17:16.230029,599617598808783752,-24.00
2025-11-18 14:17:16.230029,599617598808783752,-21.00
2025-11-18 14:17:16.230029,599617598808783752,-12.00
2025-11-18 14:17:16.230029,599617598808783752,-4.00
2025-11-18 14:17:16.230029,599617598808783752,-16.00
2025-11-18 14:17:16.230029,599617598808783752,-26.00
2025-11-18 14:17:16.230029,599617598808783752,-19.00
2025-11-18 14:17:16.230029,599617598808783752,-4.00
2025-11-18 14:17:16.230029,599617598808783752,4.00
2025-11-18 14:17:16.230029,599617598808783752,7.00
2025-11-18 14:17:16.230029,599617598808783752,12.00
2025-11-18 14:17:16.230029,599617598808783752,16.00
2025-11-18 14:17:16.230029,599617598808783752,7.00
2025-11-18 14:17:16.230029,599617598808783752,0.00
2025-11-18 14:17:16.862959,599617599369450279,-2.00
2025-11-18 14:17:16.862959,599617599369450279,-9.00
2025-11-18 14:17:16.862959,599617599369450279,-48.00
2025-11-18 14:17:16.862959,599617599369450279,-145.00
2025-11-18 14:17:16.862959,599617599369450279,-225.00
2025-11-18 14:17:16.862959,599617599369450279,-38.00
2025-11-18 14:17:16.862959,599617599369450279,598.00
2025-11-18 14:17:16.862959,599617599369450279,1411.00
2025-11-18 14:17:16.862959,599617599369450279,1602.00
2025-11-18 14:17:16.862959,599617599369450279,958.00
2025-11-18 14:17:16.862959,599617599369450279,263.00
2025-11-18 14:17:16.862959,599617599369450279,-53.00
2025-11-18 14:17:16.862959,599617599369450279,-232.00
2025-11-18 14:17:16.862959,599617599369450279,-346.00
2025-11-18 14:17:16.862959,599617599369450279,-343.00
2025-11-18 14:17:16.862959,599617599369450279,-326.00
2025-11-18 14:17:16.862959,599617599369450279,-338.00
2025-11-18 14:17:16.862959,599617599369450279,-336.00
2025-11-18 14:17:16.862959,599617599369450279,-324.00
2025-11-18 14:17:16.862959,599617599369450279,-324.00
2025-11-18 14:17:16.862959,599617599369450279,-324.00
2025-11-18 14:17:16.862959,599617599369450279,-319.00
2025-11-18 14:17:16.862959,599617599369450279,-324.00
2025-11-18 14:17:16.862959,599617599369450279,-331.00
2025-11-18 14:17:16.862959,599617599369450279,-338.00
2025-11-18 14:17:16.862959,599617599369450279,-348.00
2025-11-18 14:17:16.862959,599617599369450279,-363.00
2025-11-18 14:17:16.862959,599617599369450279,-375.00
2025-11-18 14:17:16.862959,599617599369450279,-394.00
2025-11-18 14:17:16.862959,599617599369450279,-423.00
2025-11-18 14:17:16.862959,599617599369450279,-452.00
2025-11-18 14:17:16.862959,599617599369450279,-481.00
2025-11-18 14:17:16.862959,599617599369450279,-508.00
2025-11-18 14:17:16.862959,599617599369450279,-527.00
2025-11-18 14:17:16.862959,599617599369450279,-532.00
2025-11-18 14:17:16.862959,599617599369450279,-520.00
2025-11-18 14:17:16.862959,599617599369450279,-484.00
2025-11-18 14:17:16.862959,599617599369450279,-423.00
2025-11-18 14:17:16.862959,599617599369450279,-343.00
2025-11-18 14:17:16.862959,599617599369450279,-249.00
2025-11-18 14:17:16.862959,599617599369450279,-154.00
2025-11-18 14:17:16.862959,599617599369450279,-67.00
2025-11-18 14:17:16.862959,599617599369450279,9.00
2025-11-18 14:17:16.862959,599617599369450279,75.00
2025-11-18 14:17:16.862959,599617599369450279,123.00
2025-11-18 14:17:16.862959,599617599369450279,147.00
2025-11-18 14:17:16.862959,599617599369450279,162.00
2025-11-18 14:17:16.862959,599617599369450279,171.00
2025-11-18 14:17:16.862959,599617599369450279,167.00
2025-11-18 14:17:16.862959,599617599369450279,159.00
2025-11-18 14:17:16.862959,599617599369450279,152.00
2025-11-18 14:17:16.862959,599617599369450279,142.00
2025-11-18 14:17:16.862959,599617599369450279,133.00
2025-11-18 14:17:16.862959,599617599369450279,125.00
2025-11-18 14:17:16.862959,599617599369450279,116.00
2025-11-18 14:17:16.862959,599617599369450279,104.00
2025-11-18 14:17:16.862959,599617599369450279,96.00
2025-11-18 14:17:16.862959,599617599369450279,92.00
2025-11-18 14:17:16.862959,599617599369450279,82.00
2025-11-18 14:17:16.862959,599617599369450279,72.00
2025-11-18 14:17:16.862959,599617599369450279,65.00
2025-11-18 14:17:16.862959,599617599369450279,60.00
2025-11-18 14:17:16.862959,599617599369450279,58.00
2025-11-18 14:17:16.862959,599617599369450279,53.00
2025-11-18 14:17:16.862959,599617599369450279,55.00
2025-11-18 14:17:16.862959,599617599369450279,53.00
2025-11-18 14:17:16.862959,599617599369450279,43.00
2025-11-18 14:17:16.862959,599617599369450279,38.00
2025-11-18 14:17:16.862959,599617599369450279,41.00
2025-11-18 14:17:16.862959,599617599369450279,41.00
2025-11-18 14:17:16.862959,599617599369450279,38.00
2025-11-18 14:17:16.862959,599617599369450279,41.00
2025-11-18 14:17:16.862959,599617599369450279,41.00
2025-11-18 14:17:17.371532,599617599930147320,33.00
2025-11-18 14:17:17.371532,599617599930147320,29.00
2025-11-18 14:17:17.371532,599617599930147320,33.00
2025-11-18 14:17:17.371532,599617599930147320,33.00
2025-11-18 14:17:17.371532,599617599930147320,26.00
2025-11-18 14:17:17.371532,599617599930147320,29.00
2025-11-18 14:17:17.371532,599617599930147320,26.00
2025-11-18 14:17:17.371532,599617599930147320,21.00
2025-11-18 14:17:17.371532,599617599930147320,24.00
2025-11-18 14:17:17.371532,599617599930147320,29.00
2025-11-18 14:17:17.371532,599617599930147320,26.00
2025-11-18 14:17:17.371532,599617599930147320,16.00
2025-11-18 14:17:17.371532,599617599930147320,16.00
2025-11-18 14:17:17.371532,599617599930147320,19.00
2025-11-18 14:17:17.371532,599617599930147320,19.00
2025-11-18 14:17:17.371532,599617599930147320,19.00
2025-11-18 14:17:17.371532,599617599930147320,12.00
2025-11-18 14:17:17.371532,599617599930147320,-4.00
2025-11-18 14:17:17.371532,599617599930147320,-12.00
2025-11-18 14:17:17.371532,599617599930147320,-12.00
2025-11-18 14:17:17.371532,599617599930147320,-12.00
2025-11-18 14:17:17.371532,599617599930147320,-2.00
2025-11-18 14:17:17.371532,599617599930147320,9.00
2025-11-18 14:17:17.371532,599617599930147320,7.00
2025-11-18 14:17:17.371532,599617599930147320,-2.00
2025-11-18 14:17:17.371532,599617599930147320,-7.00
2025-11-18 14:17:17.371532,599617599930147320,-7.00
2025-11-18 14:17:17.371532,599617599930147320,4.00
2025-11-18 14:17:17.371532,599617599930147320,19.00
2025-11-18 14:17:17.371532,599617599930147320,21.00
2025-11-18 14:17:17.371532,599617599930147320,19.00
2025-11-18 14:17:17.371532,599617599930147320,14.00
2025-11-18 14:17:17.371532,599617599930147320,9.00
2025-11-18 14:17:17.371532,599617599930147320,4.00
2025-11-18 14:17:17.371532,599617599930147320,-2.00
2025-11-18 14:17:17.371532,599617599930147320,-36.00
2025-11-18 14:17:17.371532,599617599930147320,-133.00
2025-11-18 14:17:17.371532,599617599930147320,-220.00
2025-11-18 14:17:17.371532,599617599930147320,-55.00
2025-11-18 14:17:17.371532,599617599930147320,559.00
2025-11-18 14:17:17.371532,599617599930147320,1399.00
2025-11-18 14:17:17.371532,599617599930147320,1665.00
