Timestamp,Device Timestamp (ns),ECG Value (uV)
2025-11-18 14:07:41.582419,599617024103105573,14.00
2025-11-18 14:07:41.582419,599617024103105573,14.00
2025-11-18 14:07:41.582419,599617024103105573,19.00
2025-11-18 14:07:41.582419,599617024103105573,12.00
2025-11-18 14:07:41.582419,599617024103105573,4.00
2025-11-18 14:07:41.582419,599617024103105573,16.00
2025-11-18 14:07:41.582419,599617024103105573,29.00
2025-11-18 14:07:41.582419,599617024103105573,21.00
2025-11-18 14:07:41.582419,599617024103105573,12.00
2025-11-18 14:07:41.582419,599617024103105573,14.00
2025-11-18 14:07:41.582419,599617024103105573,9.00
2025-11-18 14:07:41.582419,599617024103105573,4.00
2025-11-18 14:07:41.582419,599617024103105573,4.00
2025-11-18 14:07:41.582419,599617024103105573,2.00
2025-11-18 14:07:41.582419,599617024103105573,-4.00
2025-11-18 14:07:41.582419,599617024103105573,-7.00
2025-11-18 14:07:41.582419,599617024103105573,-7.00
2025-11-18 14:07:41.582419,599617024103105573,-7.00
2025-11-18 14:07:41.582419,599617024103105573,-9.00
2025-11-18 14:07:41.582419,599617024103105573,-24.00
2025-11-18 14:07:41.582419,599617024103105573,-38.00
2025-11-18 14:07:41.582419,599617024103105573,-38.00
2025-11-18 14:07:41.582419,599617024103105573,-33.00
2025-11-18 14:07:41.582419,599617024103105573,-26.00
2025-11-18 14:07:41.582419,599617024103105573,-9.00
2025-11-18 14:07:41.582419,599617024103105573,2.00
2025-11-18 14:07:41.582419,599617024103105573,-9.00
2025-11-18 14:07:41.582419,599617024103105573,-21.00
2025-11-18 14:07:41.582419,599617024103105573,-24.00
2025-11-18 14:07:41.582419,599617024103105573,-29.00
2025-11-18 14:07:41.582419,599617024103105573,-36.00
2025-11-18 14:07:41.582419,599617024103105573,-14.00
2025-11-18 14:07:41.582419,599617024103105573,4.00
2025-11-18 14:07:41.582419,599617024103105573,-7.00
2025-11-18 14:07:41.582419,599617024103105573,4.00
2025-11-18 14:07:41.582419,599617024103105573,12.00
2025-11-18 14:07:41.582419,599617024103105573,-19.00
2025-11-18 14:07:41.582419,599617024103105573,-62.00
2025-11-18 14:07:41.582419,599617024103105573,-157.00
2025-11-18 14:07:41.582419,599617024103105573,-232.00
2025-11-18 14:07:41.582419,599617024103105573,-14.00
2025-11-18 14:07:41.582419,599617024103105573,646.00
2025-11-18 14:07:41.582419,599617024103105573,1401.00
2025-11-18 14:07:41.582419,599617024103105573,1518.00
2025-11-18 14:07:41.582419,599617024103105573,878.00
2025-11-18 14:07:41.582419,599617024103105573,196.00
2025-11-18 14:07:41.582419,599617024103105573,-133.00
2025-11-18 14:07:41.582419,599617024103105573,-305.00
2025-11-18 14:07:41.582419,599617024103105573,-404.00
2025-11-18 14:07:41.582419,599617024103105573,-397.00
2025-11-18 14:07:41.582419,599617024103105573,-380.00
2025-11-18 14:07:41.582419,599617024103105573,-389.00
2025-11-18 14:07:41.582419,599617024103105573,-358.00
2025-11-18 14:07:41.582419,599617024103105573,-324.00
2025-11-18 14:07:41.582419,599617024103105573,-336.00
2025-11-18 14:07:41.582419,599617024103105573,-343.00
2025-11-18 14:07:41.582419,599617024103105573,-338.00
2025-11-18 14:07:41.582419,599617024103105573,-338.00
2025-11-18 14:07:41.582419,599617024103105573,-329.00
2025-11-18 14:07:41.582419,599617024103105573,-338.00
2025-11-18 14:07:41.582419,599617024103105573,-368.00
2025-11-18 14:07:41.582419,599617024103105573,-384.00
2025-11-18 14:07:41.582419,599617024103105573,-397.00
2025-11-18 14:07:41.582419,599617024103105573,-416.00
2025-11-18 14:07:41.582419,599617024103105573,-447.00
2025-11-18 14:07:41.582419,599617024103105573,-486.00
2025-11-18 14:07:41.582419,599617024103105573,-510.00
2025-11-18 14:07:41.582419,599617024103105573,-527.00
2025-11-18 14:07:41.582419,599617024103105573,-561.00
2025-11-18 14:07:41.582419,599617024103105573,-561.00
2025-11-18 14:07:41.582419,599617024103105573,-503.00
2025-11-18 14:07:41.582419,599617024103105573,-474.00
2025-11-18 14:07:41.582419,599617024103105573,-440.00
2025-11-18 14:07:42.123366,599617024663772096,-341.00
2025-11-18 14:07:42.123366,599617024663772096,-242.00
2025-11-18 14:07:42.123366,599617024663772096,-171.00
2025-11-18 14:07:42.123366,599617024663772096,-79.00
2025-11-18 14:07:42.123366,599617024663772096,7.00
2025-11-18 14:07:42.123366,599617024663772096,62.00
2025-11-18 14:07:42.123366,599617024663772096,92.00
2025-11-18 14:07:42.123366,599617024663772096,99.00
2025-11-18 14:07:42.123366,599617024663772096,106.00
2025-11-18 14:07:42.123366,599617024663772096,125.00
2025-11-18 14:07:42.123366,599617024663772096,128.00
2025-11-18 14:07:42.123366,599617024663772096,106.00
2025-11-18 14:07:42.123366,599617024663772096,82.00
2025-11-18 14:07:42.123366,599617024663772096,72.00
2025-11-18 14:07:42.123366,599617024663772096,72.00
2025-11-18 14:07:42.123366,599617024663772096,70.00
2025-11-18 14:07:42.123366,599617024663772096,58.00
2025-11-18 14:07:42.123366,599617024663772096,53.00
2025-11-18 14:07:42.123366,599617024663772096,67.00
2025-11-18 14:07:42.123366,599617024663772096,50.00
2025-11-18 14:07:42.123366,599617024663772096,26.00
2025-11-18 14:07:42.123366,599617024663772096,43.00
2025-11-18 14:07:42.123366,599617024663772096,33.00
2025-11-18 14:07:42.123366,599617024663772096,7.00
2025-11-18 14:07:42.123366,599617024663772096,19.00
2025-11-18 14:07:42.123366,599617024663772096,21.00
2025-11-18 14:07:42.123366,599617024663772096,9.00
2025-11-18 14:07:42.123366,599617024663772096,16.00
2025-11-18 14:07:42.123366,599617024663772096,26.00
2025-11-18 14:07:42.123366,599617024663772096,29.00
2025-11-18 14:07:42.123366,599617024663772096,33.00
2025-11-18 14:07:42.123366,599617024663772096,19.00
2025-11-18 14:07:42.123366,599617024663772096,4.00
2025-11-18 14:07:42.123366,599617024663772096,26.00
2025-11-18 14:07:42.123366,599617024663772096,29.00
2025-11-18 14:07:42.123366,599617024663772096,14.00
2025-11-18 14:07:42.123366,599617024663772096,14.00
2025-11-18 14:07:42.123366,599617024663772096,16.00
2025-11-18 14:07:42.123366,599617024663772096,12.00
2025-11-18 14:07:42.123366,599617024663772096,-2.00
2025-11-18 14:07:42.123366,599617024663772096,-7.00
2025-11-18 14:07:42.123366,599617024663772096,4.00
2025-11-18 14:07:42.123366,599617024663772096,9.00
2025-11-18 14:07:42.123366,599617024663772096,4.00
2025-11-18 14:07:42.123366,599617024663772096,4.00
2025-11-18 14:07:42.123366,599617024663772096,9.00
2025-11-18 14:07:42.123366,599617024663772096,7.00
2025-11-18 14:07:42.123366,599617024663772096,0.00
2025-11-18 14:07:42.123366,599617024663772096,2.00
2025-11-18 14:07:42.123366,599617024663772096,4.00
2025-11-18 14:07:42.123366,599617024663772096,-24.00
2025-11-18 14:07:42.123366,599617024663772096,-41.00
2025-11-18 14:07:42.123366,599617024663772096,-29.00
2025-11-18 14:07:42.123366,599617024663772096,-9.00
2025-11-18 14:07:42.123366,599617024663772096,-19.00
2025-11-18 14:07:42.123366,599617024663772096,-41.00
2025-11-18 14:07:42.123366,599617024663772096,-43.00
2025-11-18 14:07:42.123366,599617024663772096,-41.00
2025-11-18 14:07:42.123366,599617024663772096,-41.00
2025-11-18 14:07:42.123366,599617024663772096,-31.00
2025-11-18 14:07:42.123366,599617024663772096,-21.00
2025-11-18 14:07:42.123366,599617024663772096,-16.00
2025-11-18 14:07:42.123366,599617024663772096,-12.00
2025-11-18 14:07:42.123366,599617024663772096,-26.00
2025-11-18 14:07:42.123366,599617024663772096,-36.00
2025-11-18 14:07:42.123366,599617024663772096,9.00
2025-11-18 14:07:42.123366,599617024663772096,31.00
2025-11-18 14:07:42.123366,599617024663772096,2.00
2025-11-18 14:07:42.123366,599617024663772096,0.00
2025-11-18 14:07:42.123366,599617024663772096,-4.00
2025-11-18 14:07:42.123366,599617024663772096,-29.00
2025-11-18 14:07:42.123366,599617024663772096,-24.00
2025-11-18 14:07:42.123366,599617024663772096,-29.00
2025-11-18 14:07:42.694410,599617025224438619,-96.00
2025-11-18 14:07:42.694410,599617025224438619,-200.00
2025-11-18 14:07:42.694410,599617025224438619,-225.00
2025-11-18 14:07:42.694410,599617025224438619,77.00
2025-11-18 14:07:42.694410,599617025224438619,852.00
2025-11-18 14:07:42.694410,599617025224438619,1588.00
2025-11-18 14:07:42.694410,599617025224438619,1452.00
2025-11-18 14:07:42.694410,599617025224438619,665.00
2025-11-18 14:07:42.694410,599617025224438619,87.00
2025-11-18 14:07:42.694410,599617025224438619,-159.00
2025-11-18 14:07:42.694410,599617025224438619,-314.00
2025-11-18 14:07:42.694410,599617025224438619,-360.00
2025-11-18 14:07:42.694410,599617025224438619,-336.00
2025-11-18 14:07:42.694410,599617025224438619,-351.00
2025-11-18 14:07:42.694410,599617025224438619,-363.00
2025-11-18 14:07:42.694410,599617025224438619,-341.00
2025-11-18 14:07:42.694410,599617025224438619,-331.00
2025-11-18 14:07:42.694410,599617025224438619,-324.00
2025-11-18 14:07:42.694410,599617025224438619,-317.00
2025-11-18 14:07:42.694410,599617025224438619,-324.00
2025-11-18 14:07:42.694410,599617025224438619,-324.00
2025-11-18 14:07:42.694410,599617025224438619,-331.00
2025-11-18 14:07:42.694410,599617025224438619,-365.00
2025-11-18 14:07:42.694410,599617025224438619,-375.00
2025-11-18 14:07:42.694410,599617025224438619,-375.00
2025-11-18 14:07:42.694410,599617025224438619,-380.00
2025-11-18 14:07:42.694410,599617025224438619,-370.00
2025-11-18 14:07:42.694410,599617025224438619,-414.00
2025-11-18 14:07:42.694410,599617025224438619,-491.00
2025-11-18 14:07:42.694410,599617025224438619,-503.00
2025-11-18 14:07:42.694410,599617025224438619,-491.00
2025-11-18 14:07:42.694410,599617025224438619,-539.00
2025-11-18 14:07:42.694410,599617025224438619,-564.00
2025-11-18 14:07:42.694410,599617025224438619,-491.00
2025-11-18 14:07:42.694410,599617025224438619,-460.00
2025-11-18 14:07:42.694410,599617025224438619,-455.00
2025-11-18 14:07:42.694410,599617025224438619,-319.00
2025-11-18 14:07:42.694410,599617025224438619,-184.00
2025-11-18 14:07:42.694410,599617025224438619,-133.00
2025-11-18 14:07:42.694410,599617025224438619,-58.00
2025-11-18 14:07:42.694410,599617025224438619,26.00
2025-11-18 14:07:42.694410,599617025224438619,60.00
2025-11-18 14:07:42.694410,599617025224438619,79.00
2025-11-18 14:07:42.694410,599617025224438619,108.00
2025-11-18 14:07:42.694410,599617025224438619,130.00
2025-11-18 14:07:42.694410,599617025224438619,116.00
2025-11-18 14:07:42.694410,599617025224438619,79.00
2025-11-18 14:07:42.694410,599617025224438619,79.00
2025-11-18 14:07:42.694410,599617025224438619,82.00
2025-11-18 14:07:42.694410,599617025224438619,65.00
2025-11-18 14:07:42.694410,599617025224438619,75.00
2025-11-18 14:07:42.694410,599617025224438619,72.00
2025-11-18 14:07:42.694410,599617025224438619,36.00
2025-11-18 14:07:42.694410,599617025224438619,21.00
2025-11-18 14:07:42.694410,599617025224438619,29.00
2025-11-18 14:07:42.694410,599617025224438619,26.00
2025-11-18 14:07:42.694410,599617025224438619,29.00
2025-11-18 14:07:42.694410,599617025224438619,26.00
2025-11-18 14:07:42.694410,599617025224438619,12.00
2025-11-18 14:07:42.694410,599617025224438619,7.00
2025-11-18 14:07:42.694410,599617025224438619,9.00
2025-11-18 14:07:42.694410,599617025224438619,-2.00
2025-11-18 14:07:42.694410,599617025224438619,0.00
2025-11-18 14:07:42.694410,599617025224438619,41.00
2025-11-18 14:07:42.694410,599617025224438619,58.00
2025-11-18 14:07:42.694410,599617025224438619,29.00
2025-11-18 14:07:42.694410,599617025224438619,7.00
2025-11-18 14:07:42.694410,599617025224438619,38.00
2025-11-18 14:07:42.694410,599617025224438619,55.00
2025-11-18 14:07:42.694410,599617025224438619,14.00
2025-11-18 14:07:42.694410,599617025224438619,2.00
2025-11-18 14:07:42.694410,599617025224438619,29.00
2025-11-18 14:07:42.694410,599617025224438619,24.00
2025-11-18 14:07:43.234865,599617025785105142,9.00
2025-11-18 14:07:43.234865,599617025785105142,19.00
2025-11-18 14:07:43.234865,599617025785105142,19.00
2025-11-18 14:07:43.234865,599617025785105142,7.00
2025-11-18 14:07:43.234865,599617025785105142,9.00
2025-11-18 14:07:43.234865,599617025785105142,14.00
2025-11-18 14:07:43.234865,599617025785105142,4.00
2025-11-18 14:07:43.234865,599617025785105142,-2.00
2025-11-18 14:07:43.234865,599617025785105142,-2.00
2025-11-18 14:07:43.234865,599617025785105142,-4.00
2025-11-18 14:07:43.234865,599617025785105142,-12.00
2025-11-18 14:07:43.234865,599617025785105142,-21.00
2025-11-18 14:07:43.234865,599617025785105142,-29.00
2025-11-18 14:07:43.234865,599617025785105142,-41.00
2025-11-18 14:07:43.234865,599617025785105142,-46.00
2025-11-18 14:07:43.234865,599617025785105142,-41.00
2025-11-18 14:07:43.234865,599617025785105142,-46.00
2025-11-18 14:07:43.234865,599617025785105142,-53.00
2025-11-18 14:07:43.234865,599617025785105142,-53.00
2025-11-18 14:07:43.234865,599617025785105142,-65.00
2025-11-18 14:07:43.234865,599617025785105142,-79.00
2025-11-18 14:07:43.234865,599617025785105142,-82.00
2025-11-18 14:07:43.234865,599617025785105142,-77.00
2025-11-18 14:07:43.234865,599617025785105142,-65.00
2025-11-18 14:07:43.234865,599617025785105142,-41.00
2025-11-18 14:07:43.234865,599617025785105142,-24.00
2025-11-18 14:07:43.234865,599617025785105142,-24.00
2025-11-18 14:07:43.234865,599617025785105142,-21.00
2025-11-18 14:07:43.234865,599617025785105142,-31.00
2025-11-18 14:07:43.234865,599617025785105142,-38.00
2025-11-18 14:07:43.234865,599617025785105142,-19.00
2025-11-18 14:07:43.234865,599617025785105142,-2.00
2025-11-18 14:07:43.234865,599617025785105142,-14.00
2025-11-18 14:07:43.234865,599617025785105142,-24.00
2025-11-18 14:07:43.234865,599617025785105142,-26.00
2025-11-18 14:07:43.234865,599617025785105142,-33.00
2025-11-18 14:07:43.234865,599617025785105142,-41.00
2025-11-18 14:07:43.234865,599617025785105142,-55.00
2025-11-18 14:07:43.234865,599617025785105142,-121.00
2025-11-18 14:07:43.234865,599617025785105142,-242.00
2025-11-18 14:07:43.234865,599617025785105142,-259.00
2025-11-18 14:07:43.234865,599617025785105142,106.00
2025-11-18 14:07:43.234865,599617025785105142,910.00
2025-11-18 14:07:43.234865,599617025785105142,1564.00
2025-11-18 14:07:43.234865,599617025785105142,1307.00
2025-11-18 14:07:43.234865,599617025785105142,496.00
2025-11-18 14:07:43.234865,599617025785105142,-16.00
2025-11-18 14:07:43.234865,599617025785105142,-213.00
2025-11-18 14:07:43.234865,599617025785105142,-343.00
2025-11-18 14:07:43.234865,599617025785105142,-372.00
2025-11-18 14:07:43.234865,599617025785105142,-343.00
2025-11-18 14:07:43.234865,599617025785105142,-365.00
2025-11-18 14:07:43.234865,599617025785105142,-377.00
2025-11-18 14:07:43.234865,599617025785105142,-353.00
2025-11-18 14:07:43.234865,599617025785105142,-346.00
2025-11-18 14:07:43.234865,599617025785105142,-355.00
2025-11-18 14:07:43.234865,599617025785105142,-346.00
2025-11-18 14:07:43.234865,599617025785105142,-341.00
2025-11-18 14:07:43.234865,599617025785105142,-351.00
2025-11-18 14:07:43.234865,599617025785105142,-358.00
2025-11-18 14:07:43.234865,599617025785105142,-365.00
2025-11-18 14:07:43.234865,599617025785105142,-377.00
2025-11-18 14:07:43.234865,599617025785105142,-392.00
2025-11-18 14:07:43.234865,599617025785105142,-404.00
2025-11-18 14:07:43.234865,599617025785105142,-423.00
2025-11-18 14:07:43.234865,599617025785105142,-464.00
2025-11-18 14:07:43.234865,599617025785105142,-493.00
2025-11-18 14:07:43.234865,599617025785105142,-503.00
2025-11-18 14:07:43.234865,599617025785105142,-522.00
2025-11-18 14:07:43.234865,599617025785105142,-535.00
2025-11-18 14:07:43.234865,599617025785105142,-527.00
2025-11-18 14:07:43.234865,599617025785105142,-510.00
2025-11-18 14:07:43.234865,599617025785105142,-467.00
2025-11-18 14:07:43.804220,599617026345771665,-387.00
2025-11-18 14:07:43.804220,599617026345771665,-288.00
2025-11-18 14:07:43.804220,599617026345771665,-200.00
2025-11-18 14:07:43.804220,599617026345771665,-130.00
2025-11-18 14:07:43.804220,599617026345771665,-53.00
2025-11-18 14:07:43.804220,599617026345771665,36.00
2025-11-18 14:07:43.804220,599617026345771665,99.00
2025-11-18 14:07:43.804220,599617026345771665,118.00
2025-11-18 14:07:43.804220,599617026345771665,145.00
2025-11-18 14:07:43.804220,599617026345771665,164.00
2025-11-18 14:07:43.804220,599617026345771665,128.00
2025-11-18 14:07:43.804220,599617026345771665,84.00
2025-11-18 14:07:43.804220,599617026345771665,94.00
2025-11-18 14:07:43.804220,599617026345771665,108.00
2025-11-18 14:07:43.804220,599617026345771665,92.00
2025-11-18 14:07:43.804220,599617026345771665,108.00
2025-11-18 14:07:43.804220,599617026345771665,121.00
2025-11-18 14:07:43.804220,599617026345771665,101.00
2025-11-18 14:07:43.804220,599617026345771665,104.00
2025-11-18 14:07:43.804220,599617026345771665,75.00
2025-11-18 14:07:43.804220,599617026345771665,21.00
2025-11-18 14:07:43.804220,599617026345771665,36.00
2025-11-18 14:07:43.804220,599617026345771665,50.00
2025-11-18 14:07:43.804220,599617026345771665,4.00
2025-11-18 14:07:43.804220,599617026345771665,-2.00
2025-11-18 14:07:43.804220,599617026345771665,43.00
2025-11-18 14:07:43.804220,599617026345771665,55.00
2025-11-18 14:07:43.804220,599617026345771665,33.00
2025-11-18 14:07:43.804220,599617026345771665,41.00
2025-11-18 14:07:43.804220,599617026345771665,38.00
2025-11-18 14:07:43.804220,599617026345771665,-21.00
2025-11-18 14:07:43.804220,599617026345771665,-36.00
2025-11-18 14:07:43.804220,599617026345771665,16.00
2025-11-18 14:07:43.804220,599617026345771665,21.00
2025-11-18 14:07:43.804220,599617026345771665,-21.00
2025-11-18 14:07:43.804220,599617026345771665,-14.00
2025-11-18 14:07:43.804220,599617026345771665,31.00
2025-11-18 14:07:43.804220,599617026345771665,26.00
2025-11-18 14:07:43.804220,599617026345771665,-14.00
2025-11-18 14:07:43.804220,599617026345771665,-4.00
2025-11-18 14:07:43.804220,599617026345771665,7.00
2025-11-18 14:07:43.804220,599617026345771665,-16.00
2025-11-18 14:07:43.804220,599617026345771665,-7.00
2025-11-18 14:07:43.804220,599617026345771665,7.00
2025-11-18 14:07:43.804220,599617026345771665,-24.00
2025-11-18 14:07:43.804220,599617026345771665,-9.00
2025-11-18 14:07:43.804220,599617026345771665,29.00
2025-11-18 14:07:43.804220,599617026345771665,21.00
2025-11-18 14:07:43.804220,599617026345771665,7.00
2025-11-18 14:07:43.804220,599617026345771665,-2.00
2025-11-18 14:07:43.804220,599617026345771665,-26.00
2025-11-18 14:07:43.804220,599617026345771665,-31.00
2025-11-18 14:07:43.804220,599617026345771665,-12.00
2025-11-18 14:07:43.804220,599617026345771665,-16.00
2025-11-18 14:07:43.804220,599617026345771665,-19.00
2025-11-18 14:07:43.804220,599617026345771665,26.00
2025-11-18 14:07:43.804220,599617026345771665,33.00
2025-11-18 14:07:43.804220,599617026345771665,-12.00
2025-11-18 14:07:43.804220,599617026345771665,-9.00
2025-11-18 14:07:43.804220,599617026345771665,9.00
2025-11-18 14:07:43.804220,599617026345771665,7.00
2025-11-18 14:07:43.804220,599617026345771665,16.00
2025-11-18 14:07:43.804220,599617026345771665,24.00
2025-11-18 14:07:43.804220,599617026345771665,-7.00
2025-11-18 14:07:43.804220,599617026345771665,-33.00
2025-11-18 14:07:43.804220,599617026345771665,12.00
2025-11-18 14:07:43.804220,599617026345771665,19.00
2025-11-18 14:07:43.804220,599617026345771665,-82.00
2025-11-18 14:07:43.804220,599617026345771665,-169.00
2025-11-18 14:07:43.804220,599617026345771665,-179.00
2025-11-18 14:07:43.804220,599617026345771665,16.00
2025-11-18 14:07:43.804220,599617026345771665,706.00
2025-11-18 14:07:43.804220,599617026345771665,1544.00
2025-11-18 14:07:44.342484,599617026906468706,1590.00
2025-11-18 14:07:44.342484,599617026906468706,818.00
2025-11-18 14:07:44.342484,599617026906468706,118.00
2025-11-18 14:07:44.342484,599617026906468706,-186.00
2025-11-18 14:07:44.342484,599617026906468706,-305.00
2025-11-18 14:07:44.342484,599617026906468706,-368.00
2025-11-18 14:07:44.342484,599617026906468706,-355.00
2025-11-18 14:07:44.342484,599617026906468706,-319.00
2025-11-18 14:07:44.342484,599617026906468706,-353.00
2025-11-18 14:07:44.342484,599617026906468706,-355.00
2025-11-18 14:07:44.342484,599617026906468706,-307.00
2025-11-18 14:07:44.342484,599617026906468706,-326.00
2025-11-18 14:07:44.342484,599617026906468706,-348.00
2025-11-18 14:07:44.342484,599617026906468706,-312.00
2025-11-18 14:07:44.342484,599617026906468706,-295.00
2025-11-18 14:07:44.342484,599617026906468706,-312.00
2025-11-18 14:07:44.342484,599617026906468706,-351.00
2025-11-18 14:07:44.342484,599617026906468706,-387.00
2025-11-18 14:07:44.342484,599617026906468706,-363.00
2025-11-18 14:07:44.342484,599617026906468706,-319.00
2025-11-18 14:07:44.342484,599617026906468706,-346.00
2025-11-18 14:07:44.342484,599617026906468706,-397.00
2025-11-18 14:07:44.342484,599617026906468706,-416.00
2025-11-18 14:07:44.342484,599617026906468706,-438.00
2025-11-18 14:07:44.342484,599617026906468706,-472.00
2025-11-18 14:07:44.342484,599617026906468706,-503.00
2025-11-18 14:07:44.342484,599617026906468706,-537.00
2025-11-18 14:07:44.342484,599617026906468706,-515.00
2025-11-18 14:07:44.342484,599617026906468706,-440.00
2025-11-18 14:07:44.342484,599617026906468706,-375.00
2025-11-18 14:07:44.342484,599617026906468706,-271.00
2025-11-18 14:07:44.342484,599617026906468706,-164.00
2025-11-18 14:07:44.342484,599617026906468706,-104.00
2025-11-18 14:07:44.342484,599617026906468706,-24.00
2025-11-18 14:07:44.342484,599617026906468706,50.00
2025-11-18 14:07:44.342484,599617026906468706,87.00
2025-11-18 14:07:44.342484,599617026906468706,123.00
2025-11-18 14:07:44.342484,599617026906468706,138.00
2025-11-18 14:07:44.342484,599617026906468706,108.00
2025-11-18 14:07:44.342484,599617026906468706,140.00
2025-11-18 14:07:44.342484,599617026906468706,174.00
2025-11-18 14:07:44.342484,599617026906468706,94.00
2025-11-18 14:07:44.342484,599617026906468706,84.00
2025-11-18 14:07:44.342484,599617026906468706,167.00
2025-11-18 14:07:44.342484,599617026906468706,118.00
2025-11-18 14:07:44.342484,599617026906468706,36.00
2025-11-18 14:07:44.342484,599617026906468706,84.00
2025-11-18 14:07:44.342484,599617026906468706,125.00
2025-11-18 14:07:44.342484,599617026906468706,67.00
2025-11-18 14:07:44.342484,599617026906468706,19.00
2025-11-18 14:07:44.342484,599617026906468706,21.00
2025-11-18 14:07:44.342484,599617026906468706,33.00
2025-11-18 14:07:44.342484,599617026906468706,55.00
2025-11-18 14:07:44.342484,599617026906468706,58.00
2025-11-18 14:07:44.342484,599617026906468706,36.00
2025-11-18 14:07:44.342484,599617026906468706,33.00
2025-11-18 14:07:44.342484,599617026906468706,26.00
2025-11-18 14:07:44.342484,599617026906468706,24.00
2025-11-18 14:07:44.342484,599617026906468706,48.00
2025-11-18 14:07:44.342484,599617026906468706,43.00
2025-11-18 14:07:44.342484,599617026906468706,2.00
2025-11-18 14:07:44.342484,599617026906468706,-12.00
2025-11-18 14:07:44.342484,599617026906468706,4.00
2025-11-18 14:07:44.342484,599617026906468706,14.00
2025-11-18 14:07:44.342484,599617026906468706,21.00
2025-11-18 14:07:44.342484,599617026906468706,46.00
2025-11-18 14:07:44.342484,599617026906468706,50.00
2025-11-18 14:07:44.342484,599617026906468706,26.00
2025-11-18 14:07:44.342484,599617026906468706,9.00
2025-11-18 14:07:44.342484,599617026906468706,12.00
2025-11-18 14:07:44.342484,599617026906468706,14.00
2025-11-18 14:07:44.342484,599617026906468706,21.00
2025-11-18 14:07:44.342484,599617026906468706,7.00
2025-11-18 14:07:44.947443,599617027467135231,-67.00
2025-11-18 14:07:44.947443,599617027467135231,-96.00
2025-11-18 14:07:44.947443,599617027467135231,-12.00
2025-11-18 14:07:44.947443,599617027467135231,50.00
2025-11-18 14:07:44.947443,599617027467135231,41.00
2025-11-18 14:07:44.947443,599617027467135231,19.00
2025-11-18 14:07:44.947443,599617027467135231,-2.00
2025-11-18 14:07:44.947443,599617027467135231,-12.00
2025-11-18 14:07:44.947443,599617027467135231,-19.00
2025-11-18 14:07:44.947443,599617027467135231,-19.00
2025-11-18 14:07:44.947443,599617027467135231,0.00
2025-11-18 14:07:44.947443,599617027467135231,19.00
2025-11-18 14:07:44.947443,599617027467135231,-4.00
2025-11-18 14:07:44.947443,599617027467135231,-60.00
2025-11-18 14:07:44.947443,599617027467135231,-29.00
2025-11-18 14:07:44.947443,599617027467135231,48.00
2025-11-18 14:07:44.947443,599617027467135231,21.00
2025-11-18 14:07:44.947443,599617027467135231,-38.00
2025-11-18 14:07:44.947443,599617027467135231,-36.00
2025-11-18 14:07:44.947443,599617027467135231,-108.00
2025-11-18 14:07:44.947443,599617027467135231,-263.00
2025-11-18 14:07:44.947443,599617027467135231,-162.00
2025-11-18 14:07:44.947443,599617027467135231,489.00
2025-11-18 14:07:44.947443,599617027467135231,1392.00
2025-11-18 14:07:44.947443,599617027467135231,1651.00
2025-11-18 14:07:44.947443,599617027467135231,973.00
2025-11-18 14:07:44.947443,599617027467135231,208.00
2025-11-18 14:07:44.947443,599617027467135231,-118.00
2025-11-18 14:07:44.947443,599617027467135231,-273.00
2025-11-18 14:07:44.947443,599617027467135231,-404.00
2025-11-18 14:07:44.947443,599617027467135231,-387.00
2025-11-18 14:07:44.947443,599617027467135231,-307.00
2025-11-18 14:07:44.947443,599617027467135231,-341.00
2025-11-18 14:07:44.947443,599617027467135231,-389.00
2025-11-18 14:07:44.947443,599617027467135231,-360.00
2025-11-18 14:07:44.947443,599617027467135231,-353.00
2025-11-18 14:07:44.947443,599617027467135231,-372.00
2025-11-18 14:07:44.947443,599617027467135231,-375.00
2025-11-18 14:07:44.947443,599617027467135231,-377.00
2025-11-18 14:07:44.947443,599617027467135231,-375.00
2025-11-18 14:07:44.947443,599617027467135231,-368.00
2025-11-18 14:07:44.947443,599617027467135231,-382.00
2025-11-18 14:07:44.947443,599617027467135231,-360.00
2025-11-18 14:07:44.947443,599617027467135231,-336.00
2025-11-18 14:07:44.947443,599617027467135231,-401.00
2025-11-18 14:07:44.947443,599617027467135231,-460.00
2025-11-18 14:07:44.947443,599617027467135231,-469.00
2025-11-18 14:07:44.947443,599617027467135231,-506.00
2025-11-18 14:07:44.947443,599617027467135231,-527.00
2025-11-18 14:07:44.947443,599617027467135231,-513.00
2025-11-18 14:07:44.947443,599617027467135231,-535.00
2025-11-18 14:07:44.947443,599617027467135231,-549.00
2025-11-18 14:07:44.947443,599617027467135231,-491.00
2025-11-18 14:07:44.947443,599617027467135231,-411.00
2025-11-18 14:07:44.947443,599617027467135231,-334.00
2025-11-18 14:07:44.947443,599617027467135231,-244.00
2025-11-18 14:07:44.947443,599617027467135231,-140.00
2025-11-18 14:07:44.947443,599617027467135231,-31.00
2025-11-18 14:07:44.947443,599617027467135231,43.00
2025-11-18 14:07:44.947443,599617027467135231,70.00
2025-11-18 14:07:44.947443,599617027467135231,99.00
2025-11-18 14:07:44.947443,599617027467135231,123.00
2025-11-18 14:07:44.947443,599617027467135231,123.00
2025-11-18 14:07:44.947443,599617027467135231,125.00
2025-11-18 14:07:44.947443,599617027467135231,106.00
2025-11-18 14:07:44.947443,599617027467135231,79.00
2025-11-18 14:07:44.947443,599617027467135231,133.00
2025-11-18 14:07:44.947443,599617027467135231,167.00
2025-11-18 14:07:44.947443,599617027467135231,94.00
2025-11-18 14:07:44.947443,599617027467135231,58.00
2025-11-18 14:07:44.947443,599617027467135231,82.00
2025-11-18 14:07:44.947443,599617027467135231,62.00
2025-11-18 14:07:44.947443,599617027467135231,29.00
2025-11-18 14:07:45.483497,599617028027801754,19.00
2025-11-18 14:07:45.483497,599617028027801754,21.00
2025-11-18 14:07:45.483497,599617028027801754,41.00
2025-11-18 14:07:45.483497,599617028027801754,38.00
2025-11-18 14:07:45.483497,599617028027801754,4.00
2025-11-18 14:07:45.483497,599617028027801754,14.00
2025-11-18 14:07:45.483497,599617028027801754,46.00
2025-11-18 14:07:45.483497,599617028027801754,31.00
2025-11-18 14:07:45.483497,599617028027801754,4.00
2025-11-18 14:07:45.483497,599617028027801754,12.00
2025-11-18 14:07:45.483497,599617028027801754,21.00
2025-11-18 14:07:45.483497,599617028027801754,12.00
2025-11-18 14:07:45.483497,599617028027801754,4.00
2025-11-18 14:07:45.483497,599617028027801754,4.00
2025-11-18 14:07:45.483497,599617028027801754,4.00
2025-11-18 14:07:45.483497,599617028027801754,14.00
2025-11-18 14:07:45.483497,599617028027801754,21.00
2025-11-18 14:07:45.483497,599617028027801754,7.00
2025-11-18 14:07:45.483497,599617028027801754,2.00
2025-11-18 14:07:45.483497,599617028027801754,7.00
2025-11-18 14:07:45.483497,599617028027801754,-2.00
2025-11-18 14:07:45.483497,599617028027801754,-7.00
2025-11-18 14:07:45.483497,599617028027801754,-4.00
2025-11-18 14:07:45.483497,599617028027801754,-14.00
2025-11-18 14:07:45.483497,599617028027801754,-14.00
2025-11-18 14:07:45.483497,599617028027801754,-9.00
2025-11-18 14:07:45.483497,599617028027801754,-24.00
2025-11-18 14:07:45.483497,599617028027801754,-36.00
2025-11-18 14:07:45.483497,599617028027801754,-41.00
2025-11-18 14:07:45.483497,599617028027801754,-46.00
2025-11-18 14:07:45.483497,599617028027801754,-26.00
2025-11-18 14:07:45.483497,599617028027801754,-4.00
2025-11-18 14:07:45.483497,599617028027801754,-16.00
2025-11-18 14:07:45.483497,599617028027801754,-33.00
2025-11-18 14:07:45.483497,599617028027801754,-31.00
2025-11-18 14:07:45.483497,599617028027801754,-24.00
2025-11-18 14:07:45.483497,599617028027801754,-12.00
2025-11-18 14:07:45.483497,599617028027801754,-4.00
2025-11-18 14:07:45.483497,599617028027801754,-7.00
2025-11-18 14:07:45.483497,599617028027801754,-12.00
2025-11-18 14:07:45.483497,599617028027801754,-12.00
2025-11-18 14:07:45.483497,599617028027801754,-14.00
2025-11-18 14:07:45.483497,599617028027801754,-21.00
2025-11-18 14:07:45.483497,599617028027801754,-33.00
2025-11-18 14:07:45.483497,599617028027801754,-89.00
2025-11-18 14:07:45.483497,599617028027801754,-220.00
2025-11-18 14:07:45.483497,599617028027801754,-263.00
2025-11-18 14:07:45.483497,599617028027801754,79.00
2025-11-18 14:07:45.483497,599617028027801754,898.00
2025-11-18 14:07:45.483497,599617028027801754,1585.00
2025-11-18 14:07:45.483497,599617028027801754,1346.00
2025-11-18 14:07:45.483497,599617028027801754,547.00
2025-11-18 14:07:45.483497,599617028027801754,38.00
2025-11-18 14:07:45.483497,599617028027801754,-157.00
2025-11-18 14:07:45.483497,599617028027801754,-302.00
2025-11-18 14:07:45.483497,599617028027801754,-372.00
2025-11-18 14:07:45.483497,599617028027801754,-360.00
2025-11-18 14:07:45.483497,599617028027801754,-358.00
2025-11-18 14:07:45.483497,599617028027801754,-355.00
2025-11-18 14:07:45.483497,599617028027801754,-331.00
2025-11-18 14:07:45.483497,599617028027801754,-326.00
2025-11-18 14:07:45.483497,599617028027801754,-338.00
2025-11-18 14:07:45.483497,599617028027801754,-334.00
2025-11-18 14:07:45.483497,599617028027801754,-326.00
2025-11-18 14:07:45.483497,599617028027801754,-336.00
2025-11-18 14:07:45.483497,599617028027801754,-353.00
2025-11-18 14:07:45.483497,599617028027801754,-355.00
2025-11-18 14:07:45.483497,599617028027801754,-351.00
2025-11-18 14:07:45.483497,599617028027801754,-363.00
2025-11-18 14:07:45.483497,599617028027801754,-401.00
2025-11-18 14:07:45.483497,599617028027801754,-433.00
2025-11-18 14:07:45.483497,599617028027801754,-455.00
2025-11-18 14:07:45.483497,599617028027801754,-481.00
2025-11-18 14:07:46.052949,599617028588468277,-513.00
2025-11-18 14:07:46.052949,599617028588468277,-537.00
2025-11-18 14:07:46.052949,599617028588468277,-552.00
2025-11-18 14:07:46.052949,599617028588468277,-542.00
2025-11-18 14:07:46.052949,599617028588468277,-506.00
2025-11-18 14:07:46.052949,599617028588468277,-447.00
2025-11-18 14:07:46.052949,599617028588468277,-377.00
2025-11-18 14:07:46.052949,599617028588468277,-273.00
2025-11-18 14:07:46.052949,599617028588468277,-159.00
2025-11-18 14:07:46.052949,599617028588468277,-82.00
2025-11-18 14:07:46.052949,599617028588468277,-14.00
2025-11-18 14:07:46.052949,599617028588468277,58.00
2025-11-18 14:07:46.052949,599617028588468277,101.00
2025-11-18 14:07:46.052949,599617028588468277,108.00
2025-11-18 14:07:46.052949,599617028588468277,121.00
2025-11-18 14:07:46.052949,599617028588468277,135.00
2025-11-18 14:07:46.052949,599617028588468277,125.00
2025-11-18 14:07:46.052949,599617028588468277,104.00
2025-11-18 14:07:46.052949,599617028588468277,92.00
2025-11-18 14:07:46.052949,599617028588468277,92.00
2025-11-18 14:07:46.052949,599617028588468277,94.00
2025-11-18 14:07:46.052949,599617028588468277,89.00
2025-11-18 14:07:46.052949,599617028588468277,67.00
2025-11-18 14:07:46.052949,599617028588468277,50.00
2025-11-18 14:07:46.052949,599617028588468277,50.00
2025-11-18 14:07:46.052949,599617028588468277,41.00
2025-11-18 14:07:46.052949,599617028588468277,26.00
2025-11-18 14:07:46.052949,599617028588468277,19.00
2025-11-18 14:07:46.052949,599617028588468277,16.00
2025-11-18 14:07:46.052949,599617028588468277,14.00
2025-11-18 14:07:46.052949,599617028588468277,12.00
2025-11-18 14:07:46.052949,599617028588468277,14.00
2025-11-18 14:07:46.052949,599617028588468277,24.00
2025-11-18 14:07:46.052949,599617028588468277,26.00
2025-11-18 14:07:46.052949,599617028588468277,9.00
2025-11-18 14:07:46.052949,599617028588468277,-2.00
2025-11-18 14:07:46.052949,599617028588468277,16.00
2025-11-18 14:07:46.052949,599617028588468277,19.00
2025-11-18 14:07:46.052949,599617028588468277,-4.00
2025-11-18 14:07:46.052949,599617028588468277,-9.00
2025-11-18 14:07:46.052949,599617028588468277,12.00
2025-11-18 14:07:46.052949,599617028588468277,19.00
2025-11-18 14:07:46.052949,599617028588468277,9.00
2025-11-18 14:07:46.052949,599617028588468277,2.00
2025-11-18 14:07:46.052949,599617028588468277,4.00
2025-11-18 14:07:46.052949,599617028588468277,-9.00
2025-11-18 14:07:46.052949,599617028588468277,-29.00
2025-11-18 14:07:46.052949,599617028588468277,-33.00
2025-11-18 14:07:46.052949,599617028588468277,-38.00
2025-11-18 14:07:46.052949,599617028588468277,-41.00
2025-11-18 14:07:46.052949,599617028588468277,-24.00
2025-11-18 14:07:46.052949,599617028588468277,0.00
2025-11-18 14:07:46.052949,599617028588468277,7.00
2025-11-18 14:07:46.052949,599617028588468277,-2.00
2025-11-18 14:07:46.052949,599617028588468277,-9.00
2025-11-18 14:07:46.052949,599617028588468277,2.00
2025-11-18 14:07:46.052949,599617028588468277,12.00
2025-11-18 14:07:46.052949,599617028588468277,9.00
2025-11-18 14:07:46.052949,599617028588468277,4.00
2025-11-18 14:07:46.052949,599617028588468277,2.00
2025-11-18 14:07:46.052949,599617028588468277,-2.00
2025-11-18 14:07:46.052949,599617028588468277,-7.00
2025-11-18 14:07:46.052949,599617028588468277,-9.00
2025-11-18 14:07:46.052949,599617028588468277,-24.00
2025-11-18 14:07:46.052949,599617028588468277,-89.00
2025-11-18 14:07:46.052949,599617028588468277,-230.00
2025-11-18 14:07:46.052949,599617028588468277,-283.00
2025-11-18 14:07:46.052949,599617028588468277,48.00
2025-11-18 14:07:46.052949,599617028588468277,815.00
2025-11-18 14:07:46.052949,599617028588468277,1469.00
2025-11-18 14:07:46.052949,599617028588468277,1321.00
2025-11-18 14:07:46.052949,599617028588468277,612.00
2025-11-18 14:07:46.052949,599617028588468277,89.00
2025-11-18 14:07:46.596181,599617029149134800,-130.00
2025-11-18 14:07:46.596181,599617029149134800,-297.00
2025-11-18 14:07:46.596181,599617029149134800,-382.00
2025-11-18 14:07:46.596181,599617029149134800,-343.00
2025-11-18 14:07:46.596181,599617029149134800,-348.00
2025-11-18 14:07:46.596181,599617029149134800,-365.00
2025-11-18 14:07:46.596181,599617029149134800,-326.00
2025-11-18 14:07:46.596181,599617029149134800,-319.00
2025-11-18 14:07:46.596181,599617029149134800,-336.00
2025-11-18 14:07:46.596181,599617029149134800,-329.00
2025-11-18 14:07:46.596181,599617029149134800,-336.00
2025-11-18 14:07:46.596181,599617029149134800,-348.00
2025-11-18 14:07:46.596181,599617029149134800,-351.00
2025-11-18 14:07:46.596181,599617029149134800,-360.00
2025-11-18 14:07:46.596181,599617029149134800,-375.00
2025-11-18 14:07:46.596181,599617029149134800,-384.00
2025-11-18 14:07:46.596181,599617029149134800,-416.00
2025-11-18 14:07:46.596181,599617029149134800,-452.00
2025-11-18 14:07:46.596181,599617029149134800,-447.00
2025-11-18 14:07:46.596181,599617029149134800,-452.00
2025-11-18 14:07:46.596181,599617029149134800,-520.00
2025-11-18 14:07:46.596181,599617029149134800,-561.00
2025-11-18 14:07:46.596181,599617029149134800,-547.00
2025-11-18 14:07:46.596181,599617029149134800,-537.00
2025-11-18 14:07:46.596181,599617029149134800,-510.00
2025-11-18 14:07:46.596181,599617029149134800,-433.00
2025-11-18 14:07:46.596181,599617029149134800,-338.00
2025-11-18 14:07:46.596181,599617029149134800,-244.00
2025-11-18 14:07:46.596181,599617029149134800,-142.00
2025-11-18 14:07:46.596181,599617029149134800,-55.00
2025-11-18 14:07:46.596181,599617029149134800,12.00
2025-11-18 14:07:46.596181,599617029149134800,72.00
2025-11-18 14:07:46.596181,599617029149134800,111.00
2025-11-18 14:07:46.596181,599617029149134800,125.00
2025-11-18 14:07:46.596181,599617029149134800,130.00
2025-11-18 14:07:46.596181,599617029149134800,130.00
2025-11-18 14:07:46.596181,599617029149134800,130.00
2025-11-18 14:07:46.596181,599617029149134800,130.00
2025-11-18 14:07:46.596181,599617029149134800,125.00
2025-11-18 14:07:46.596181,599617029149134800,118.00
2025-11-18 14:07:46.596181,599617029149134800,108.00
2025-11-18 14:07:46.596181,599617029149134800,96.00
2025-11-18 14:07:46.596181,599617029149134800,82.00
2025-11-18 14:07:46.596181,599617029149134800,72.00
2025-11-18 14:07:46.596181,599617029149134800,67.00
2025-11-18 14:07:46.596181,599617029149134800,58.00
2025-11-18 14:07:46.596181,599617029149134800,46.00
2025-11-18 14:07:46.596181,599617029149134800,41.00
2025-11-18 14:07:46.596181,599617029149134800,36.00
2025-11-18 14:07:46.596181,599617029149134800,24.00
2025-11-18 14:07:46.596181,599617029149134800,24.00
2025-11-18 14:07:46.596181,599617029149134800,31.00
2025-11-18 14:07:46.596181,599617029149134800,24.00
2025-11-18 14:07:46.596181,599617029149134800,14.00
2025-11-18 14:07:46.596181,599617029149134800,14.00
2025-11-18 14:07:46.596181,599617029149134800,14.00
2025-11-18 14:07:46.596181,599617029149134800,16.00
2025-11-18 14:07:46.596181,599617029149134800,16.00
2025-11-18 14:07:46.596181,599617029149134800,14.00
2025-11-18 14:07:46.596181,599617029149134800,12.00
2025-11-18 14:07:46.596181,599617029149134800,12.00
2025-11-18 14:07:46.596181,599617029149134800,12.00
2025-11-18 14:07:46.596181,599617029149134800,12.00
2025-11-18 14:07:46.596181,599617029149134800,9.00
2025-11-18 14:07:46.596181,599617029149134800,9.00
2025-11-18 14:07:46.596181,599617029149134800,9.00
2025-11-18 14:07:46.596181,599617029149134800,4.00
2025-11-18 14:07:46.596181,599617029149134800,0.00
2025-11-18 14:07:46.596181,599617029149134800,-2.00
2025-11-18 14:07:46.596181,599617029149134800,-16.00
2025-11-18 14:07:46.596181,599617029149134800,-31.00
2025-11-18 14:07:46.596181,599617029149134800,-33.00
2025-11-18 14:07:46.596181,599617029149134800,-33.00
2025-11-18 14:07:47.164674,599617029709801323,-26.00
2025-11-18 14:07:47.164674,599617029709801323,-12.00
2025-11-18 14:07:47.164674,599617029709801323,-4.00
2025-11-18 14:07:47.164674,599617029709801323,-9.00
2025-11-18 14:07:47.164674,599617029709801323,-16.00
2025-11-18 14:07:47.164674,599617029709801323,-9.00
2025-11-18 14:07:47.164674,599617029709801323,7.00
2025-11-18 14:07:47.164674,599617029709801323,4.00
2025-11-18 14:07:47.164674,599617029709801323,0.00
2025-11-18 14:07:47.164674,599617029709801323,16.00
2025-11-18 14:07:47.164674,599617029709801323,16.00
2025-11-18 14:07:47.164674,599617029709801323,4.00
2025-11-18 14:07:47.164674,599617029709801323,4.00
2025-11-18 14:07:47.164674,599617029709801323,4.00
2025-11-18 14:07:47.164674,599617029709801323,-7.00
2025-11-18 14:07:47.164674,599617029709801323,-62.00
2025-11-18 14:07:47.164674,599617029709801323,-174.00
2025-11-18 14:07:47.164674,599617029709801323,-152.00
2025-11-18 14:07:47.164674,599617029709801323,246.00
2025-11-18 14:07:47.164674,599617029709801323,1002.00
2025-11-18 14:07:47.164674,599617029709801323,1624.00
2025-11-18 14:07:47.164674,599617029709801323,1452.00
2025-11-18 14:07:47.164674,599617029709801323,663.00
2025-11-18 14:07:47.164674,599617029709801323,41.00
2025-11-18 14:07:47.164674,599617029709801323,-213.00
2025-11-18 14:07:47.164674,599617029709801323,-334.00
2025-11-18 14:07:47.164674,599617029709801323,-377.00
2025-11-18 14:07:47.164674,599617029709801323,-355.00
2025-11-18 14:07:47.164674,599617029709801323,-360.00
2025-11-18 14:07:47.164674,599617029709801323,-370.00
2025-11-18 14:07:47.164674,599617029709801323,-343.00
2025-11-18 14:07:47.164674,599617029709801323,-326.00
2025-11-18 14:07:47.164674,599617029709801323,-329.00
2025-11-18 14:07:47.164674,599617029709801323,-331.00
2025-11-18 14:07:47.164674,599617029709801323,-331.00
2025-11-18 14:07:47.164674,599617029709801323,-338.00
2025-11-18 14:07:47.164674,599617029709801323,-353.00
2025-11-18 14:07:47.164674,599617029709801323,-363.00
2025-11-18 14:07:47.164674,599617029709801323,-370.00
2025-11-18 14:07:47.164674,599617029709801323,-387.00
2025-11-18 14:07:47.164674,599617029709801323,-404.00
2025-11-18 14:07:47.164674,599617029709801323,-418.00
2025-11-18 14:07:47.164674,599617029709801323,-440.00
2025-11-18 14:07:47.164674,599617029709801323,-469.00
2025-11-18 14:07:47.164674,599617029709801323,-493.00
2025-11-18 14:07:47.164674,599617029709801323,-503.00
2025-11-18 14:07:47.164674,599617029709801323,-515.00
2025-11-18 14:07:47.164674,599617029709801323,-522.00
2025-11-18 14:07:47.164674,599617029709801323,-496.00
2025-11-18 14:07:47.164674,599617029709801323,-426.00
2025-11-18 14:07:47.164674,599617029709801323,-346.00
2025-11-18 14:07:47.164674,599617029709801323,-273.00
2025-11-18 14:07:47.164674,599617029709801323,-167.00
2025-11-18 14:07:47.164674,599617029709801323,-38.00
2025-11-18 14:07:47.164674,599617029709801323,38.00
2025-11-18 14:07:47.164674,599617029709801323,82.00
2025-11-18 14:07:47.164674,599617029709801323,135.00
2025-11-18 14:07:47.164674,599617029709801323,162.00
2025-11-18 14:07:47.164674,599617029709801323,167.00
2025-11-18 14:07:47.164674,599617029709801323,171.00
2025-11-18 14:07:47.164674,599617029709801323,162.00
2025-11-18 14:07:47.164674,599617029709801323,145.00
2025-11-18 14:07:47.164674,599617029709801323,157.00
2025-11-18 14:07:47.164674,599617029709801323,179.00
2025-11-18 14:07:47.164674,599617029709801323,154.00
2025-11-18 14:07:47.164674,599617029709801323,106.00
2025-11-18 14:07:47.164674,599617029709801323,92.00
2025-11-18 14:07:47.164674,599617029709801323,104.00
2025-11-18 14:07:47.164674,599617029709801323,106.00
2025-11-18 14:07:47.164674,599617029709801323,82.00
2025-11-18 14:07:47.164674,599617029709801323,58.00
2025-11-18 14:07:47.164674,599617029709801323,48.00
2025-11-18 14:07:47.164674,599617029709801323,48.00
2025-11-18 14:07:47.703695,599617030270467846,50.00
2025-11-18 14:07:47.703695,599617030270467846,48.00
2025-11-18 14:07:47.703695,599617030270467846,36.00
2025-11-18 14:07:47.703695,599617030270467846,31.00
2025-11-18 14:07:47.703695,599617030270467846,36.00
2025-11-18 14:07:47.703695,599617030270467846,41.00
2025-11-18 14:07:47.703695,599617030270467846,41.00
2025-11-18 14:07:47.703695,599617030270467846,29.00
2025-11-18 14:07:47.703695,599617030270467846,21.00
2025-11-18 14:07:47.703695,599617030270467846,24.00
2025-11-18 14:07:47.703695,599617030270467846,29.00
2025-11-18 14:07:47.703695,599617030270467846,43.00
2025-11-18 14:07:47.703695,599617030270467846,55.00
2025-11-18 14:07:47.703695,599617030270467846,55.00
2025-11-18 14:07:47.703695,599617030270467846,50.00
2025-11-18 14:07:47.703695,599617030270467846,41.00
2025-11-18 14:07:47.703695,599617030270467846,24.00
2025-11-18 14:07:47.703695,599617030270467846,24.00
2025-11-18 14:07:47.703695,599617030270467846,41.00
2025-11-18 14:07:47.703695,599617030270467846,36.00
2025-11-18 14:07:47.703695,599617030270467846,9.00
2025-11-18 14:07:47.703695,599617030270467846,4.00
2025-11-18 14:07:47.703695,599617030270467846,9.00
2025-11-18 14:07:47.703695,599617030270467846,-7.00
2025-11-18 14:07:47.703695,599617030270467846,-2.00
2025-11-18 14:07:47.703695,599617030270467846,21.00
2025-11-18 14:07:47.703695,599617030270467846,16.00
2025-11-18 14:07:47.703695,599617030270467846,-9.00
2025-11-18 14:07:47.703695,599617030270467846,-19.00
2025-11-18 14:07:47.703695,599617030270467846,7.00
2025-11-18 14:07:47.703695,599617030270467846,41.00
2025-11-18 14:07:47.703695,599617030270467846,26.00
2025-11-18 14:07:47.703695,599617030270467846,12.00
2025-11-18 14:07:47.703695,599617030270467846,36.00
2025-11-18 14:07:47.703695,599617030270467846,33.00
2025-11-18 14:07:47.703695,599617030270467846,9.00
2025-11-18 14:07:47.703695,599617030270467846,-9.00
2025-11-18 14:07:47.703695,599617030270467846,-26.00
2025-11-18 14:07:47.703695,599617030270467846,-16.00
2025-11-18 14:07:47.703695,599617030270467846,-24.00
2025-11-18 14:07:47.703695,599617030270467846,-125.00
2025-11-18 14:07:47.703695,599617030270467846,-152.00
2025-11-18 14:07:47.703695,599617030270467846,145.00
2025-11-18 14:07:47.703695,599617030270467846,811.00
2025-11-18 14:07:47.703695,599617030270467846,1534.00
2025-11-18 14:07:47.703695,599617030270467846,1648.00
2025-11-18 14:07:47.703695,599617030270467846,958.00
2025-11-18 14:07:47.703695,599617030270467846,200.00
2025-11-18 14:07:47.703695,599617030270467846,-138.00
2025-11-18 14:07:47.703695,599617030270467846,-285.00
2025-11-18 14:07:47.703695,599617030270467846,-394.00
2025-11-18 14:07:47.703695,599617030270467846,-389.00
2025-11-18 14:07:47.703695,599617030270467846,-334.00
2025-11-18 14:07:47.703695,599617030270467846,-331.00
2025-11-18 14:07:47.703695,599617030270467846,-358.00
2025-11-18 14:07:47.703695,599617030270467846,-351.00
2025-11-18 14:07:47.703695,599617030270467846,-334.00
2025-11-18 14:07:47.703695,599617030270467846,-331.00
2025-11-18 14:07:47.703695,599617030270467846,-338.00
2025-11-18 14:07:47.703695,599617030270467846,-346.00
2025-11-18 14:07:47.703695,599617030270467846,-353.00
2025-11-18 14:07:47.703695,599617030270467846,-360.00
2025-11-18 14:07:47.703695,599617030270467846,-370.00
2025-11-18 14:07:47.703695,599617030270467846,-387.00
2025-11-18 14:07:47.703695,599617030270467846,-411.00
2025-11-18 14:07:47.703695,599617030270467846,-428.00
2025-11-18 14:07:47.703695,599617030270467846,-455.00
2025-11-18 14:07:47.703695,599617030270467846,-496.00
2025-11-18 14:07:47.703695,599617030270467846,-525.00
2025-11-18 14:07:47.703695,599617030270467846,-542.00
2025-11-18 14:07:47.703695,599617030270467846,-554.00
2025-11-18 14:07:47.703695,599617030270467846,-559.00
2025-11-18 14:07:47.703695,599617030270467846,-537.00
2025-11-18 14:07:48.301768,599617030831164889,-491.00
2025-11-18 14:07:48.301768,599617030831164889,-428.00
2025-11-18 14:07:48.301768,599617030831164889,-341.00
2025-11-18 14:07:48.301768,599617030831164889,-217.00
2025-11-18 14:07:48.301768,599617030831164889,-104.00
2025-11-18 14:07:48.301768,599617030831164889,-29.00
2025-11-18 14:07:48.301768,599617030831164889,36.00
2025-11-18 14:07:48.301768,599617030831164889,89.00
2025-11-18 14:07:48.301768,599617030831164889,118.00
2025-11-18 14:07:48.301768,599617030831164889,135.00
2025-11-18 14:07:48.301768,599617030831164889,150.00
2025-11-18 14:07:48.301768,599617030831164889,145.00
2025-11-18 14:07:48.301768,599617030831164889,130.00
2025-11-18 14:07:48.301768,599617030831164889,118.00
2025-11-18 14:07:48.301768,599617030831164889,106.00
2025-11-18 14:07:48.301768,599617030831164889,89.00
2025-11-18 14:07:48.301768,599617030831164889,82.00
2025-11-18 14:07:48.301768,599617030831164889,75.00
2025-11-18 14:07:48.301768,599617030831164889,67.00
2025-11-18 14:07:48.301768,599617030831164889,67.00
2025-11-18 14:07:48.301768,599617030831164889,60.00
2025-11-18 14:07:48.301768,599617030831164889,46.00
2025-11-18 14:07:48.301768,599617030831164889,38.00
2025-11-18 14:07:48.301768,599617030831164889,31.00
2025-11-18 14:07:48.301768,599617030831164889,26.00
2025-11-18 14:07:48.301768,599617030831164889,24.00
2025-11-18 14:07:48.301768,599617030831164889,24.00
2025-11-18 14:07:48.301768,599617030831164889,19.00
2025-11-18 14:07:48.301768,599617030831164889,4.00
2025-11-18 14:07:48.301768,599617030831164889,12.00
2025-11-18 14:07:48.301768,599617030831164889,43.00
2025-11-18 14:07:48.301768,599617030831164889,46.00
2025-11-18 14:07:48.301768,599617030831164889,24.00
2025-11-18 14:07:48.301768,599617030831164889,24.00
2025-11-18 14:07:48.301768,599617030831164889,24.00
2025-11-18 14:07:48.301768,599617030831164889,16.00
2025-11-18 14:07:48.301768,599617030831164889,16.00
2025-11-18 14:07:48.301768,599617030831164889,16.00
2025-11-18 14:07:48.301768,599617030831164889,12.00
2025-11-18 14:07:48.301768,599617030831164889,4.00
2025-11-18 14:07:48.301768,599617030831164889,0.00
2025-11-18 14:07:48.301768,599617030831164889,-4.00
2025-11-18 14:07:48.301768,599617030831164889,-12.00
2025-11-18 14:07:48.301768,599617030831164889,-36.00
2025-11-18 14:07:48.301768,599617030831164889,-12.00
2025-11-18 14:07:48.301768,599617030831164889,48.00
2025-11-18 14:07:48.301768,599617030831164889,29.00
2025-11-18 14:07:48.301768,599617030831164889,-19.00
2025-11-18 14:07:48.301768,599617030831164889,-12.00
2025-11-18 14:07:48.301768,599617030831164889,-9.00
2025-11-18 14:07:48.301768,599617030831164889,-43.00
2025-11-18 14:07:48.301768,599617030831164889,-60.00
2025-11-18 14:07:48.301768,599617030831164889,-53.00
2025-11-18 14:07:48.301768,599617030831164889,-31.00
2025-11-18 14:07:48.301768,599617030831164889,-21.00
2025-11-18 14:07:48.301768,599617030831164889,-19.00
2025-11-18 14:07:48.301768,599617030831164889,4.00
2025-11-18 14:07:48.301768,599617030831164889,-14.00
2025-11-18 14:07:48.301768,599617030831164889,-41.00
2025-11-18 14:07:48.301768,599617030831164889,7.00
2025-11-18 14:07:48.301768,599617030831164889,24.00
2025-11-18 14:07:48.301768,599617030831164889,-16.00
2025-11-18 14:07:48.301768,599617030831164889,-26.00
2025-11-18 14:07:48.301768,599617030831164889,-19.00
2025-11-18 14:07:48.301768,599617030831164889,-7.00
2025-11-18 14:07:48.301768,599617030831164889,0.00
2025-11-18 14:07:48.301768,599617030831164889,-4.00
2025-11-18 14:07:48.301768,599617030831164889,-19.00
2025-11-18 14:07:48.301768,599617030831164889,-58.00
2025-11-18 14:07:48.301768,599617030831164889,-154.00
2025-11-18 14:07:48.301768,599617030831164889,-239.00
2025-11-18 14:07:48.301768,599617030831164889,-41.00
2025-11-18 14:07:48.301768,599617030831164889,624.00
2025-11-18 14:07:48.871383,599617031391831412,1430.00
2025-11-18 14:07:48.871383,599617031391831412,1622.00
2025-11-18 14:07:48.871383,599617031391831412,992.00
2025-11-18 14:07:48.871383,599617031391831412,263.00
2025-11-18 14:07:48.871383,599617031391831412,-106.00
2025-11-18 14:07:48.871383,599617031391831412,-292.00
2025-11-18 14:07:48.871383,599617031391831412,-387.00
2025-11-18 14:07:48.871383,599617031391831412,-382.00
2025-11-18 14:07:48.871383,599617031391831412,-372.00
2025-11-18 14:07:48.871383,599617031391831412,-389.00
2025-11-18 14:07:48.871383,599617031391831412,-384.00
2025-11-18 14:07:48.871383,599617031391831412,-380.00
2025-11-18 14:07:48.871383,599617031391831412,-435.00
2025-11-18 14:07:48.871383,599617031391831412,-409.00
2025-11-18 14:07:48.871383,599617031391831412,-261.00
2025-11-18 14:07:48.871383,599617031391831412,-278.00
2025-11-18 14:07:48.871383,599617031391831412,-392.00
2025-11-18 14:07:48.871383,599617031391831412,-360.00
2025-11-18 14:07:48.871383,599617031391831412,-329.00
2025-11-18 14:07:48.871383,599617031391831412,-384.00
2025-11-18 14:07:48.871383,599617031391831412,-416.00
2025-11-18 14:07:48.871383,599617031391831412,-445.00
2025-11-18 14:07:48.871383,599617031391831412,-518.00
2025-11-18 14:07:48.871383,599617031391831412,-496.00
2025-11-18 14:07:48.871383,599617031391831412,-430.00
2025-11-18 14:07:48.871383,599617031391831412,-506.00
2025-11-18 14:07:48.871383,599617031391831412,-568.00
2025-11-18 14:07:48.871383,599617031391831412,-527.00
2025-11-18 14:07:48.871383,599617031391831412,-513.00
2025-11-18 14:07:48.871383,599617031391831412,-493.00
2025-11-18 14:07:48.871383,599617031391831412,-418.00
2025-11-18 14:07:48.871383,599617031391831412,-324.00
2025-11-18 14:07:48.871383,599617031391831412,-225.00
2025-11-18 14:07:48.871383,599617031391831412,-123.00
2025-11-18 14:07:48.871383,599617031391831412,-36.00
2025-11-18 14:07:48.871383,599617031391831412,33.00
2025-11-18 14:07:48.871383,599617031391831412,75.00
2025-11-18 14:07:48.871383,599617031391831412,70.00
2025-11-18 14:07:48.871383,599617031391831412,92.00
2025-11-18 14:07:48.871383,599617031391831412,196.00
2025-11-18 14:07:48.871383,599617031391831412,222.00
2025-11-18 14:07:48.871383,599617031391831412,130.00
2025-11-18 14:07:48.871383,599617031391831412,108.00
2025-11-18 14:07:48.871383,599617031391831412,145.00
2025-11-18 14:07:48.871383,599617031391831412,118.00
2025-11-18 14:07:48.871383,599617031391831412,84.00
2025-11-18 14:07:48.871383,599617031391831412,87.00
2025-11-18 14:07:48.871383,599617031391831412,79.00
2025-11-18 14:07:48.871383,599617031391831412,62.00
2025-11-18 14:07:48.871383,599617031391831412,58.00
2025-11-18 14:07:48.871383,599617031391831412,53.00
2025-11-18 14:07:48.871383,599617031391831412,43.00
2025-11-18 14:07:48.871383,599617031391831412,31.00
2025-11-18 14:07:48.871383,599617031391831412,26.00
2025-11-18 14:07:48.871383,599617031391831412,33.00
2025-11-18 14:07:48.871383,599617031391831412,41.00
2025-11-18 14:07:48.871383,599617031391831412,38.00
2025-11-18 14:07:48.871383,599617031391831412,36.00
2025-11-18 14:07:48.871383,599617031391831412,33.00
2025-11-18 14:07:48.871383,599617031391831412,24.00
2025-11-18 14:07:48.871383,599617031391831412,21.00
2025-11-18 14:07:48.871383,599617031391831412,26.00
2025-11-18 14:07:48.871383,599617031391831412,21.00
2025-11-18 14:07:48.871383,599617031391831412,19.00
2025-11-18 14:07:48.871383,599617031391831412,31.00
2025-11-18 14:07:48.871383,599617031391831412,26.00
2025-11-18 14:07:48.871383,599617031391831412,0.00
2025-11-18 14:07:48.871383,599617031391831412,0.00
2025-11-18 14:07:48.871383,599617031391831412,46.00
2025-11-18 14:07:48.871383,599617031391831412,50.00
2025-11-18 14:07:48.871383,599617031391831412,9.00
2025-11-18 14:07:48.871383,599617031391831412,7.00
2025-11-18 14:07:48.871383,599617031391831412,19.00
2025-11-18 14:07:49.412489,599617031952497935,4.00
2025-11-18 14:07:49.412489,599617031952497935,0.00
2025-11-18 14:07:49.412489,599617031952497935,4.00
2025-11-18 14:07:49.412489,599617031952497935,0.00
2025-11-18 14:07:49.412489,599617031952497935,-7.00
2025-11-18 14:07:49.412489,599617031952497935,-9.00
2025-11-18 14:07:49.412489,599617031952497935,-9.00
2025-11-18 14:07:49.412489,599617031952497935,-9.00
2025-11-18 14:07:49.412489,599617031952497935,-16.00
2025-11-18 14:07:49.412489,599617031952497935,-33.00
2025-11-18 14:07:49.412489,599617031952497935,-41.00
2025-11-18 14:07:49.412489,599617031952497935,-38.00
2025-11-18 14:07:49.412489,599617031952497935,-36.00
2025-11-18 14:07:49.412489,599617031952497935,-29.00
2025-11-18 14:07:49.412489,599617031952497935,-19.00
2025-11-18 14:07:49.412489,599617031952497935,-21.00
2025-11-18 14:07:49.412489,599617031952497935,-26.00
2025-11-18 14:07:49.412489,599617031952497935,-26.00
2025-11-18 14:07:49.412489,599617031952497935,-21.00
2025-11-18 14:07:49.412489,599617031952497935,-16.00
2025-11-18 14:07:49.412489,599617031952497935,-4.00
2025-11-18 14:07:49.412489,599617031952497935,0.00
2025-11-18 14:07:49.412489,599617031952497935,-2.00
2025-11-18 14:07:49.412489,599617031952497935,-7.00
2025-11-18 14:07:49.412489,599617031952497935,-9.00
2025-11-18 14:07:49.412489,599617031952497935,-14.00
2025-11-18 14:07:49.412489,599617031952497935,-21.00
2025-11-18 14:07:49.412489,599617031952497935,-43.00
2025-11-18 14:07:49.412489,599617031952497935,-125.00
2025-11-18 14:07:49.412489,599617031952497935,-239.00
2025-11-18 14:07:49.412489,599617031952497935,-159.00
2025-11-18 14:07:49.412489,599617031952497935,370.00
2025-11-18 14:07:49.412489,599617031952497935,1220.00
2025-11-18 14:07:49.412489,599617031952497935,1660.00
2025-11-18 14:07:49.412489,599617031952497935,1164.00
2025-11-18 14:07:49.412489,599617031952497935,358.00
2025-11-18 14:07:49.412489,599617031952497935,-55.00
2025-11-18 14:07:49.412489,599617031952497935,-230.00
2025-11-18 14:07:49.412489,599617031952497935,-360.00
2025-11-18 14:07:49.412489,599617031952497935,-370.00
2025-11-18 14:07:49.412489,599617031952497935,-334.00
2025-11-18 14:07:49.412489,599617031952497935,-353.00
2025-11-18 14:07:49.412489,599617031952497935,-360.00
2025-11-18 14:07:49.412489,599617031952497935,-338.00
2025-11-18 14:07:49.412489,599617031952497935,-336.00
2025-11-18 14:07:49.412489,599617031952497935,-341.00
2025-11-18 14:07:49.412489,599617031952497935,-338.00
2025-11-18 14:07:49.412489,599617031952497935,-343.00
2025-11-18 14:07:49.412489,599617031952497935,-351.00
2025-11-18 14:07:49.412489,599617031952497935,-351.00
2025-11-18 14:07:49.412489,599617031952497935,-355.00
2025-11-18 14:07:49.412489,599617031952497935,-380.00
2025-11-18 14:07:49.412489,599617031952497935,-399.00
2025-11-18 14:07:49.412489,599617031952497935,-418.00
2025-11-18 14:07:49.412489,599617031952497935,-445.00
2025-11-18 14:07:49.412489,599617031952497935,-476.00
2025-11-18 14:07:49.412489,599617031952497935,-498.00
2025-11-18 14:07:49.412489,599617031952497935,-513.00
2025-11-18 14:07:49.412489,599617031952497935,-530.00
2025-11-18 14:07:49.412489,599617031952497935,-542.00
2025-11-18 14:07:49.412489,599617031952497935,-527.00
2025-11-18 14:07:49.412489,599617031952497935,-476.00
2025-11-18 14:07:49.412489,599617031952497935,-411.00
2025-11-18 14:07:49.412489,599617031952497935,-336.00
2025-11-18 14:07:49.412489,599617031952497935,-239.00
2025-11-18 14:07:49.412489,599617031952497935,-140.00
2025-11-18 14:07:49.412489,599617031952497935,-55.00
2025-11-18 14:07:49.412489,599617031952497935,19.00
2025-11-18 14:07:49.412489,599617031952497935,77.00
2025-11-18 14:07:49.412489,599617031952497935,116.00
2025-11-18 14:07:49.412489,599617031952497935,138.00
2025-11-18 14:07:49.412489,599617031952497935,142.00
2025-11-18 14:07:49.412489,599617031952497935,142.00
2025-11-18 14:07:49.981946,599617032513164458,140.00
2025-11-18 14:07:49.981946,599617032513164458,138.00
2025-11-18 14:07:49.981946,599617032513164458,123.00
2025-11-18 14:07:49.981946,599617032513164458,106.00
2025-11-18 14:07:49.981946,599617032513164458,96.00
2025-11-18 14:07:49.981946,599617032513164458,89.00
2025-11-18 14:07:49.981946,599617032513164458,79.00
2025-11-18 14:07:49.981946,599617032513164458,70.00
2025-11-18 14:07:49.981946,599617032513164458,62.00
2025-11-18 14:07:49.981946,599617032513164458,58.00
2025-11-18 14:07:49.981946,599617032513164458,50.00
2025-11-18 14:07:49.981946,599617032513164458,41.00
2025-11-18 14:07:49.981946,599617032513164458,36.00
2025-11-18 14:07:49.981946,599617032513164458,29.00
2025-11-18 14:07:49.981946,599617032513164458,26.00
2025-11-18 14:07:49.981946,599617032513164458,26.00
2025-11-18 14:07:49.981946,599617032513164458,24.00
2025-11-18 14:07:49.981946,599617032513164458,21.00
2025-11-18 14:07:49.981946,599617032513164458,24.00
2025-11-18 14:07:49.981946,599617032513164458,29.00
2025-11-18 14:07:49.981946,599617032513164458,29.00
2025-11-18 14:07:49.981946,599617032513164458,24.00
2025-11-18 14:07:49.981946,599617032513164458,19.00
2025-11-18 14:07:49.981946,599617032513164458,21.00
2025-11-18 14:07:49.981946,599617032513164458,19.00
2025-11-18 14:07:49.981946,599617032513164458,9.00
2025-11-18 14:07:49.981946,599617032513164458,4.00
2025-11-18 14:07:49.981946,599617032513164458,9.00
2025-11-18 14:07:49.981946,599617032513164458,14.00
2025-11-18 14:07:49.981946,599617032513164458,7.00
2025-11-18 14:07:49.981946,599617032513164458,0.00
2025-11-18 14:07:49.981946,599617032513164458,7.00
2025-11-18 14:07:49.981946,599617032513164458,16.00
2025-11-18 14:07:49.981946,599617032513164458,4.00
2025-11-18 14:07:49.981946,599617032513164458,-4.00
2025-11-18 14:07:49.981946,599617032513164458,2.00
2025-11-18 14:07:49.981946,599617032513164458,2.00
2025-11-18 14:07:49.981946,599617032513164458,-7.00
2025-11-18 14:07:49.981946,599617032513164458,-9.00
2025-11-18 14:07:49.981946,599617032513164458,-9.00
2025-11-18 14:07:49.981946,599617032513164458,-24.00
2025-11-18 14:07:49.981946,599617032513164458,-33.00
2025-11-18 14:07:49.981946,599617032513164458,-38.00
2025-11-18 14:07:49.981946,599617032513164458,-41.00
2025-11-18 14:07:49.981946,599617032513164458,-33.00
2025-11-18 14:07:49.981946,599617032513164458,-21.00
2025-11-18 14:07:49.981946,599617032513164458,-24.00
2025-11-18 14:07:49.981946,599617032513164458,-16.00
2025-11-18 14:07:49.981946,599617032513164458,-7.00
2025-11-18 14:07:49.981946,599617032513164458,-21.00
2025-11-18 14:07:49.981946,599617032513164458,-24.00
2025-11-18 14:07:49.981946,599617032513164458,2.00
2025-11-18 14:07:49.981946,599617032513164458,9.00
2025-11-18 14:07:49.981946,599617032513164458,-2.00
2025-11-18 14:07:49.981946,599617032513164458,-7.00
2025-11-18 14:07:49.981946,599617032513164458,-9.00
2025-11-18 14:07:49.981946,599617032513164458,-21.00
2025-11-18 14:07:49.981946,599617032513164458,-26.00
2025-11-18 14:07:49.981946,599617032513164458,-31.00
2025-11-18 14:07:49.981946,599617032513164458,-92.00
2025-11-18 14:07:49.981946,599617032513164458,-222.00
2025-11-18 14:07:49.981946,599617032513164458,-249.00
2025-11-18 14:07:49.981946,599617032513164458,106.00
2025-11-18 14:07:49.981946,599617032513164458,898.00
2025-11-18 14:07:49.981946,599617032513164458,1564.00
2025-11-18 14:07:49.981946,599617032513164458,1355.00
2025-11-18 14:07:49.981946,599617032513164458,581.00
2025-11-18 14:07:49.981946,599617032513164458,55.00
2025-11-18 14:07:49.981946,599617032513164458,-167.00
2025-11-18 14:07:49.981946,599617032513164458,-302.00
2025-11-18 14:07:49.981946,599617032513164458,-336.00
2025-11-18 14:07:49.981946,599617032513164458,-324.00
2025-11-18 14:07:49.981946,599617032513164458,-343.00
2025-11-18 14:07:50.522226,599617033073861499,-348.00
2025-11-18 14:07:50.522226,599617033073861499,-329.00
2025-11-18 14:07:50.522226,599617033073861499,-322.00
2025-11-18 14:07:50.522226,599617033073861499,-324.00
2025-11-18 14:07:50.522226,599617033073861499,-324.00
2025-11-18 14:07:50.522226,599617033073861499,-326.00
2025-11-18 14:07:50.522226,599617033073861499,-334.00
2025-11-18 14:07:50.522226,599617033073861499,-343.00
2025-11-18 14:07:50.522226,599617033073861499,-351.00
2025-11-18 14:07:50.522226,599617033073861499,-363.00
2025-11-18 14:07:50.522226,599617033073861499,-380.00
2025-11-18 14:07:50.522226,599617033073861499,-394.00
2025-11-18 14:07:50.522226,599617033073861499,-411.00
2025-11-18 14:07:50.522226,599617033073861499,-440.00
2025-11-18 14:07:50.522226,599617033073861499,-474.00
2025-11-18 14:07:50.522226,599617033073861499,-506.00
2025-11-18 14:07:50.522226,599617033073861499,-522.00
2025-11-18 14:07:50.522226,599617033073861499,-520.00
2025-11-18 14:07:50.522226,599617033073861499,-510.00
2025-11-18 14:07:50.522226,599617033073861499,-489.00
2025-11-18 14:07:50.522226,599617033073861499,-433.00
2025-11-18 14:07:50.522226,599617033073861499,-329.00
2025-11-18 14:07:50.522226,599617033073861499,-225.00
2025-11-18 14:07:50.522226,599617033073861499,-150.00
2025-11-18 14:07:50.522226,599617033073861499,-72.00
2025-11-18 14:07:50.522226,599617033073861499,16.00
2025-11-18 14:07:50.522226,599617033073861499,79.00
2025-11-18 14:07:50.522226,599617033073861499,111.00
2025-11-18 14:07:50.522226,599617033073861499,128.00
2025-11-18 14:07:50.522226,599617033073861499,142.00
2025-11-18 14:07:50.522226,599617033073861499,145.00
2025-11-18 14:07:50.522226,599617033073861499,142.00
2025-11-18 14:07:50.522226,599617033073861499,142.00
2025-11-18 14:07:50.522226,599617033073861499,130.00
2025-11-18 14:07:50.522226,599617033073861499,113.00
2025-11-18 14:07:50.522226,599617033073861499,108.00
2025-11-18 14:07:50.522226,599617033073861499,104.00
2025-11-18 14:07:50.522226,599617033073861499,89.00
2025-11-18 14:07:50.522226,599617033073861499,79.00
2025-11-18 14:07:50.522226,599617033073861499,72.00
2025-11-18 14:07:50.522226,599617033073861499,65.00
2025-11-18 14:07:50.522226,599617033073861499,58.00
2025-11-18 14:07:50.522226,599617033073861499,53.00
2025-11-18 14:07:50.522226,599617033073861499,48.00
2025-11-18 14:07:50.522226,599617033073861499,41.00
2025-11-18 14:07:50.522226,599617033073861499,41.00
2025-11-18 14:07:50.522226,599617033073861499,38.00
2025-11-18 14:07:50.522226,599617033073861499,31.00
2025-11-18 14:07:50.522226,599617033073861499,29.00
2025-11-18 14:07:50.522226,599617033073861499,36.00
2025-11-18 14:07:50.522226,599617033073861499,33.00
2025-11-18 14:07:50.522226,599617033073861499,29.00
2025-11-18 14:07:50.522226,599617033073861499,31.00
2025-11-18 14:07:50.522226,599617033073861499,31.00
2025-11-18 14:07:50.522226,599617033073861499,29.00
2025-11-18 14:07:50.522226,599617033073861499,26.00
2025-11-18 14:07:50.522226,599617033073861499,21.00
2025-11-18 14:07:50.522226,599617033073861499,21.00
2025-11-18 14:07:50.522226,599617033073861499,19.00
2025-11-18 14:07:50.522226,599617033073861499,12.00
2025-11-18 14:07:50.522226,599617033073861499,9.00
2025-11-18 14:07:50.522226,599617033073861499,26.00
2025-11-18 14:07:50.522226,599617033073861499,31.00
2025-11-18 14:07:50.522226,599617033073861499,12.00
2025-11-18 14:07:50.522226,599617033073861499,4.00
2025-11-18 14:07:50.522226,599617033073861499,14.00
2025-11-18 14:07:50.522226,599617033073861499,16.00
2025-11-18 14:07:50.522226,599617033073861499,9.00
2025-11-18 14:07:50.522226,599617033073861499,2.00
2025-11-18 14:07:50.522226,599617033073861499,-2.00
2025-11-18 14:07:50.522226,599617033073861499,-4.00
2025-11-18 14:07:50.522226,599617033073861499,-2.00
2025-11-18 14:07:50.522226,599617033073861499,0.00
2025-11-18 14:07:51.062693,599617033634528022,-12.00
2025-11-18 14:07:51.062693,599617033634528022,-24.00
2025-11-18 14:07:51.062693,599617033634528022,-29.00
2025-11-18 14:07:51.062693,599617033634528022,-33.00
2025-11-18 14:07:51.062693,599617033634528022,-29.00
2025-11-18 14:07:51.062693,599617033634528022,-9.00
2025-11-18 14:07:51.062693,599617033634528022,-2.00
2025-11-18 14:07:51.062693,599617033634528022,-2.00
2025-11-18 14:07:51.062693,599617033634528022,-7.00
2025-11-18 14:07:51.062693,599617033634528022,-19.00
2025-11-18 14:07:51.062693,599617033634528022,-16.00
2025-11-18 14:07:51.062693,599617033634528022,2.00
2025-11-18 14:07:51.062693,599617033634528022,0.00
2025-11-18 14:07:51.062693,599617033634528022,-9.00
2025-11-18 14:07:51.062693,599617033634528022,4.00
2025-11-18 14:07:51.062693,599617033634528022,9.00
2025-11-18 14:07:51.062693,599617033634528022,-9.00
2025-11-18 14:07:51.062693,599617033634528022,-12.00
2025-11-18 14:07:51.062693,599617033634528022,-9.00
2025-11-18 14:07:51.062693,599617033634528022,-70.00
2025-11-18 14:07:51.062693,599617033634528022,-191.00
2025-11-18 14:07:51.062693,599617033634528022,-213.00
2025-11-18 14:07:51.062693,599617033634528022,123.00
2025-11-18 14:07:51.062693,599617033634528022,878.00
2025-11-18 14:07:51.062693,599617033634528022,1571.00
2025-11-18 14:07:51.062693,599617033634528022,1459.00
2025-11-18 14:07:51.062693,599617033634528022,702.00
2025-11-18 14:07:51.062693,599617033634528022,87.00
2025-11-18 14:07:51.062693,599617033634528022,-174.00
2025-11-18 14:07:51.062693,599617033634528022,-307.00
2025-11-18 14:07:51.062693,599617033634528022,-372.00
2025-11-18 14:07:51.062693,599617033634528022,-355.00
2025-11-18 14:07:51.062693,599617033634528022,-343.00
2025-11-18 14:07:51.062693,599617033634528022,-355.00
2025-11-18 14:07:51.062693,599617033634528022,-343.00
2025-11-18 14:07:51.062693,599617033634528022,-331.00
2025-11-18 14:07:51.062693,599617033634528022,-331.00
2025-11-18 14:07:51.062693,599617033634528022,-329.00
2025-11-18 14:07:51.062693,599617033634528022,-326.00
2025-11-18 14:07:51.062693,599617033634528022,-338.00
2025-11-18 14:07:51.062693,599617033634528022,-353.00
2025-11-18 14:07:51.062693,599617033634528022,-370.00
2025-11-18 14:07:51.062693,599617033634528022,-375.00
2025-11-18 14:07:51.062693,599617033634528022,-375.00
2025-11-18 14:07:51.062693,599617033634528022,-389.00
2025-11-18 14:07:51.062693,599617033634528022,-414.00
2025-11-18 14:07:51.062693,599617033634528022,-435.00
2025-11-18 14:07:51.062693,599617033634528022,-460.00
2025-11-18 14:07:51.062693,599617033634528022,-489.00
2025-11-18 14:07:51.062693,599617033634528022,-527.00
2025-11-18 14:07:51.062693,599617033634528022,-549.00
2025-11-18 14:07:51.062693,599617033634528022,-537.00
2025-11-18 14:07:51.062693,599617033634528022,-506.00
2025-11-18 14:07:51.062693,599617033634528022,-447.00
2025-11-18 14:07:51.062693,599617033634528022,-360.00
2025-11-18 14:07:51.062693,599617033634528022,-268.00
2025-11-18 14:07:51.062693,599617033634528022,-184.00
2025-11-18 14:07:51.062693,599617033634528022,-94.00
2025-11-18 14:07:51.062693,599617033634528022,-7.00
2025-11-18 14:07:51.062693,599617033634528022,55.00
2025-11-18 14:07:51.062693,599617033634528022,92.00
2025-11-18 14:07:51.062693,599617033634528022,113.00
2025-11-18 14:07:51.062693,599617033634528022,138.00
2025-11-18 14:07:51.062693,599617033634528022,152.00
2025-11-18 14:07:51.062693,599617033634528022,140.00
2025-11-18 14:07:51.062693,599617033634528022,125.00
2025-11-18 14:07:51.062693,599617033634528022,123.00
2025-11-18 14:07:51.062693,599617033634528022,123.00
2025-11-18 14:07:51.062693,599617033634528022,108.00
2025-11-18 14:07:51.062693,599617033634528022,87.00
2025-11-18 14:07:51.062693,599617033634528022,70.00
2025-11-18 14:07:51.062693,599617033634528022,70.00
2025-11-18 14:07:51.062693,599617033634528022,70.00
2025-11-18 14:07:51.661328,599617034195194547,53.00
2025-11-18 14:07:51.661328,599617034195194547,36.00
2025-11-18 14:07:51.661328,599617034195194547,31.00
2025-11-18 14:07:51.661328,599617034195194547,33.00
2025-11-18 14:07:51.661328,599617034195194547,29.00
2025-11-18 14:07:51.661328,599617034195194547,21.00
2025-11-18 14:07:51.661328,599617034195194547,24.00
2025-11-18 14:07:51.661328,599617034195194547,21.00
2025-11-18 14:07:51.661328,599617034195194547,16.00
2025-11-18 14:07:51.661328,599617034195194547,12.00
2025-11-18 14:07:51.661328,599617034195194547,16.00
2025-11-18 14:07:51.661328,599617034195194547,33.00
2025-11-18 14:07:51.661328,599617034195194547,24.00
2025-11-18 14:07:51.661328,599617034195194547,7.00
2025-11-18 14:07:51.661328,599617034195194547,19.00
2025-11-18 14:07:51.661328,599617034195194547,24.00
2025-11-18 14:07:51.661328,599617034195194547,12.00
2025-11-18 14:07:51.661328,599617034195194547,4.00
2025-11-18 14:07:51.661328,599617034195194547,-21.00
2025-11-18 14:07:51.661328,599617034195194547,-12.00
2025-11-18 14:07:51.661328,599617034195194547,46.00
2025-11-18 14:07:51.661328,599617034195194547,38.00
2025-11-18 14:07:51.661328,599617034195194547,-9.00
2025-11-18 14:07:51.661328,599617034195194547,-2.00
2025-11-18 14:07:51.661328,599617034195194547,14.00
2025-11-18 14:07:51.661328,599617034195194547,-4.00
2025-11-18 14:07:51.661328,599617034195194547,-14.00
2025-11-18 14:07:51.661328,599617034195194547,4.00
2025-11-18 14:07:51.661328,599617034195194547,12.00
2025-11-18 14:07:51.661328,599617034195194547,-12.00
2025-11-18 14:07:51.661328,599617034195194547,-16.00
2025-11-18 14:07:51.661328,599617034195194547,0.00
2025-11-18 14:07:51.661328,599617034195194547,0.00
2025-11-18 14:07:51.661328,599617034195194547,-12.00
2025-11-18 14:07:51.661328,599617034195194547,-16.00
2025-11-18 14:07:51.661328,599617034195194547,-24.00
2025-11-18 14:07:51.661328,599617034195194547,-38.00
2025-11-18 14:07:51.661328,599617034195194547,-50.00
2025-11-18 14:07:51.661328,599617034195194547,-58.00
2025-11-18 14:07:51.661328,599617034195194547,-41.00
2025-11-18 14:07:51.661328,599617034195194547,-7.00
2025-11-18 14:07:51.661328,599617034195194547,-2.00
2025-11-18 14:07:51.661328,599617034195194547,-19.00
2025-11-18 14:07:51.661328,599617034195194547,-33.00
2025-11-18 14:07:51.661328,599617034195194547,-29.00
2025-11-18 14:07:51.661328,599617034195194547,-21.00
2025-11-18 14:07:51.661328,599617034195194547,-19.00
2025-11-18 14:07:51.661328,599617034195194547,-7.00
2025-11-18 14:07:51.661328,599617034195194547,2.00
2025-11-18 14:07:51.661328,599617034195194547,-9.00
2025-11-18 14:07:51.661328,599617034195194547,-33.00
2025-11-18 14:07:51.661328,599617034195194547,-43.00
2025-11-18 14:07:51.661328,599617034195194547,-14.00
2025-11-18 14:07:51.661328,599617034195194547,0.00
2025-11-18 14:07:51.661328,599617034195194547,-82.00
2025-11-18 14:07:51.661328,599617034195194547,-210.00
2025-11-18 14:07:51.661328,599617034195194547,-208.00
2025-11-18 14:07:51.661328,599617034195194547,125.00
2025-11-18 14:07:51.661328,599617034195194547,876.00
2025-11-18 14:07:51.661328,599617034195194547,1566.00
2025-11-18 14:07:51.661328,599617034195194547,1418.00
2025-11-18 14:07:51.661328,599617034195194547,636.00
2025-11-18 14:07:51.661328,599617034195194547,67.00
2025-11-18 14:07:51.661328,599617034195194547,-159.00
2025-11-18 14:07:51.661328,599617034195194547,-317.00
2025-11-18 14:07:51.661328,599617034195194547,-377.00
2025-11-18 14:07:51.661328,599617034195194547,-334.00
2025-11-18 14:07:51.661328,599617034195194547,-336.00
2025-11-18 14:07:51.661328,599617034195194547,-368.00
2025-11-18 14:07:51.661328,599617034195194547,-353.00
2025-11-18 14:07:51.661328,599617034195194547,-329.00
2025-11-18 14:07:51.661328,599617034195194547,-331.00
2025-11-18 14:07:51.661328,599617034195194547,-338.00
2025-11-18 14:07:52.261398,599617034755891588,-341.00
2025-11-18 14:07:52.261398,599617034755891588,-343.00
2025-11-18 14:07:52.261398,599617034755891588,-351.00
2025-11-18 14:07:52.261398,599617034755891588,-355.00
2025-11-18 14:07:52.261398,599617034755891588,-363.00
2025-11-18 14:07:52.261398,599617034755891588,-382.00
2025-11-18 14:07:52.261398,599617034755891588,-406.00
2025-11-18 14:07:52.261398,599617034755891588,-430.00
2025-11-18 14:07:52.261398,599617034755891588,-462.00
2025-11-18 14:07:52.261398,599617034755891588,-489.00
2025-11-18 14:07:52.261398,599617034755891588,-503.00
2025-11-18 14:07:52.261398,599617034755891588,-527.00
2025-11-18 14:07:52.261398,599617034755891588,-547.00
2025-11-18 14:07:52.261398,599617034755891588,-537.00
2025-11-18 14:07:52.261398,599617034755891588,-503.00
2025-11-18 14:07:52.261398,599617034755891588,-455.00
2025-11-18 14:07:52.261398,599617034755891588,-375.00
2025-11-18 14:07:52.261398,599617034755891588,-271.00
2025-11-18 14:07:52.261398,599617034755891588,-179.00
2025-11-18 14:07:52.261398,599617034755891588,-99.00
2025-11-18 14:07:52.261398,599617034755891588,-21.00
2025-11-18 14:07:52.261398,599617034755891588,50.00
2025-11-18 14:07:52.261398,599617034755891588,101.00
2025-11-18 14:07:52.261398,599617034755891588,121.00
2025-11-18 14:07:52.261398,599617034755891588,142.00
2025-11-18 14:07:52.261398,599617034755891588,164.00
2025-11-18 14:07:52.261398,599617034755891588,147.00
2025-11-18 14:07:52.261398,599617034755891588,123.00
2025-11-18 14:07:52.261398,599617034755891588,121.00
2025-11-18 14:07:52.261398,599617034755891588,123.00
2025-11-18 14:07:52.261398,599617034755891588,113.00
2025-11-18 14:07:52.261398,599617034755891588,94.00
2025-11-18 14:07:52.261398,599617034755891588,82.00
2025-11-18 14:07:52.261398,599617034755891588,75.00
2025-11-18 14:07:52.261398,599617034755891588,60.00
2025-11-18 14:07:52.261398,599617034755891588,53.00
2025-11-18 14:07:52.261398,599617034755891588,48.00
2025-11-18 14:07:52.261398,599617034755891588,43.00
2025-11-18 14:07:52.261398,599617034755891588,38.00
2025-11-18 14:07:52.261398,599617034755891588,26.00
2025-11-18 14:07:52.261398,599617034755891588,21.00
2025-11-18 14:07:52.261398,599617034755891588,26.00
2025-11-18 14:07:52.261398,599617034755891588,24.00
2025-11-18 14:07:52.261398,599617034755891588,14.00
2025-11-18 14:07:52.261398,599617034755891588,19.00
2025-11-18 14:07:52.261398,599617034755891588,26.00
2025-11-18 14:07:52.261398,599617034755891588,24.00
2025-11-18 14:07:52.261398,599617034755891588,19.00
2025-11-18 14:07:52.261398,599617034755891588,24.00
2025-11-18 14:07:52.261398,599617034755891588,29.00
2025-11-18 14:07:52.261398,599617034755891588,19.00
2025-11-18 14:07:52.261398,599617034755891588,14.00
2025-11-18 14:07:52.261398,599617034755891588,14.00
2025-11-18 14:07:52.261398,599617034755891588,12.00
2025-11-18 14:07:52.261398,599617034755891588,9.00
2025-11-18 14:07:52.261398,599617034755891588,7.00
2025-11-18 14:07:52.261398,599617034755891588,2.00
2025-11-18 14:07:52.261398,599617034755891588,2.00
2025-11-18 14:07:52.261398,599617034755891588,7.00
2025-11-18 14:07:52.261398,599617034755891588,4.00
2025-11-18 14:07:52.261398,599617034755891588,7.00
2025-11-18 14:07:52.261398,599617034755891588,9.00
2025-11-18 14:07:52.261398,599617034755891588,0.00
2025-11-18 14:07:52.261398,599617034755891588,-12.00
2025-11-18 14:07:52.261398,599617034755891588,-12.00
2025-11-18 14:07:52.261398,599617034755891588,2.00
2025-11-18 14:07:52.261398,599617034755891588,0.00
2025-11-18 14:07:52.261398,599617034755891588,-24.00
2025-11-18 14:07:52.261398,599617034755891588,-41.00
2025-11-18 14:07:52.261398,599617034755891588,-33.00
2025-11-18 14:07:52.261398,599617034755891588,-33.00
2025-11-18 14:07:52.261398,599617034755891588,-36.00
2025-11-18 14:07:52.261398,599617034755891588,-19.00
2025-11-18 14:07:52.772566,599617035316558111,-2.00
2025-11-18 14:07:52.772566,599617035316558111,-2.00
2025-11-18 14:07:52.772566,599617035316558111,-14.00
2025-11-18 14:07:52.772566,599617035316558111,-29.00
2025-11-18 14:07:52.772566,599617035316558111,-24.00
2025-11-18 14:07:52.772566,599617035316558111,-2.00
2025-11-18 14:07:52.772566,599617035316558111,4.00
2025-11-18 14:07:52.772566,599617035316558111,2.00
2025-11-18 14:07:52.772566,599617035316558111,9.00
2025-11-18 14:07:52.772566,599617035316558111,0.00
2025-11-18 14:07:52.772566,599617035316558111,-12.00
2025-11-18 14:07:52.772566,599617035316558111,-4.00
2025-11-18 14:07:52.772566,599617035316558111,-12.00
2025-11-18 14:07:52.772566,599617035316558111,-70.00
2025-11-18 14:07:52.772566,599617035316558111,-184.00
2025-11-18 14:07:52.772566,599617035316558111,-239.00
2025-11-18 14:07:52.772566,599617035316558111,7.00
2025-11-18 14:07:52.772566,599617035316558111,699.00
2025-11-18 14:07:52.772566,599617035316558111,1476.00
2025-11-18 14:07:52.772566,599617035316558111,1537.00
2025-11-18 14:07:52.772566,599617035316558111,818.00
2025-11-18 14:07:52.772566,599617035316558111,159.00
2025-11-18 14:07:52.772566,599617035316558111,-113.00
2025-11-18 14:07:52.772566,599617035316558111,-268.00
2025-11-18 14:07:52.772566,599617035316558111,-358.00
2025-11-18 14:07:52.772566,599617035316558111,-351.00
2025-11-18 14:07:52.772566,599617035316558111,-341.00
2025-11-18 14:07:52.772566,599617035316558111,-351.00
2025-11-18 14:07:52.772566,599617035316558111,-341.00
2025-11-18 14:07:52.772566,599617035316558111,-336.00
2025-11-18 14:07:52.772566,599617035316558111,-346.00
2025-11-18 14:07:52.772566,599617035316558111,-343.00
2025-11-18 14:07:52.772566,599617035316558111,-331.00
2025-11-18 14:07:52.772566,599617035316558111,-326.00
2025-11-18 14:07:52.772566,599617035316558111,-334.00
2025-11-18 14:07:52.772566,599617035316558111,-346.00
2025-11-18 14:07:52.772566,599617035316558111,-363.00
2025-11-18 14:07:52.772566,599617035316558111,-380.00
2025-11-18 14:07:52.772566,599617035316558111,-392.00
2025-11-18 14:07:52.772566,599617035316558111,-416.00
2025-11-18 14:07:52.772566,599617035316558111,-445.00
2025-11-18 14:07:52.772566,599617035316558111,-476.00
2025-11-18 14:07:52.772566,599617035316558111,-506.00
2025-11-18 14:07:52.772566,599617035316558111,-525.00
2025-11-18 14:07:52.772566,599617035316558111,-537.00
2025-11-18 14:07:52.772566,599617035316558111,-544.00
2025-11-18 14:07:52.772566,599617035316558111,-520.00
2025-11-18 14:07:52.772566,599617035316558111,-460.00
2025-11-18 14:07:52.772566,599617035316558111,-377.00
2025-11-18 14:07:52.772566,599617035316558111,-288.00
2025-11-18 14:07:52.772566,599617035316558111,-200.00
2025-11-18 14:07:52.772566,599617035316558111,-121.00
2025-11-18 14:07:52.772566,599617035316558111,-21.00
2025-11-18 14:07:52.772566,599617035316558111,58.00
2025-11-18 14:07:52.772566,599617035316558111,92.00
2025-11-18 14:07:52.772566,599617035316558111,113.00
2025-11-18 14:07:52.772566,599617035316558111,140.00
2025-11-18 14:07:52.772566,599617035316558111,150.00
2025-11-18 14:07:52.772566,599617035316558111,142.00
2025-11-18 14:07:52.772566,599617035316558111,133.00
2025-11-18 14:07:52.772566,599617035316558111,123.00
2025-11-18 14:07:52.772566,599617035316558111,108.00
2025-11-18 14:07:52.772566,599617035316558111,101.00
2025-11-18 14:07:52.772566,599617035316558111,96.00
2025-11-18 14:07:52.772566,599617035316558111,87.00
2025-11-18 14:07:52.772566,599617035316558111,72.00
2025-11-18 14:07:52.772566,599617035316558111,62.00
2025-11-18 14:07:52.772566,599617035316558111,60.00
2025-11-18 14:07:52.772566,599617035316558111,60.00
2025-11-18 14:07:52.772566,599617035316558111,46.00
2025-11-18 14:07:52.772566,599617035316558111,38.00
2025-11-18 14:07:52.772566,599617035316558111,36.00
2025-11-18 14:07:52.772566,599617035316558111,29.00
2025-11-18 14:07:53.342035,599617035877224634,21.00
2025-11-18 14:07:53.342035,599617035877224634,24.00
2025-11-18 14:07:53.342035,599617035877224634,24.00
2025-11-18 14:07:53.342035,599617035877224634,21.00
2025-11-18 14:07:53.342035,599617035877224634,19.00
2025-11-18 14:07:53.342035,599617035877224634,21.00
2025-11-18 14:07:53.342035,599617035877224634,24.00
2025-11-18 14:07:53.342035,599617035877224634,24.00
2025-11-18 14:07:53.342035,599617035877224634,16.00
2025-11-18 14:07:53.342035,599617035877224634,19.00
2025-11-18 14:07:53.342035,599617035877224634,24.00
2025-11-18 14:07:53.342035,599617035877224634,16.00
2025-11-18 14:07:53.342035,599617035877224634,7.00
2025-11-18 14:07:53.342035,599617035877224634,14.00
2025-11-18 14:07:53.342035,599617035877224634,21.00
2025-11-18 14:07:53.342035,599617035877224634,19.00
2025-11-18 14:07:53.342035,599617035877224634,12.00
2025-11-18 14:07:53.342035,599617035877224634,4.00
2025-11-18 14:07:53.342035,599617035877224634,4.00
2025-11-18 14:07:53.342035,599617035877224634,4.00
2025-11-18 14:07:53.342035,599617035877224634,0.00
2025-11-18 14:07:53.342035,599617035877224634,-2.00
2025-11-18 14:07:53.342035,599617035877224634,0.00
2025-11-18 14:07:53.342035,599617035877224634,7.00
2025-11-18 14:07:53.342035,599617035877224634,2.00
2025-11-18 14:07:53.342035,599617035877224634,0.00
2025-11-18 14:07:53.342035,599617035877224634,4.00
2025-11-18 14:07:53.342035,599617035877224634,0.00
2025-11-18 14:07:53.342035,599617035877224634,-9.00
2025-11-18 14:07:53.342035,599617035877224634,-12.00
2025-11-18 14:07:53.342035,599617035877224634,-21.00
2025-11-18 14:07:53.342035,599617035877224634,-33.00
2025-11-18 14:07:53.342035,599617035877224634,-41.00
2025-11-18 14:07:53.342035,599617035877224634,-43.00
2025-11-18 14:07:53.342035,599617035877224634,-24.00
2025-11-18 14:07:53.342035,599617035877224634,0.00
2025-11-18 14:07:53.342035,599617035877224634,2.00
2025-11-18 14:07:53.342035,599617035877224634,-2.00
2025-11-18 14:07:53.342035,599617035877224634,-14.00
2025-11-18 14:07:53.342035,599617035877224634,-24.00
2025-11-18 14:07:53.342035,599617035877224634,-16.00
2025-11-18 14:07:53.342035,599617035877224634,-2.00
2025-11-18 14:07:53.342035,599617035877224634,7.00
2025-11-18 14:07:53.342035,599617035877224634,9.00
2025-11-18 14:07:53.342035,599617035877224634,-4.00
2025-11-18 14:07:53.342035,599617035877224634,-7.00
2025-11-18 14:07:53.342035,599617035877224634,2.00
2025-11-18 14:07:53.342035,599617035877224634,-7.00
2025-11-18 14:07:53.342035,599617035877224634,-41.00
2025-11-18 14:07:53.342035,599617035877224634,-118.00
2025-11-18 14:07:53.342035,599617035877224634,-220.00
2025-11-18 14:07:53.342035,599617035877224634,-135.00
2025-11-18 14:07:53.342035,599617035877224634,363.00
2025-11-18 14:07:53.342035,599617035877224634,1181.00
2025-11-18 14:07:53.342035,599617035877224634,1631.00
2025-11-18 14:07:53.342035,599617035877224634,1169.00
2025-11-18 14:07:53.342035,599617035877224634,377.00
2025-11-18 14:07:53.342035,599617035877224634,-31.00
2025-11-18 14:07:53.342035,599617035877224634,-196.00
2025-11-18 14:07:53.342035,599617035877224634,-334.00
2025-11-18 14:07:53.342035,599617035877224634,-370.00
2025-11-18 14:07:53.342035,599617035877224634,-346.00
2025-11-18 14:07:53.342035,599617035877224634,-355.00
2025-11-18 14:07:53.342035,599617035877224634,-360.00
2025-11-18 14:07:53.342035,599617035877224634,-348.00
2025-11-18 14:07:53.342035,599617035877224634,-346.00
2025-11-18 14:07:53.342035,599617035877224634,-341.00
2025-11-18 14:07:53.342035,599617035877224634,-334.00
2025-11-18 14:07:53.342035,599617035877224634,-348.00
2025-11-18 14:07:53.342035,599617035877224634,-360.00
2025-11-18 14:07:53.342035,599617035877224634,-353.00
2025-11-18 14:07:53.342035,599617035877224634,-358.00
2025-11-18 14:07:53.342035,599617035877224634,-380.00
2025-11-18 14:07:53.882505,599617036437921675,-389.00
2025-11-18 14:07:53.882505,599617036437921675,-404.00
2025-11-18 14:07:53.882505,599617036437921675,-430.00
2025-11-18 14:07:53.882505,599617036437921675,-464.00
2025-11-18 14:07:53.882505,599617036437921675,-496.00
2025-11-18 14:07:53.882505,599617036437921675,-520.00
2025-11-18 14:07:53.882505,599617036437921675,-544.00
2025-11-18 14:07:53.882505,599617036437921675,-554.00
2025-11-18 14:07:53.882505,599617036437921675,-532.00
2025-11-18 14:07:53.882505,599617036437921675,-491.00
2025-11-18 14:07:53.882505,599617036437921675,-426.00
2025-11-18 14:07:53.882505,599617036437921675,-341.00
2025-11-18 14:07:53.882505,599617036437921675,-251.00
2025-11-18 14:07:53.882505,599617036437921675,-157.00
2025-11-18 14:07:53.882505,599617036437921675,-72.00
2025-11-18 14:07:53.882505,599617036437921675,9.00
2025-11-18 14:07:53.882505,599617036437921675,75.00
2025-11-18 14:07:53.882505,599617036437921675,111.00
2025-11-18 14:07:53.882505,599617036437921675,128.00
2025-11-18 14:07:53.882505,599617036437921675,133.00
2025-11-18 14:07:53.882505,599617036437921675,135.00
2025-11-18 14:07:53.882505,599617036437921675,145.00
2025-11-18 14:07:53.882505,599617036437921675,142.00
2025-11-18 14:07:53.882505,599617036437921675,128.00
2025-11-18 14:07:53.882505,599617036437921675,118.00
2025-11-18 14:07:53.882505,599617036437921675,108.00
2025-11-18 14:07:53.882505,599617036437921675,101.00
2025-11-18 14:07:53.882505,599617036437921675,82.00
2025-11-18 14:07:53.882505,599617036437921675,55.00
2025-11-18 14:07:53.882505,599617036437921675,60.00
2025-11-18 14:07:53.882505,599617036437921675,72.00
2025-11-18 14:07:53.882505,599617036437921675,60.00
2025-11-18 14:07:53.882505,599617036437921675,53.00
2025-11-18 14:07:53.882505,599617036437921675,46.00
2025-11-18 14:07:53.882505,599617036437921675,31.00
2025-11-18 14:07:53.882505,599617036437921675,29.00
2025-11-18 14:07:53.882505,599617036437921675,33.00
2025-11-18 14:07:53.882505,599617036437921675,26.00
2025-11-18 14:07:53.882505,599617036437921675,19.00
2025-11-18 14:07:53.882505,599617036437921675,16.00
2025-11-18 14:07:53.882505,599617036437921675,21.00
2025-11-18 14:07:53.882505,599617036437921675,26.00
2025-11-18 14:07:53.882505,599617036437921675,24.00
2025-11-18 14:07:53.882505,599617036437921675,16.00
2025-11-18 14:07:53.882505,599617036437921675,16.00
2025-11-18 14:07:53.882505,599617036437921675,24.00
2025-11-18 14:07:53.882505,599617036437921675,19.00
2025-11-18 14:07:53.882505,599617036437921675,9.00
2025-11-18 14:07:53.882505,599617036437921675,16.00
2025-11-18 14:07:53.882505,599617036437921675,24.00
2025-11-18 14:07:53.882505,599617036437921675,16.00
2025-11-18 14:07:53.882505,599617036437921675,4.00
2025-11-18 14:07:53.882505,599617036437921675,-2.00
2025-11-18 14:07:53.882505,599617036437921675,-2.00
2025-11-18 14:07:53.882505,599617036437921675,9.00
2025-11-18 14:07:53.882505,599617036437921675,16.00
2025-11-18 14:07:53.882505,599617036437921675,4.00
2025-11-18 14:07:53.882505,599617036437921675,4.00
2025-11-18 14:07:53.882505,599617036437921675,9.00
2025-11-18 14:07:53.882505,599617036437921675,0.00
2025-11-18 14:07:53.882505,599617036437921675,-7.00
2025-11-18 14:07:53.882505,599617036437921675,-4.00
2025-11-18 14:07:53.882505,599617036437921675,-2.00
2025-11-18 14:07:53.882505,599617036437921675,-16.00
2025-11-18 14:07:53.882505,599617036437921675,-36.00
2025-11-18 14:07:53.882505,599617036437921675,-9.00
2025-11-18 14:07:53.882505,599617036437921675,24.00
2025-11-18 14:07:53.882505,599617036437921675,-12.00
2025-11-18 14:07:53.882505,599617036437921675,-46.00
2025-11-18 14:07:53.882505,599617036437921675,-36.00
2025-11-18 14:07:53.882505,599617036437921675,-24.00
2025-11-18 14:07:53.882505,599617036437921675,-16.00
2025-11-18 14:07:53.882505,599617036437921675,-9.00
2025-11-18 14:07:54.421482,599617036998588198,-12.00
2025-11-18 14:07:54.421482,599617036998588198,-21.00
2025-11-18 14:07:54.421482,599617036998588198,-33.00
2025-11-18 14:07:54.421482,599617036998588198,-31.00
2025-11-18 14:07:54.421482,599617036998588198,-4.00
2025-11-18 14:07:54.421482,599617036998588198,14.00
2025-11-18 14:07:54.421482,599617036998588198,12.00
2025-11-18 14:07:54.421482,599617036998588198,7.00
2025-11-18 14:07:54.421482,599617036998588198,0.00
2025-11-18 14:07:54.421482,599617036998588198,-7.00
2025-11-18 14:07:54.421482,599617036998588198,-12.00
2025-11-18 14:07:54.421482,599617036998588198,-21.00
2025-11-18 14:07:54.421482,599617036998588198,-77.00
2025-11-18 14:07:54.421482,599617036998588198,-191.00
2025-11-18 14:07:54.421482,599617036998588198,-213.00
2025-11-18 14:07:54.421482,599617036998588198,99.00
2025-11-18 14:07:54.421482,599617036998588198,849.00
2025-11-18 14:07:54.421482,599617036998588198,1585.00
2025-11-18 14:07:54.421482,599617036998588198,1498.00
2025-11-18 14:07:54.421482,599617036998588198,706.00
2025-11-18 14:07:54.421482,599617036998588198,87.00
2025-11-18 14:07:54.421482,599617036998588198,-167.00
2025-11-18 14:07:54.421482,599617036998588198,-322.00
2025-11-18 14:07:54.421482,599617036998588198,-384.00
2025-11-18 14:07:54.421482,599617036998588198,-358.00
2025-11-18 14:07:54.421482,599617036998588198,-355.00
2025-11-18 14:07:54.421482,599617036998588198,-372.00
2025-11-18 14:07:54.421482,599617036998588198,-368.00
2025-11-18 14:07:54.421482,599617036998588198,-355.00
2025-11-18 14:07:54.421482,599617036998588198,-343.00
2025-11-18 14:07:54.421482,599617036998588198,-346.00
2025-11-18 14:07:54.421482,599617036998588198,-341.00
2025-11-18 14:07:54.421482,599617036998588198,-322.00
2025-11-18 14:07:54.421482,599617036998588198,-338.00
2025-11-18 14:07:54.421482,599617036998588198,-365.00
2025-11-18 14:07:54.421482,599617036998588198,-368.00
2025-11-18 14:07:54.421482,599617036998588198,-382.00
2025-11-18 14:07:54.421482,599617036998588198,-414.00
2025-11-18 14:07:54.421482,599617036998588198,-438.00
2025-11-18 14:07:54.421482,599617036998588198,-467.00
2025-11-18 14:07:54.421482,599617036998588198,-493.00
2025-11-18 14:07:54.421482,599617036998588198,-496.00
2025-11-18 14:07:54.421482,599617036998588198,-515.00
2025-11-18 14:07:54.421482,599617036998588198,-547.00
2025-11-18 14:07:54.421482,599617036998588198,-544.00
2025-11-18 14:07:54.421482,599617036998588198,-518.00
2025-11-18 14:07:54.421482,599617036998588198,-474.00
2025-11-18 14:07:54.421482,599617036998588198,-399.00
2025-11-18 14:07:54.421482,599617036998588198,-295.00
2025-11-18 14:07:54.421482,599617036998588198,-191.00
2025-11-18 14:07:54.421482,599617036998588198,-108.00
2025-11-18 14:07:54.421482,599617036998588198,-36.00
2025-11-18 14:07:54.421482,599617036998588198,33.00
2025-11-18 14:07:54.421482,599617036998588198,84.00
2025-11-18 14:07:54.421482,599617036998588198,116.00
2025-11-18 14:07:54.421482,599617036998588198,135.00
2025-11-18 14:07:54.421482,599617036998588198,145.00
2025-11-18 14:07:54.421482,599617036998588198,138.00
2025-11-18 14:07:54.421482,599617036998588198,116.00
2025-11-18 14:07:54.421482,599617036998588198,108.00
2025-11-18 14:07:54.421482,599617036998588198,111.00
2025-11-18 14:07:54.421482,599617036998588198,106.00
2025-11-18 14:07:54.421482,599617036998588198,106.00
2025-11-18 14:07:54.421482,599617036998588198,92.00
2025-11-18 14:07:54.421482,599617036998588198,70.00
2025-11-18 14:07:54.421482,599617036998588198,60.00
2025-11-18 14:07:54.421482,599617036998588198,53.00
2025-11-18 14:07:54.421482,599617036998588198,41.00
2025-11-18 14:07:54.421482,599617036998588198,33.00
2025-11-18 14:07:54.421482,599617036998588198,31.00
2025-11-18 14:07:54.421482,599617036998588198,29.00
2025-11-18 14:07:54.421482,599617036998588198,16.00
2025-11-18 14:07:54.421482,599617036998588198,12.00
2025-11-18 14:07:55.022616,599617037559254723,24.00
2025-11-18 14:07:55.022616,599617037559254723,24.00
2025-11-18 14:07:55.022616,599617037559254723,7.00
2025-11-18 14:07:55.022616,599617037559254723,19.00
2025-11-18 14:07:55.022616,599617037559254723,33.00
2025-11-18 14:07:55.022616,599617037559254723,19.00
2025-11-18 14:07:55.022616,599617037559254723,14.00
2025-11-18 14:07:55.022616,599617037559254723,16.00
2025-11-18 14:07:55.022616,599617037559254723,7.00
2025-11-18 14:07:55.022616,599617037559254723,9.00
2025-11-18 14:07:55.022616,599617037559254723,21.00
2025-11-18 14:07:55.022616,599617037559254723,16.00
2025-11-18 14:07:55.022616,599617037559254723,9.00
2025-11-18 14:07:55.022616,599617037559254723,12.00
2025-11-18 14:07:55.022616,599617037559254723,7.00
2025-11-18 14:07:55.022616,599617037559254723,2.00
2025-11-18 14:07:55.022616,599617037559254723,7.00
2025-11-18 14:07:55.022616,599617037559254723,4.00
2025-11-18 14:07:55.022616,599617037559254723,-2.00
2025-11-18 14:07:55.022616,599617037559254723,0.00
2025-11-18 14:07:55.022616,599617037559254723,2.00
2025-11-18 14:07:55.022616,599617037559254723,-2.00
2025-11-18 14:07:55.022616,599617037559254723,-4.00
2025-11-18 14:07:55.022616,599617037559254723,-4.00
2025-11-18 14:07:55.022616,599617037559254723,-7.00
2025-11-18 14:07:55.022616,599617037559254723,-14.00
2025-11-18 14:07:55.022616,599617037559254723,-21.00
2025-11-18 14:07:55.022616,599617037559254723,-31.00
2025-11-18 14:07:55.022616,599617037559254723,-48.00
2025-11-18 14:07:55.022616,599617037559254723,-55.00
2025-11-18 14:07:55.022616,599617037559254723,-19.00
2025-11-18 14:07:55.022616,599617037559254723,12.00
2025-11-18 14:07:55.022616,599617037559254723,-9.00
2025-11-18 14:07:55.022616,599617037559254723,-31.00
2025-11-18 14:07:55.022616,599617037559254723,-14.00
2025-11-18 14:07:55.022616,599617037559254723,-7.00
2025-11-18 14:07:55.022616,599617037559254723,-29.00
2025-11-18 14:07:55.022616,599617037559254723,-31.00
2025-11-18 14:07:55.022616,599617037559254723,-2.00
2025-11-18 14:07:55.022616,599617037559254723,14.00
2025-11-18 14:07:55.022616,599617037559254723,0.00
2025-11-18 14:07:55.022616,599617037559254723,-12.00
2025-11-18 14:07:55.022616,599617037559254723,-7.00
2025-11-18 14:07:55.022616,599617037559254723,-7.00
2025-11-18 14:07:55.022616,599617037559254723,-26.00
2025-11-18 14:07:55.022616,599617037559254723,-70.00
2025-11-18 14:07:55.022616,599617037559254723,-154.00
2025-11-18 14:07:55.022616,599617037559254723,-239.00
2025-11-18 14:07:55.022616,599617037559254723,-130.00
2025-11-18 14:07:55.022616,599617037559254723,387.00
2025-11-18 14:07:55.022616,599617037559254723,1237.00
2025-11-18 14:07:55.022616,599617037559254723,1670.00
2025-11-18 14:07:55.022616,599617037559254723,1142.00
2025-11-18 14:07:55.022616,599617037559254723,343.00
2025-11-18 14:07:55.022616,599617037559254723,-53.00
2025-11-18 14:07:55.022616,599617037559254723,-237.00
2025-11-18 14:07:55.022616,599617037559254723,-370.00
2025-11-18 14:07:55.022616,599617037559254723,-384.00
2025-11-18 14:07:55.022616,599617037559254723,-363.00
2025-11-18 14:07:55.022616,599617037559254723,-384.00
2025-11-18 14:07:55.022616,599617037559254723,-397.00
2025-11-18 14:07:55.022616,599617037559254723,-380.00
2025-11-18 14:07:55.022616,599617037559254723,-355.00
2025-11-18 14:07:55.022616,599617037559254723,-334.00
2025-11-18 14:07:55.022616,599617037559254723,-348.00
2025-11-18 14:07:55.022616,599617037559254723,-363.00
2025-11-18 14:07:55.022616,599617037559254723,-358.00
2025-11-18 14:07:55.022616,599617037559254723,-370.00
2025-11-18 14:07:55.022616,599617037559254723,-389.00
2025-11-18 14:07:55.022616,599617037559254723,-394.00
2025-11-18 14:07:55.022616,599617037559254723,-406.00
2025-11-18 14:07:55.022616,599617037559254723,-430.00
2025-11-18 14:07:55.022616,599617037559254723,-452.00
2025-11-18 14:07:55.593441,599617038119951764,-474.00
2025-11-18 14:07:55.593441,599617038119951764,-508.00
2025-11-18 14:07:55.593441,599617038119951764,-544.00
2025-11-18 14:07:55.593441,599617038119951764,-554.00
2025-11-18 14:07:55.593441,599617038119951764,-544.00
2025-11-18 14:07:55.593441,599617038119951764,-542.00
2025-11-18 14:07:55.593441,599617038119951764,-520.00
2025-11-18 14:07:55.593441,599617038119951764,-460.00
2025-11-18 14:07:55.593441,599617038119951764,-375.00
2025-11-18 14:07:55.593441,599617038119951764,-271.00
2025-11-18 14:07:55.593441,599617038119951764,-179.00
2025-11-18 14:07:55.593441,599617038119951764,-94.00
2025-11-18 14:07:55.593441,599617038119951764,-21.00
2025-11-18 14:07:55.593441,599617038119951764,24.00
2025-11-18 14:07:55.593441,599617038119951764,70.00
2025-11-18 14:07:55.593441,599617038119951764,113.00
2025-11-18 14:07:55.593441,599617038119951764,116.00
2025-11-18 14:07:55.593441,599617038119951764,101.00
2025-11-18 14:07:55.593441,599617038119951764,104.00
2025-11-18 14:07:55.593441,599617038119951764,113.00
2025-11-18 14:07:55.593441,599617038119951764,106.00
2025-11-18 14:07:55.593441,599617038119951764,84.00
2025-11-18 14:07:55.593441,599617038119951764,75.00
2025-11-18 14:07:55.593441,599617038119951764,75.00
2025-11-18 14:07:55.593441,599617038119951764,75.00
2025-11-18 14:07:55.593441,599617038119951764,89.00
2025-11-18 14:07:55.593441,599617038119951764,75.00
2025-11-18 14:07:55.593441,599617038119951764,31.00
2025-11-18 14:07:55.593441,599617038119951764,19.00
2025-11-18 14:07:55.593441,599617038119951764,29.00
2025-11-18 14:07:55.593441,599617038119951764,36.00
2025-11-18 14:07:55.593441,599617038119951764,43.00
2025-11-18 14:07:55.593441,599617038119951764,31.00
2025-11-18 14:07:55.593441,599617038119951764,7.00
2025-11-18 14:07:55.593441,599617038119951764,9.00
2025-11-18 14:07:55.593441,599617038119951764,31.00
2025-11-18 14:07:55.593441,599617038119951764,38.00
2025-11-18 14:07:55.593441,599617038119951764,16.00
2025-11-18 14:07:55.593441,599617038119951764,12.00
2025-11-18 14:07:55.593441,599617038119951764,33.00
2025-11-18 14:07:55.593441,599617038119951764,31.00
2025-11-18 14:07:55.593441,599617038119951764,9.00
2025-11-18 14:07:55.593441,599617038119951764,12.00
2025-11-18 14:07:55.593441,599617038119951764,29.00
2025-11-18 14:07:55.593441,599617038119951764,24.00
2025-11-18 14:07:55.593441,599617038119951764,-12.00
2025-11-18 14:07:55.593441,599617038119951764,-29.00
2025-11-18 14:07:55.593441,599617038119951764,7.00
2025-11-18 14:07:55.593441,599617038119951764,41.00
2025-11-18 14:07:55.593441,599617038119951764,21.00
2025-11-18 14:07:55.593441,599617038119951764,-7.00
2025-11-18 14:07:55.593441,599617038119951764,-2.00
2025-11-18 14:07:55.593441,599617038119951764,-2.00
2025-11-18 14:07:55.593441,599617038119951764,-19.00
2025-11-18 14:07:55.593441,599617038119951764,-26.00
2025-11-18 14:07:55.593441,599617038119951764,-29.00
2025-11-18 14:07:55.593441,599617038119951764,-26.00
2025-11-18 14:07:55.593441,599617038119951764,-26.00
2025-11-18 14:07:55.593441,599617038119951764,-19.00
2025-11-18 14:07:55.593441,599617038119951764,2.00
2025-11-18 14:07:55.593441,599617038119951764,4.00
2025-11-18 14:07:55.593441,599617038119951764,-9.00
2025-11-18 14:07:55.593441,599617038119951764,-2.00
2025-11-18 14:07:55.593441,599617038119951764,14.00
2025-11-18 14:07:55.593441,599617038119951764,19.00
2025-11-18 14:07:55.593441,599617038119951764,4.00
2025-11-18 14:07:55.593441,599617038119951764,-12.00
2025-11-18 14:07:55.593441,599617038119951764,-12.00
2025-11-18 14:07:55.593441,599617038119951764,-4.00
2025-11-18 14:07:55.593441,599617038119951764,4.00
2025-11-18 14:07:55.593441,599617038119951764,-2.00
2025-11-18 14:07:55.593441,599617038119951764,-48.00
2025-11-18 14:07:55.593441,599617038119951764,-159.00
2025-11-18 14:07:56.133181,599617038680618287,-246.00
2025-11-18 14:07:56.133181,599617038680618287,-46.00
2025-11-18 14:07:56.133181,599617038680618287,651.00
2025-11-18 14:07:56.133181,599617038680618287,1474.00
2025-11-18 14:07:56.133181,599617038680618287,1559.00
2025-11-18 14:07:56.133181,599617038680618287,842.00
2025-11-18 14:07:56.133181,599617038680618287,174.00
2025-11-18 14:07:56.133181,599617038680618287,-101.00
2025-11-18 14:07:56.133181,599617038680618287,-261.00
2025-11-18 14:07:56.133181,599617038680618287,-368.00
2025-11-18 14:07:56.133181,599617038680618287,-355.00
2025-11-18 14:07:56.133181,599617038680618287,-338.00
2025-11-18 14:07:56.133181,599617038680618287,-360.00
2025-11-18 14:07:56.133181,599617038680618287,-353.00
2025-11-18 14:07:56.133181,599617038680618287,-329.00
2025-11-18 14:07:56.133181,599617038680618287,-338.00
2025-11-18 14:07:56.133181,599617038680618287,-351.00
2025-11-18 14:07:56.133181,599617038680618287,-343.00
2025-11-18 14:07:56.133181,599617038680618287,-341.00
2025-11-18 14:07:56.133181,599617038680618287,-334.00
2025-11-18 14:07:56.133181,599617038680618287,-324.00
2025-11-18 14:07:56.133181,599617038680618287,-351.00
2025-11-18 14:07:56.133181,599617038680618287,-384.00
2025-11-18 14:07:56.133181,599617038680618287,-399.00
2025-11-18 14:07:56.133181,599617038680618287,-423.00
2025-11-18 14:07:56.133181,599617038680618287,-455.00
2025-11-18 14:07:56.133181,599617038680618287,-472.00
2025-11-18 14:07:56.133181,599617038680618287,-486.00
2025-11-18 14:07:56.133181,599617038680618287,-503.00
2025-11-18 14:07:56.133181,599617038680618287,-532.00
2025-11-18 14:07:56.133181,599617038680618287,-554.00
2025-11-18 14:07:56.133181,599617038680618287,-520.00
2025-11-18 14:07:56.133181,599617038680618287,-440.00
2025-11-18 14:07:56.133181,599617038680618287,-370.00
2025-11-18 14:07:56.133181,599617038680618287,-297.00
2025-11-18 14:07:56.133181,599617038680618287,-196.00
2025-11-18 14:07:56.133181,599617038680618287,-96.00
2025-11-18 14:07:56.133181,599617038680618287,-19.00
2025-11-18 14:07:56.133181,599617038680618287,41.00
2025-11-18 14:07:56.133181,599617038680618287,92.00
2025-11-18 14:07:56.133181,599617038680618287,128.00
2025-11-18 14:07:56.133181,599617038680618287,128.00
2025-11-18 14:07:56.133181,599617038680618287,121.00
2025-11-18 14:07:56.133181,599617038680618287,140.00
2025-11-18 14:07:56.133181,599617038680618287,145.00
2025-11-18 14:07:56.133181,599617038680618287,123.00
2025-11-18 14:07:56.133181,599617038680618287,106.00
2025-11-18 14:07:56.133181,599617038680618287,104.00
2025-11-18 14:07:56.133181,599617038680618287,94.00
2025-11-18 14:07:56.133181,599617038680618287,77.00
2025-11-18 14:07:56.133181,599617038680618287,46.00
2025-11-18 14:07:56.133181,599617038680618287,36.00
2025-11-18 14:07:56.133181,599617038680618287,65.00
2025-11-18 14:07:56.133181,599617038680618287,70.00
2025-11-18 14:07:56.133181,599617038680618287,29.00
2025-11-18 14:07:56.133181,599617038680618287,19.00
2025-11-18 14:07:56.133181,599617038680618287,36.00
2025-11-18 14:07:56.133181,599617038680618287,21.00
2025-11-18 14:07:56.133181,599617038680618287,2.00
2025-11-18 14:07:56.133181,599617038680618287,7.00
2025-11-18 14:07:56.133181,599617038680618287,-2.00
2025-11-18 14:07:56.133181,599617038680618287,0.00
2025-11-18 14:07:56.133181,599617038680618287,19.00
2025-11-18 14:07:56.133181,599617038680618287,9.00
2025-11-18 14:07:56.133181,599617038680618287,-2.00
2025-11-18 14:07:56.133181,599617038680618287,9.00
2025-11-18 14:07:56.133181,599617038680618287,21.00
2025-11-18 14:07:56.133181,599617038680618287,24.00
2025-11-18 14:07:56.133181,599617038680618287,16.00
2025-11-18 14:07:56.133181,599617038680618287,4.00
2025-11-18 14:07:56.133181,599617038680618287,0.00
2025-11-18 14:07:56.133181,599617038680618287,-2.00
2025-11-18 14:07:56.133181,599617038680618287,-9.00
2025-11-18 14:07:56.701738,599617039241305154,-16.00
2025-11-18 14:07:56.701738,599617039241305154,-16.00
2025-11-18 14:07:56.701738,599617039241305154,-2.00
2025-11-18 14:07:56.701738,599617039241305154,7.00
2025-11-18 14:07:56.701738,599617039241305154,-4.00
2025-11-18 14:07:56.701738,599617039241305154,-14.00
2025-11-18 14:07:56.701738,599617039241305154,-21.00
2025-11-18 14:07:56.701738,599617039241305154,-36.00
2025-11-18 14:07:56.701738,599617039241305154,-46.00
2025-11-18 14:07:56.701738,599617039241305154,-29.00
2025-11-18 14:07:56.701738,599617039241305154,-2.00
2025-11-18 14:07:56.701738,599617039241305154,-7.00
2025-11-18 14:07:56.701738,599617039241305154,-26.00
2025-11-18 14:07:56.701738,599617039241305154,-24.00
2025-11-18 14:07:56.701738,599617039241305154,-24.00
2025-11-18 14:07:56.701738,599617039241305154,-24.00
2025-11-18 14:07:56.701738,599617039241305154,-16.00
2025-11-18 14:07:56.701738,599617039241305154,-7.00
2025-11-18 14:07:56.701738,599617039241305154,2.00
2025-11-18 14:07:56.701738,599617039241305154,4.00
2025-11-18 14:07:56.701738,599617039241305154,-4.00
2025-11-18 14:07:56.701738,599617039241305154,-9.00
2025-11-18 14:07:56.701738,599617039241305154,-2.00
2025-11-18 14:07:56.701738,599617039241305154,-4.00
2025-11-18 14:07:56.701738,599617039241305154,-19.00
2025-11-18 14:07:56.701738,599617039241305154,-60.00
2025-11-18 14:07:56.701738,599617039241305154,-159.00
2025-11-18 14:07:56.701738,599617039241305154,-227.00
2025-11-18 14:07:56.701738,599617039241305154,-36.00
2025-11-18 14:07:56.701738,599617039241305154,644.00
2025-11-18 14:07:56.701738,599617039241305154,1484.00
2025-11-18 14:07:56.701738,599617039241305154,1595.00
2025-11-18 14:07:56.701738,599617039241305154,869.00
2025-11-18 14:07:56.701738,599617039241305154,167.00
2025-11-18 14:07:56.701738,599617039241305154,-145.00
2025-11-18 14:07:56.701738,599617039241305154,-297.00
2025-11-18 14:07:56.701738,599617039241305154,-358.00
2025-11-18 14:07:56.701738,599617039241305154,-355.00
2025-11-18 14:07:56.701738,599617039241305154,-351.00
2025-11-18 14:07:56.701738,599617039241305154,-348.00
2025-11-18 14:07:56.701738,599617039241305154,-348.00
2025-11-18 14:07:56.701738,599617039241305154,-346.00
2025-11-18 14:07:56.701738,599617039241305154,-348.00
2025-11-18 14:07:56.701738,599617039241305154,-358.00
2025-11-18 14:07:56.701738,599617039241305154,-336.00
2025-11-18 14:07:56.701738,599617039241305154,-302.00
2025-11-18 14:07:56.701738,599617039241305154,-331.00
2025-11-18 14:07:56.701738,599617039241305154,-365.00
2025-11-18 14:07:56.701738,599617039241305154,-358.00
2025-11-18 14:07:56.701738,599617039241305154,-368.00
2025-11-18 14:07:56.701738,599617039241305154,-399.00
2025-11-18 14:07:56.701738,599617039241305154,-411.00
2025-11-18 14:07:56.701738,599617039241305154,-433.00
2025-11-18 14:07:56.701738,599617039241305154,-476.00
2025-11-18 14:07:56.701738,599617039241305154,-501.00
2025-11-18 14:07:56.701738,599617039241305154,-518.00
2025-11-18 14:07:56.701738,599617039241305154,-532.00
2025-11-18 14:07:56.701738,599617039241305154,-530.00
2025-11-18 14:07:56.701738,599617039241305154,-508.00
2025-11-18 14:07:56.701738,599617039241305154,-462.00
2025-11-18 14:07:56.701738,599617039241305154,-389.00
2025-11-18 14:07:56.701738,599617039241305154,-280.00
2025-11-18 14:07:56.701738,599617039241305154,-188.00
2025-11-18 14:07:56.701738,599617039241305154,-135.00
2025-11-18 14:07:56.701738,599617039241305154,-48.00
2025-11-18 14:07:56.701738,599617039241305154,55.00
2025-11-18 14:07:56.701738,599617039241305154,104.00
2025-11-18 14:07:56.701738,599617039241305154,121.00
2025-11-18 14:07:56.701738,599617039241305154,140.00
2025-11-18 14:07:56.701738,599617039241305154,140.00
2025-11-18 14:07:56.701738,599617039241305154,128.00
2025-11-18 14:07:56.701738,599617039241305154,130.00
2025-11-18 14:07:56.701738,599617039241305154,152.00
2025-11-18 14:07:57.242781,599617039801981851,147.00
2025-11-18 14:07:57.242781,599617039801981851,89.00
2025-11-18 14:07:57.242781,599617039801981851,60.00
2025-11-18 14:07:57.242781,599617039801981851,99.00
2025-11-18 14:07:57.242781,599617039801981851,116.00
2025-11-18 14:07:57.242781,599617039801981851,60.00
2025-11-18 14:07:57.242781,599617039801981851,7.00
2025-11-18 14:07:57.242781,599617039801981851,31.00
2025-11-18 14:07:57.242781,599617039801981851,53.00
2025-11-18 14:07:57.242781,599617039801981851,24.00
2025-11-18 14:07:57.242781,599617039801981851,12.00
2025-11-18 14:07:57.242781,599617039801981851,31.00
2025-11-18 14:07:57.242781,599617039801981851,36.00
2025-11-18 14:07:57.242781,599617039801981851,24.00
2025-11-18 14:07:57.242781,599617039801981851,24.00
2025-11-18 14:07:57.242781,599617039801981851,21.00
2025-11-18 14:07:57.242781,599617039801981851,9.00
2025-11-18 14:07:57.242781,599617039801981851,16.00
2025-11-18 14:07:57.242781,599617039801981851,26.00
2025-11-18 14:07:57.242781,599617039801981851,12.00
2025-11-18 14:07:57.242781,599617039801981851,2.00
2025-11-18 14:07:57.242781,599617039801981851,14.00
2025-11-18 14:07:57.242781,599617039801981851,26.00
2025-11-18 14:07:57.242781,599617039801981851,16.00
2025-11-18 14:07:57.242781,599617039801981851,12.00
2025-11-18 14:07:57.242781,599617039801981851,21.00
2025-11-18 14:07:57.242781,599617039801981851,21.00
2025-11-18 14:07:57.242781,599617039801981851,9.00
2025-11-18 14:07:57.242781,599617039801981851,-2.00
2025-11-18 14:07:57.242781,599617039801981851,0.00
2025-11-18 14:07:57.242781,599617039801981851,2.00
2025-11-18 14:07:57.242781,599617039801981851,2.00
2025-11-18 14:07:57.242781,599617039801981851,-4.00
2025-11-18 14:07:57.242781,599617039801981851,-16.00
2025-11-18 14:07:57.242781,599617039801981851,-14.00
2025-11-18 14:07:57.242781,599617039801981851,-21.00
2025-11-18 14:07:57.242781,599617039801981851,-50.00
2025-11-18 14:07:57.242781,599617039801981851,-55.00
2025-11-18 14:07:57.242781,599617039801981851,-26.00
2025-11-18 14:07:57.242781,599617039801981851,-9.00
2025-11-18 14:07:57.242781,599617039801981851,-14.00
2025-11-18 14:07:57.242781,599617039801981851,-16.00
2025-11-18 14:07:57.242781,599617039801981851,2.00
2025-11-18 14:07:57.242781,599617039801981851,0.00
2025-11-18 14:07:57.242781,599617039801981851,-46.00
2025-11-18 14:07:57.242781,599617039801981851,-50.00
2025-11-18 14:07:57.242781,599617039801981851,-9.00
2025-11-18 14:07:57.242781,599617039801981851,-2.00
2025-11-18 14:07:57.242781,599617039801981851,-14.00
2025-11-18 14:07:57.242781,599617039801981851,-4.00
2025-11-18 14:07:57.242781,599617039801981851,-9.00
2025-11-18 14:07:57.242781,599617039801981851,-26.00
2025-11-18 14:07:57.242781,599617039801981851,-14.00
2025-11-18 14:07:57.242781,599617039801981851,0.00
2025-11-18 14:07:57.242781,599617039801981851,-77.00
2025-11-18 14:07:57.242781,599617039801981851,-244.00
2025-11-18 14:07:57.242781,599617039801981851,-256.00
2025-11-18 14:07:57.242781,599617039801981851,101.00
2025-11-18 14:07:57.242781,599617039801981851,828.00
2025-11-18 14:07:57.242781,599617039801981851,1515.00
2025-11-18 14:07:57.242781,599617039801981851,1421.00
2025-11-18 14:07:57.242781,599617039801981851,660.00
2025-11-18 14:07:57.242781,599617039801981851,72.00
2025-11-18 14:07:57.242781,599617039801981851,-150.00
2025-11-18 14:07:57.242781,599617039801981851,-285.00
2025-11-18 14:07:57.242781,599617039801981851,-365.00
2025-11-18 14:07:57.242781,599617039801981851,-346.00
2025-11-18 14:07:57.242781,599617039801981851,-338.00
2025-11-18 14:07:57.242781,599617039801981851,-365.00
2025-11-18 14:07:57.242781,599617039801981851,-355.00
2025-11-18 14:07:57.242781,599617039801981851,-331.00
2025-11-18 14:07:57.242781,599617039801981851,-331.00
2025-11-18 14:07:57.242781,599617039801981851,-341.00
2025-11-18 14:07:57.813881,599617040362648374,-334.00
2025-11-18 14:07:57.813881,599617040362648374,-334.00
2025-11-18 14:07:57.813881,599617040362648374,-363.00
2025-11-18 14:07:57.813881,599617040362648374,-375.00
2025-11-18 14:07:57.813881,599617040362648374,-355.00
2025-11-18 14:07:57.813881,599617040362648374,-363.00
2025-11-18 14:07:57.813881,599617040362648374,-404.00
2025-11-18 14:07:57.813881,599617040362648374,-428.00
2025-11-18 14:07:57.813881,599617040362648374,-435.00
2025-11-18 14:07:57.813881,599617040362648374,-457.00
2025-11-18 14:07:57.813881,599617040362648374,-491.00
2025-11-18 14:07:57.813881,599617040362648374,-518.00
2025-11-18 14:07:57.813881,599617040362648374,-552.00
2025-11-18 14:07:57.813881,599617040362648374,-566.00
2025-11-18 14:07:57.813881,599617040362648374,-506.00
2025-11-18 14:07:57.813881,599617040362648374,-433.00
2025-11-18 14:07:57.813881,599617040362648374,-370.00
2025-11-18 14:07:57.813881,599617040362648374,-271.00
2025-11-18 14:07:57.813881,599617040362648374,-157.00
2025-11-18 14:07:57.813881,599617040362648374,-67.00
2025-11-18 14:07:57.813881,599617040362648374,9.00
2025-11-18 14:07:57.813881,599617040362648374,82.00
2025-11-18 14:07:57.813881,599617040362648374,123.00
2025-11-18 14:07:57.813881,599617040362648374,138.00
2025-11-18 14:07:57.813881,599617040362648374,147.00
2025-11-18 14:07:57.813881,599617040362648374,157.00
2025-11-18 14:07:57.813881,599617040362648374,159.00
2025-11-18 14:07:57.813881,599617040362648374,140.00
2025-11-18 14:07:57.813881,599617040362648374,116.00
2025-11-18 14:07:57.813881,599617040362648374,116.00
2025-11-18 14:07:57.813881,599617040362648374,116.00
2025-11-18 14:07:57.813881,599617040362648374,104.00
2025-11-18 14:07:57.813881,599617040362648374,82.00
2025-11-18 14:07:57.813881,599617040362648374,70.00
2025-11-18 14:07:57.813881,599617040362648374,65.00
2025-11-18 14:07:57.813881,599617040362648374,62.00
2025-11-18 14:07:57.813881,599617040362648374,50.00
2025-11-18 14:07:57.813881,599617040362648374,33.00
2025-11-18 14:07:57.813881,599617040362648374,33.00
2025-11-18 14:07:57.813881,599617040362648374,26.00
2025-11-18 14:07:57.813881,599617040362648374,2.00
2025-11-18 14:07:57.813881,599617040362648374,4.00
2025-11-18 14:07:57.813881,599617040362648374,24.00
2025-11-18 14:07:57.813881,599617040362648374,19.00
2025-11-18 14:07:57.813881,599617040362648374,14.00
2025-11-18 14:07:57.813881,599617040362648374,24.00
2025-11-18 14:07:57.813881,599617040362648374,26.00
2025-11-18 14:07:57.813881,599617040362648374,19.00
2025-11-18 14:07:57.813881,599617040362648374,16.00
2025-11-18 14:07:57.813881,599617040362648374,12.00
2025-11-18 14:07:57.813881,599617040362648374,4.00
2025-11-18 14:07:57.813881,599617040362648374,14.00
2025-11-18 14:07:57.813881,599617040362648374,24.00
2025-11-18 14:07:57.813881,599617040362648374,19.00
2025-11-18 14:07:57.813881,599617040362648374,14.00
2025-11-18 14:07:57.813881,599617040362648374,14.00
2025-11-18 14:07:57.813881,599617040362648374,9.00
2025-11-18 14:07:57.813881,599617040362648374,-7.00
2025-11-18 14:07:57.813881,599617040362648374,-16.00
2025-11-18 14:07:57.813881,599617040362648374,-14.00
2025-11-18 14:07:57.813881,599617040362648374,-33.00
2025-11-18 14:07:57.813881,599617040362648374,-33.00
2025-11-18 14:07:57.813881,599617040362648374,-7.00
2025-11-18 14:07:57.813881,599617040362648374,2.00
2025-11-18 14:07:57.813881,599617040362648374,-4.00
2025-11-18 14:07:57.813881,599617040362648374,-7.00
2025-11-18 14:07:57.813881,599617040362648374,-9.00
2025-11-18 14:07:57.813881,599617040362648374,-9.00
2025-11-18 14:07:57.813881,599617040362648374,-4.00
2025-11-18 14:07:57.813881,599617040362648374,9.00
2025-11-18 14:07:57.813881,599617040362648374,14.00
2025-11-18 14:07:57.813881,599617040362648374,0.00
2025-11-18 14:07:57.813881,599617040362648374,-9.00
2025-11-18 14:07:58.413450,599617040923345417,-4.00
2025-11-18 14:07:58.413450,599617040923345417,-7.00
2025-11-18 14:07:58.413450,599617040923345417,-12.00
2025-11-18 14:07:58.413450,599617040923345417,-38.00
2025-11-18 14:07:58.413450,599617040923345417,-133.00
2025-11-18 14:07:58.413450,599617040923345417,-271.00
2025-11-18 14:07:58.413450,599617040923345417,-217.00
2025-11-18 14:07:58.413450,599617040923345417,276.00
2025-11-18 14:07:58.413450,599617040923345417,1060.00
2025-11-18 14:07:58.413450,599617040923345417,1462.00
2025-11-18 14:07:58.413450,599617040923345417,1055.00
2025-11-18 14:07:58.413450,599617040923345417,380.00
2025-11-18 14:07:58.413450,599617040923345417,21.00
2025-11-18 14:07:58.413450,599617040923345417,-147.00
2025-11-18 14:07:58.413450,599617040923345417,-297.00
2025-11-18 14:07:58.413450,599617040923345417,-336.00
2025-11-18 14:07:58.413450,599617040923345417,-305.00
2025-11-18 14:07:58.413450,599617040923345417,-317.00
2025-11-18 14:07:58.413450,599617040923345417,-326.00
2025-11-18 14:07:58.413450,599617040923345417,-302.00
2025-11-18 14:07:58.413450,599617040923345417,-292.00
2025-11-18 14:07:58.413450,599617040923345417,-295.00
2025-11-18 14:07:58.413450,599617040923345417,-312.00
2025-11-18 14:07:58.413450,599617040923345417,-343.00
2025-11-18 14:07:58.413450,599617040923345417,-338.00
2025-11-18 14:07:58.413450,599617040923345417,-326.00
2025-11-18 14:07:58.413450,599617040923345417,-346.00
2025-11-18 14:07:58.413450,599617040923345417,-368.00
2025-11-18 14:07:58.413450,599617040923345417,-382.00
2025-11-18 14:07:58.413450,599617040923345417,-404.00
2025-11-18 14:07:58.413450,599617040923345417,-430.00
2025-11-18 14:07:58.413450,599617040923345417,-455.00
2025-11-18 14:07:58.413450,599617040923345417,-484.00
2025-11-18 14:07:58.413450,599617040923345417,-510.00
2025-11-18 14:07:58.413450,599617040923345417,-522.00
2025-11-18 14:07:58.413450,599617040923345417,-527.00
2025-11-18 14:07:58.413450,599617040923345417,-515.00
2025-11-18 14:07:58.413450,599617040923345417,-464.00
