Timestamp,Device Timestamp (ns),ECG Value (uV)
2025-11-18 13:57:59.049966,599616441588715520,-346.00
2025-11-18 13:57:59.049966,599616441588715520,-348.00
2025-11-18 13:57:59.049966,599616441588715520,-353.00
2025-11-18 13:57:59.049966,599616441588715520,-368.00
2025-11-18 13:57:59.049966,599616441588715520,-387.00
2025-11-18 13:57:59.049966,599616441588715520,-399.00
2025-11-18 13:57:59.049966,599616441588715520,-421.00
2025-11-18 13:57:59.049966,599616441588715520,-445.00
2025-11-18 13:57:59.049966,599616441588715520,-467.00
2025-11-18 13:57:59.049966,599616441588715520,-484.00
2025-11-18 13:57:59.049966,599616441588715520,-498.00
2025-11-18 13:57:59.049966,599616441588715520,-501.00
2025-11-18 13:57:59.049966,599616441588715520,-491.00
2025-11-18 13:57:59.049966,599616441588715520,-462.00
2025-11-18 13:57:59.049966,599616441588715520,-414.00
2025-11-18 13:57:59.049966,599616441588715520,-346.00
2025-11-18 13:57:59.049966,599616441588715520,-266.00
2025-11-18 13:57:59.049966,599616441588715520,-193.00
2025-11-18 13:57:59.049966,599616441588715520,-130.00
2025-11-18 13:57:59.049966,599616441588715520,-65.00
2025-11-18 13:57:59.049966,599616441588715520,-2.00
2025-11-18 13:57:59.049966,599616441588715520,36.00
2025-11-18 13:57:59.049966,599616441588715520,53.00
2025-11-18 13:57:59.049966,599616441588715520,60.00
2025-11-18 13:57:59.049966,599616441588715520,60.00
2025-11-18 13:57:59.049966,599616441588715520,50.00
2025-11-18 13:57:59.049966,599616441588715520,41.00
2025-11-18 13:57:59.049966,599616441588715520,33.00
2025-11-18 13:57:59.049966,599616441588715520,24.00
2025-11-18 13:57:59.049966,599616441588715520,16.00
2025-11-18 13:57:59.049966,599616441588715520,12.00
2025-11-18 13:57:59.049966,599616441588715520,4.00
2025-11-18 13:57:59.049966,599616441588715520,-4.00
2025-11-18 13:57:59.049966,599616441588715520,-12.00
2025-11-18 13:57:59.049966,599616441588715520,-12.00
2025-11-18 13:57:59.049966,599616441588715520,-14.00
2025-11-18 13:57:59.049966,599616441588715520,-16.00
2025-11-18 13:57:59.049966,599616441588715520,-19.00
2025-11-18 13:57:59.049966,599616441588715520,-19.00
2025-11-18 13:57:59.049966,599616441588715520,-24.00
2025-11-18 13:57:59.049966,599616441588715520,-26.00
2025-11-18 13:57:59.049966,599616441588715520,-19.00
2025-11-18 13:57:59.049966,599616441588715520,-16.00
2025-11-18 13:57:59.049966,599616441588715520,-24.00
2025-11-18 13:57:59.049966,599616441588715520,-19.00
2025-11-18 13:57:59.049966,599616441588715520,-9.00
2025-11-18 13:57:59.049966,599616441588715520,-16.00
2025-11-18 13:57:59.049966,599616441588715520,-21.00
2025-11-18 13:57:59.049966,599616441588715520,-21.00
2025-11-18 13:57:59.049966,599616441588715520,-26.00
2025-11-18 13:57:59.049966,599616441588715520,-29.00
2025-11-18 13:57:59.049966,599616441588715520,-26.00
2025-11-18 13:57:59.049966,599616441588715520,-29.00
2025-11-18 13:57:59.049966,599616441588715520,-33.00
2025-11-18 13:57:59.049966,599616441588715520,-33.00
2025-11-18 13:57:59.049966,599616441588715520,-29.00
2025-11-18 13:57:59.049966,599616441588715520,-26.00
2025-11-18 13:57:59.049966,599616441588715520,-36.00
2025-11-18 13:57:59.049966,599616441588715520,-41.00
2025-11-18 13:57:59.049966,599616441588715520,-36.00
2025-11-18 13:57:59.049966,599616441588715520,-41.00
2025-11-18 13:57:59.049966,599616441588715520,-58.00
2025-11-18 13:57:59.049966,599616441588715520,-67.00
2025-11-18 13:57:59.049966,599616441588715520,-70.00
2025-11-18 13:57:59.049966,599616441588715520,-70.00
2025-11-18 13:57:59.049966,599616441588715520,-60.00
2025-11-18 13:57:59.049966,599616441588715520,-53.00
2025-11-18 13:57:59.049966,599616441588715520,-55.00
2025-11-18 13:57:59.049966,599616441588715520,-62.00
2025-11-18 13:57:59.049966,599616441588715520,-62.00
2025-11-18 13:57:59.049966,599616441588715520,-55.00
2025-11-18 13:57:59.049966,599616441588715520,-46.00
2025-11-18 13:57:59.049966,599616441588715520,-41.00
2025-11-18 13:57:59.643419,599616442149321009,-41.00
2025-11-18 13:57:59.643419,599616442149321009,-43.00
2025-11-18 13:57:59.643419,599616442149321009,-48.00
2025-11-18 13:57:59.643419,599616442149321009,-53.00
2025-11-18 13:57:59.643419,599616442149321009,-60.00
2025-11-18 13:57:59.643419,599616442149321009,-70.00
2025-11-18 13:57:59.643419,599616442149321009,-111.00
2025-11-18 13:57:59.643419,599616442149321009,-227.00
2025-11-18 13:57:59.643419,599616442149321009,-300.00
2025-11-18 13:57:59.643419,599616442149321009,-70.00
2025-11-18 13:57:59.643419,599616442149321009,605.00
2025-11-18 13:57:59.643419,599616442149321009,1348.00
2025-11-18 13:57:59.643419,599616442149321009,1358.00
2025-11-18 13:57:59.643419,599616442149321009,639.00
2025-11-18 13:57:59.643419,599616442149321009,33.00
2025-11-18 13:57:59.643419,599616442149321009,-191.00
2025-11-18 13:57:59.643419,599616442149321009,-326.00
2025-11-18 13:57:59.643419,599616442149321009,-401.00
2025-11-18 13:57:59.643419,599616442149321009,-365.00
2025-11-18 13:57:59.643419,599616442149321009,-346.00
2025-11-18 13:57:59.643419,599616442149321009,-363.00
2025-11-18 13:57:59.643419,599616442149321009,-348.00
2025-11-18 13:57:59.643419,599616442149321009,-331.00
2025-11-18 13:57:59.643419,599616442149321009,-334.00
2025-11-18 13:57:59.643419,599616442149321009,-334.00
2025-11-18 13:57:59.643419,599616442149321009,-329.00
2025-11-18 13:57:59.643419,599616442149321009,-329.00
2025-11-18 13:57:59.643419,599616442149321009,-334.00
2025-11-18 13:57:59.643419,599616442149321009,-341.00
2025-11-18 13:57:59.643419,599616442149321009,-346.00
2025-11-18 13:57:59.643419,599616442149321009,-358.00
2025-11-18 13:57:59.643419,599616442149321009,-382.00
2025-11-18 13:57:59.643419,599616442149321009,-399.00
2025-11-18 13:57:59.643419,599616442149321009,-411.00
2025-11-18 13:57:59.643419,599616442149321009,-433.00
2025-11-18 13:57:59.643419,599616442149321009,-464.00
2025-11-18 13:57:59.643419,599616442149321009,-486.00
2025-11-18 13:57:59.643419,599616442149321009,-489.00
2025-11-18 13:57:59.643419,599616442149321009,-489.00
2025-11-18 13:57:59.643419,599616442149321009,-479.00
2025-11-18 13:57:59.643419,599616442149321009,-445.00
2025-11-18 13:57:59.643419,599616442149321009,-387.00
2025-11-18 13:57:59.643419,599616442149321009,-317.00
2025-11-18 13:57:59.643419,599616442149321009,-244.00
2025-11-18 13:57:59.643419,599616442149321009,-171.00
2025-11-18 13:57:59.643419,599616442149321009,-101.00
2025-11-18 13:57:59.643419,599616442149321009,-36.00
2025-11-18 13:57:59.643419,599616442149321009,7.00
2025-11-18 13:57:59.643419,599616442149321009,29.00
2025-11-18 13:57:59.643419,599616442149321009,53.00
2025-11-18 13:57:59.643419,599616442149321009,62.00
2025-11-18 13:57:59.643419,599616442149321009,55.00
2025-11-18 13:57:59.643419,599616442149321009,48.00
2025-11-18 13:57:59.643419,599616442149321009,43.00
2025-11-18 13:57:59.643419,599616442149321009,31.00
2025-11-18 13:57:59.643419,599616442149321009,19.00
2025-11-18 13:57:59.643419,599616442149321009,12.00
2025-11-18 13:57:59.643419,599616442149321009,7.00
2025-11-18 13:57:59.643419,599616442149321009,-2.00
2025-11-18 13:57:59.643419,599616442149321009,-12.00
2025-11-18 13:57:59.643419,599616442149321009,-19.00
2025-11-18 13:57:59.643419,599616442149321009,-26.00
2025-11-18 13:57:59.643419,599616442149321009,-31.00
2025-11-18 13:57:59.643419,599616442149321009,-31.00
2025-11-18 13:57:59.643419,599616442149321009,-31.00
2025-11-18 13:57:59.643419,599616442149321009,-31.00
2025-11-18 13:57:59.643419,599616442149321009,-31.00
2025-11-18 13:57:59.643419,599616442149321009,-31.00
2025-11-18 13:57:59.643419,599616442149321009,-36.00
2025-11-18 13:57:59.643419,599616442149321009,-36.00
2025-11-18 13:57:59.643419,599616442149321009,-31.00
2025-11-18 13:57:59.643419,599616442149321009,-33.00
2025-11-18 13:57:59.643419,599616442149321009,-38.00
2025-11-18 13:58:00.184728,599616442709926496,-41.00
2025-11-18 13:58:00.184728,599616442709926496,-38.00
2025-11-18 13:58:00.184728,599616442709926496,-41.00
2025-11-18 13:58:00.184728,599616442709926496,-41.00
2025-11-18 13:58:00.184728,599616442709926496,-41.00
2025-11-18 13:58:00.184728,599616442709926496,-46.00
2025-11-18 13:58:00.184728,599616442709926496,-48.00
2025-11-18 13:58:00.184728,599616442709926496,-46.00
2025-11-18 13:58:00.184728,599616442709926496,-48.00
2025-11-18 13:58:00.184728,599616442709926496,-58.00
2025-11-18 13:58:00.184728,599616442709926496,-65.00
2025-11-18 13:58:00.184728,599616442709926496,-70.00
2025-11-18 13:58:00.184728,599616442709926496,-75.00
2025-11-18 13:58:00.184728,599616442709926496,-70.00
2025-11-18 13:58:00.184728,599616442709926496,-53.00
2025-11-18 13:58:00.184728,599616442709926496,-48.00
2025-11-18 13:58:00.184728,599616442709926496,-60.00
2025-11-18 13:58:00.184728,599616442709926496,-70.00
2025-11-18 13:58:00.184728,599616442709926496,-72.00
2025-11-18 13:58:00.184728,599616442709926496,-60.00
2025-11-18 13:58:00.184728,599616442709926496,-43.00
2025-11-18 13:58:00.184728,599616442709926496,-38.00
2025-11-18 13:58:00.184728,599616442709926496,-43.00
2025-11-18 13:58:00.184728,599616442709926496,-46.00
2025-11-18 13:58:00.184728,599616442709926496,-46.00
2025-11-18 13:58:00.184728,599616442709926496,-55.00
2025-11-18 13:58:00.184728,599616442709926496,-65.00
2025-11-18 13:58:00.184728,599616442709926496,-75.00
2025-11-18 13:58:00.184728,599616442709926496,-125.00
2025-11-18 13:58:00.184728,599616442709926496,-237.00
2025-11-18 13:58:00.184728,599616442709926496,-251.00
2025-11-18 13:58:00.184728,599616442709926496,82.00
2025-11-18 13:58:00.184728,599616442709926496,823.00
2025-11-18 13:58:00.184728,599616442709926496,1464.00
2025-11-18 13:58:00.184728,599616442709926496,1263.00
2025-11-18 13:58:00.184728,599616442709926496,467.00
2025-11-18 13:58:00.184728,599616442709926496,-77.00
2025-11-18 13:58:00.184728,599616442709926496,-266.00
2025-11-18 13:58:00.184728,599616442709926496,-377.00
2025-11-18 13:58:00.184728,599616442709926496,-414.00
2025-11-18 13:58:00.184728,599616442709926496,-382.00
2025-11-18 13:58:00.184728,599616442709926496,-377.00
2025-11-18 13:58:00.184728,599616442709926496,-382.00
2025-11-18 13:58:00.184728,599616442709926496,-365.00
2025-11-18 13:58:00.184728,599616442709926496,-355.00
2025-11-18 13:58:00.184728,599616442709926496,-351.00
2025-11-18 13:58:00.184728,599616442709926496,-346.00
2025-11-18 13:58:00.184728,599616442709926496,-346.00
2025-11-18 13:58:00.184728,599616442709926496,-351.00
2025-11-18 13:58:00.184728,599616442709926496,-351.00
2025-11-18 13:58:00.184728,599616442709926496,-353.00
2025-11-18 13:58:00.184728,599616442709926496,-368.00
2025-11-18 13:58:00.184728,599616442709926496,-382.00
2025-11-18 13:58:00.184728,599616442709926496,-392.00
2025-11-18 13:58:00.184728,599616442709926496,-416.00
2025-11-18 13:58:00.184728,599616442709926496,-445.00
2025-11-18 13:58:00.184728,599616442709926496,-462.00
2025-11-18 13:58:00.184728,599616442709926496,-481.00
2025-11-18 13:58:00.184728,599616442709926496,-501.00
2025-11-18 13:58:00.184728,599616442709926496,-510.00
2025-11-18 13:58:00.184728,599616442709926496,-506.00
2025-11-18 13:58:00.184728,599616442709926496,-489.00
2025-11-18 13:58:00.184728,599616442709926496,-457.00
2025-11-18 13:58:00.184728,599616442709926496,-399.00
2025-11-18 13:58:00.184728,599616442709926496,-322.00
2025-11-18 13:58:00.184728,599616442709926496,-237.00
2025-11-18 13:58:00.184728,599616442709926496,-150.00
2025-11-18 13:58:00.184728,599616442709926496,-79.00
2025-11-18 13:58:00.184728,599616442709926496,-24.00
2025-11-18 13:58:00.184728,599616442709926496,21.00
2025-11-18 13:58:00.184728,599616442709926496,46.00
2025-11-18 13:58:00.184728,599616442709926496,53.00
2025-11-18 13:58:00.184728,599616442709926496,58.00
2025-11-18 13:58:00.785873,599616443270531983,55.00
2025-11-18 13:58:00.785873,599616443270531983,48.00
2025-11-18 13:58:00.785873,599616443270531983,33.00
2025-11-18 13:58:00.785873,599616443270531983,21.00
2025-11-18 13:58:00.785873,599616443270531983,16.00
2025-11-18 13:58:00.785873,599616443270531983,4.00
2025-11-18 13:58:00.785873,599616443270531983,-9.00
2025-11-18 13:58:00.785873,599616443270531983,-16.00
2025-11-18 13:58:00.785873,599616443270531983,-21.00
2025-11-18 13:58:00.785873,599616443270531983,-21.00
2025-11-18 13:58:00.785873,599616443270531983,-31.00
2025-11-18 13:58:00.785873,599616443270531983,-38.00
2025-11-18 13:58:00.785873,599616443270531983,-38.00
2025-11-18 13:58:00.785873,599616443270531983,-38.00
2025-11-18 13:58:00.785873,599616443270531983,-36.00
2025-11-18 13:58:00.785873,599616443270531983,-36.00
2025-11-18 13:58:00.785873,599616443270531983,-36.00
2025-11-18 13:58:00.785873,599616443270531983,-38.00
2025-11-18 13:58:00.785873,599616443270531983,-38.00
2025-11-18 13:58:00.785873,599616443270531983,-41.00
2025-11-18 13:58:00.785873,599616443270531983,-41.00
2025-11-18 13:58:00.785873,599616443270531983,-36.00
2025-11-18 13:58:00.785873,599616443270531983,-38.00
2025-11-18 13:58:00.785873,599616443270531983,-43.00
2025-11-18 13:58:00.785873,599616443270531983,-48.00
2025-11-18 13:58:00.785873,599616443270531983,-48.00
2025-11-18 13:58:00.785873,599616443270531983,-43.00
2025-11-18 13:58:00.785873,599616443270531983,-43.00
2025-11-18 13:58:00.785873,599616443270531983,-48.00
2025-11-18 13:58:00.785873,599616443270531983,-58.00
2025-11-18 13:58:00.785873,599616443270531983,-60.00
2025-11-18 13:58:00.785873,599616443270531983,-67.00
2025-11-18 13:58:00.785873,599616443270531983,-82.00
2025-11-18 13:58:00.785873,599616443270531983,-87.00
2025-11-18 13:58:00.785873,599616443270531983,-82.00
2025-11-18 13:58:00.785873,599616443270531983,-77.00
2025-11-18 13:58:00.785873,599616443270531983,-65.00
2025-11-18 13:58:00.785873,599616443270531983,-58.00
2025-11-18 13:58:00.785873,599616443270531983,-58.00
2025-11-18 13:58:00.785873,599616443270531983,-65.00
2025-11-18 13:58:00.785873,599616443270531983,-75.00
2025-11-18 13:58:00.785873,599616443270531983,-72.00
2025-11-18 13:58:00.785873,599616443270531983,-55.00
2025-11-18 13:58:00.785873,599616443270531983,-50.00
2025-11-18 13:58:00.785873,599616443270531983,-55.00
2025-11-18 13:58:00.785873,599616443270531983,-62.00
2025-11-18 13:58:00.785873,599616443270531983,-65.00
2025-11-18 13:58:00.785873,599616443270531983,-62.00
2025-11-18 13:58:00.785873,599616443270531983,-60.00
2025-11-18 13:58:00.785873,599616443270531983,-77.00
2025-11-18 13:58:00.785873,599616443270531983,-152.00
2025-11-18 13:58:00.785873,599616443270531983,-263.00
2025-11-18 13:58:00.785873,599616443270531983,-227.00
2025-11-18 13:58:00.785873,599616443270531983,210.00
2025-11-18 13:58:00.785873,599616443270531983,1012.00
2025-11-18 13:58:00.785873,599616443270531983,1518.00
2025-11-18 13:58:00.785873,599616443270531983,1111.00
2025-11-18 13:58:00.785873,599616443270531983,302.00
2025-11-18 13:58:00.785873,599616443270531983,-145.00
2025-11-18 13:58:00.785873,599616443270531983,-307.00
2025-11-18 13:58:00.785873,599616443270531983,-401.00
2025-11-18 13:58:00.785873,599616443270531983,-401.00
2025-11-18 13:58:00.785873,599616443270531983,-375.00
2025-11-18 13:58:00.785873,599616443270531983,-389.00
2025-11-18 13:58:00.785873,599616443270531983,-380.00
2025-11-18 13:58:00.785873,599616443270531983,-351.00
2025-11-18 13:58:00.785873,599616443270531983,-353.00
2025-11-18 13:58:00.785873,599616443270531983,-355.00
2025-11-18 13:58:00.785873,599616443270531983,-346.00
2025-11-18 13:58:00.785873,599616443270531983,-343.00
2025-11-18 13:58:00.785873,599616443270531983,-346.00
2025-11-18 13:58:00.785873,599616443270531983,-348.00
2025-11-18 13:58:00.785873,599616443270531983,-360.00
2025-11-18 13:58:01.294679,599616443831137470,-370.00
2025-11-18 13:58:01.294679,599616443831137470,-375.00
2025-11-18 13:58:01.294679,599616443831137470,-394.00
2025-11-18 13:58:01.294679,599616443831137470,-421.00
2025-11-18 13:58:01.294679,599616443831137470,-440.00
2025-11-18 13:58:01.294679,599616443831137470,-462.00
2025-11-18 13:58:01.294679,599616443831137470,-484.00
2025-11-18 13:58:01.294679,599616443831137470,-496.00
2025-11-18 13:58:01.294679,599616443831137470,-506.00
2025-11-18 13:58:01.294679,599616443831137470,-506.00
2025-11-18 13:58:01.294679,599616443831137470,-486.00
2025-11-18 13:58:01.294679,599616443831137470,-438.00
2025-11-18 13:58:01.294679,599616443831137470,-368.00
2025-11-18 13:58:01.294679,599616443831137470,-285.00
2025-11-18 13:58:01.294679,599616443831137470,-203.00
2025-11-18 13:58:01.294679,599616443831137470,-130.00
2025-11-18 13:58:01.294679,599616443831137470,-62.00
2025-11-18 13:58:01.294679,599616443831137470,-7.00
2025-11-18 13:58:01.294679,599616443831137470,24.00
2025-11-18 13:58:01.294679,599616443831137470,50.00
2025-11-18 13:58:01.294679,599616443831137470,75.00
2025-11-18 13:58:01.294679,599616443831137470,72.00
2025-11-18 13:58:01.294679,599616443831137470,58.00
2025-11-18 13:58:01.294679,599616443831137470,50.00
2025-11-18 13:58:01.294679,599616443831137470,48.00
2025-11-18 13:58:01.294679,599616443831137470,36.00
2025-11-18 13:58:01.294679,599616443831137470,19.00
2025-11-18 13:58:01.294679,599616443831137470,7.00
2025-11-18 13:58:01.294679,599616443831137470,-4.00
2025-11-18 13:58:01.294679,599616443831137470,-16.00
2025-11-18 13:58:01.294679,599616443831137470,-16.00
2025-11-18 13:58:01.294679,599616443831137470,-9.00
2025-11-18 13:58:01.294679,599616443831137470,-16.00
2025-11-18 13:58:01.294679,599616443831137470,-38.00
2025-11-18 13:58:01.294679,599616443831137470,-43.00
2025-11-18 13:58:01.294679,599616443831137470,-33.00
2025-11-18 13:58:01.294679,599616443831137470,-38.00
2025-11-18 13:58:01.294679,599616443831137470,-36.00
2025-11-18 13:58:01.294679,599616443831137470,-29.00
2025-11-18 13:58:01.294679,599616443831137470,-33.00
2025-11-18 13:58:01.294679,599616443831137470,-36.00
2025-11-18 13:58:01.294679,599616443831137470,-33.00
2025-11-18 13:58:01.294679,599616443831137470,-31.00
2025-11-18 13:58:01.294679,599616443831137470,-38.00
2025-11-18 13:58:01.294679,599616443831137470,-48.00
2025-11-18 13:58:01.294679,599616443831137470,-46.00
2025-11-18 13:58:01.294679,599616443831137470,-41.00
2025-11-18 13:58:01.294679,599616443831137470,-58.00
2025-11-18 13:58:01.294679,599616443831137470,-67.00
2025-11-18 13:58:01.294679,599616443831137470,-38.00
2025-11-18 13:58:01.294679,599616443831137470,-24.00
2025-11-18 13:58:01.294679,599616443831137470,-60.00
2025-11-18 13:58:01.294679,599616443831137470,-67.00
2025-11-18 13:58:01.294679,599616443831137470,-36.00
2025-11-18 13:58:01.294679,599616443831137470,-41.00
2025-11-18 13:58:01.294679,599616443831137470,-67.00
2025-11-18 13:58:01.294679,599616443831137470,-70.00
2025-11-18 13:58:01.294679,599616443831137470,-77.00
2025-11-18 13:58:01.294679,599616443831137470,-104.00
2025-11-18 13:58:01.294679,599616443831137470,-106.00
2025-11-18 13:58:01.294679,599616443831137470,-70.00
2025-11-18 13:58:01.294679,599616443831137470,-50.00
2025-11-18 13:58:01.294679,599616443831137470,-79.00
2025-11-18 13:58:01.294679,599616443831137470,-77.00
2025-11-18 13:58:01.294679,599616443831137470,-43.00
2025-11-18 13:58:01.294679,599616443831137470,-53.00
2025-11-18 13:58:01.294679,599616443831137470,-72.00
2025-11-18 13:58:01.294679,599616443831137470,-58.00
2025-11-18 13:58:01.294679,599616443831137470,-48.00
2025-11-18 13:58:01.294679,599616443831137470,-60.00
2025-11-18 13:58:01.294679,599616443831137470,-67.00
2025-11-18 13:58:01.294679,599616443831137470,-82.00
2025-11-18 13:58:01.294679,599616443831137470,-113.00
2025-11-18 13:58:01.866319,599616444391748045,-116.00
2025-11-18 13:58:01.866319,599616444391748045,-58.00
2025-11-18 13:58:01.866319,599616444391748045,-94.00
2025-11-18 13:58:01.866319,599616444391748045,-268.00
2025-11-18 13:58:01.866319,599616444391748045,-234.00
2025-11-18 13:58:01.866319,599616444391748045,280.00
2025-11-18 13:58:01.866319,599616444391748045,1091.00
2025-11-18 13:58:01.866319,599616444391748045,1503.00
2025-11-18 13:58:01.866319,599616444391748045,1033.00
2025-11-18 13:58:01.866319,599616444391748045,244.00
2025-11-18 13:58:01.866319,599616444391748045,-200.00
2025-11-18 13:58:01.866319,599616444391748045,-355.00
2025-11-18 13:58:01.866319,599616444391748045,-404.00
2025-11-18 13:58:01.866319,599616444391748045,-377.00
2025-11-18 13:58:01.866319,599616444391748045,-322.00
2025-11-18 13:58:01.866319,599616444391748045,-329.00
2025-11-18 13:58:01.866319,599616444391748045,-353.00
2025-11-18 13:58:01.866319,599616444391748045,-334.00
2025-11-18 13:58:01.866319,599616444391748045,-322.00
2025-11-18 13:58:01.866319,599616444391748045,-326.00
2025-11-18 13:58:01.866319,599616444391748045,-324.00
2025-11-18 13:58:01.866319,599616444391748045,-322.00
2025-11-18 13:58:01.866319,599616444391748045,-326.00
2025-11-18 13:58:01.866319,599616444391748045,-329.00
2025-11-18 13:58:01.866319,599616444391748045,-341.00
2025-11-18 13:58:01.866319,599616444391748045,-348.00
2025-11-18 13:58:01.866319,599616444391748045,-331.00
2025-11-18 13:58:01.866319,599616444391748045,-355.00
2025-11-18 13:58:01.866319,599616444391748045,-404.00
2025-11-18 13:58:01.866319,599616444391748045,-404.00
2025-11-18 13:58:01.866319,599616444391748045,-421.00
2025-11-18 13:58:01.866319,599616444391748045,-476.00
2025-11-18 13:58:01.866319,599616444391748045,-464.00
2025-11-18 13:58:01.866319,599616444391748045,-430.00
2025-11-18 13:58:01.866319,599616444391748045,-464.00
2025-11-18 13:58:01.866319,599616444391748045,-467.00
2025-11-18 13:58:01.866319,599616444391748045,-399.00
2025-11-18 13:58:01.866319,599616444391748045,-346.00
2025-11-18 13:58:01.866319,599616444391748045,-314.00
2025-11-18 13:58:01.866319,599616444391748045,-215.00
2025-11-18 13:58:01.866319,599616444391748045,-48.00
2025-11-18 13:58:01.866319,599616444391748045,14.00
2025-11-18 13:58:01.866319,599616444391748045,-7.00
2025-11-18 13:58:01.866319,599616444391748045,65.00
2025-11-18 13:58:01.866319,599616444391748045,113.00
2025-11-18 13:58:01.866319,599616444391748045,77.00
2025-11-18 13:58:01.866319,599616444391748045,77.00
2025-11-18 13:58:01.866319,599616444391748045,92.00
2025-11-18 13:58:01.866319,599616444391748045,67.00
2025-11-18 13:58:01.866319,599616444391748045,43.00
2025-11-18 13:58:01.866319,599616444391748045,41.00
2025-11-18 13:58:01.866319,599616444391748045,41.00
2025-11-18 13:58:01.866319,599616444391748045,26.00
2025-11-18 13:58:01.866319,599616444391748045,14.00
2025-11-18 13:58:01.866319,599616444391748045,24.00
2025-11-18 13:58:01.866319,599616444391748045,21.00
2025-11-18 13:58:01.866319,599616444391748045,2.00
2025-11-18 13:58:01.866319,599616444391748045,-7.00
2025-11-18 13:58:01.866319,599616444391748045,-7.00
2025-11-18 13:58:01.866319,599616444391748045,-12.00
2025-11-18 13:58:01.866319,599616444391748045,-14.00
2025-11-18 13:58:01.866319,599616444391748045,-16.00
2025-11-18 13:58:01.866319,599616444391748045,-21.00
2025-11-18 13:58:01.866319,599616444391748045,-16.00
2025-11-18 13:58:01.866319,599616444391748045,-12.00
2025-11-18 13:58:01.866319,599616444391748045,-19.00
2025-11-18 13:58:01.866319,599616444391748045,-21.00
2025-11-18 13:58:01.866319,599616444391748045,-16.00
2025-11-18 13:58:01.866319,599616444391748045,-24.00
2025-11-18 13:58:01.866319,599616444391748045,-46.00
2025-11-18 13:58:01.866319,599616444391748045,-46.00
2025-11-18 13:58:01.866319,599616444391748045,-14.00
2025-11-18 13:58:01.866319,599616444391748045,-4.00
2025-11-18 13:58:02.407256,599616444952378962,-38.00
2025-11-18 13:58:02.407256,599616444952378962,-58.00
2025-11-18 13:58:02.407256,599616444952378962,-50.00
2025-11-18 13:58:02.407256,599616444952378962,-50.00
2025-11-18 13:58:02.407256,599616444952378962,-55.00
2025-11-18 13:58:02.407256,599616444952378962,-58.00
2025-11-18 13:58:02.407256,599616444952378962,-60.00
2025-11-18 13:58:02.407256,599616444952378962,-55.00
2025-11-18 13:58:02.407256,599616444952378962,-53.00
2025-11-18 13:58:02.407256,599616444952378962,-53.00
2025-11-18 13:58:02.407256,599616444952378962,-60.00
2025-11-18 13:58:02.407256,599616444952378962,-65.00
2025-11-18 13:58:02.407256,599616444952378962,-65.00
2025-11-18 13:58:02.407256,599616444952378962,-70.00
2025-11-18 13:58:02.407256,599616444952378962,-77.00
2025-11-18 13:58:02.407256,599616444952378962,-87.00
2025-11-18 13:58:02.407256,599616444952378962,-94.00
2025-11-18 13:58:02.407256,599616444952378962,-96.00
2025-11-18 13:58:02.407256,599616444952378962,-96.00
2025-11-18 13:58:02.407256,599616444952378962,-87.00
2025-11-18 13:58:02.407256,599616444952378962,-75.00
2025-11-18 13:58:02.407256,599616444952378962,-79.00
2025-11-18 13:58:02.407256,599616444952378962,-89.00
2025-11-18 13:58:02.407256,599616444952378962,-99.00
2025-11-18 13:58:02.407256,599616444952378962,-106.00
2025-11-18 13:58:02.407256,599616444952378962,-101.00
2025-11-18 13:58:02.407256,599616444952378962,-87.00
2025-11-18 13:58:02.407256,599616444952378962,-84.00
2025-11-18 13:58:02.407256,599616444952378962,-87.00
2025-11-18 13:58:02.407256,599616444952378962,-89.00
2025-11-18 13:58:02.407256,599616444952378962,-87.00
2025-11-18 13:58:02.407256,599616444952378962,-87.00
2025-11-18 13:58:02.407256,599616444952378962,-106.00
2025-11-18 13:58:02.407256,599616444952378962,-159.00
2025-11-18 13:58:02.407256,599616444952378962,-266.00
2025-11-18 13:58:02.407256,599616444952378962,-331.00
2025-11-18 13:58:02.407256,599616444952378962,-94.00
2025-11-18 13:58:02.407256,599616444952378962,602.00
2025-11-18 13:58:02.407256,599616444952378962,1329.00
2025-11-18 13:58:02.407256,599616444952378962,1273.00
2025-11-18 13:58:02.407256,599616444952378962,527.00
2025-11-18 13:58:02.407256,599616444952378962,-55.00
2025-11-18 13:58:02.407256,599616444952378962,-268.00
2025-11-18 13:58:02.407256,599616444952378962,-387.00
2025-11-18 13:58:02.407256,599616444952378962,-443.00
2025-11-18 13:58:02.407256,599616444952378962,-416.00
2025-11-18 13:58:02.407256,599616444952378962,-409.00
2025-11-18 13:58:02.407256,599616444952378962,-416.00
2025-11-18 13:58:02.407256,599616444952378962,-401.00
2025-11-18 13:58:02.407256,599616444952378962,-394.00
2025-11-18 13:58:02.407256,599616444952378962,-397.00
2025-11-18 13:58:02.407256,599616444952378962,-394.00
2025-11-18 13:58:02.407256,599616444952378962,-387.00
2025-11-18 13:58:02.407256,599616444952378962,-387.00
2025-11-18 13:58:02.407256,599616444952378962,-392.00
2025-11-18 13:58:02.407256,599616444952378962,-397.00
2025-11-18 13:58:02.407256,599616444952378962,-406.00
2025-11-18 13:58:02.407256,599616444952378962,-421.00
2025-11-18 13:58:02.407256,599616444952378962,-433.00
2025-11-18 13:58:02.407256,599616444952378962,-447.00
2025-11-18 13:58:02.407256,599616444952378962,-474.00
2025-11-18 13:58:02.407256,599616444952378962,-498.00
2025-11-18 13:58:02.407256,599616444952378962,-515.00
2025-11-18 13:58:02.407256,599616444952378962,-530.00
2025-11-18 13:58:02.407256,599616444952378962,-539.00
2025-11-18 13:58:02.407256,599616444952378962,-544.00
2025-11-18 13:58:02.407256,599616444952378962,-527.00
2025-11-18 13:58:02.407256,599616444952378962,-496.00
2025-11-18 13:58:02.407256,599616444952378962,-455.00
2025-11-18 13:58:02.407256,599616444952378962,-384.00
2025-11-18 13:58:02.407256,599616444952378962,-295.00
2025-11-18 13:58:02.407256,599616444952378962,-220.00
2025-11-18 13:58:02.407256,599616444952378962,-150.00
2025-11-18 13:58:03.004051,599616445512984451,-82.00
2025-11-18 13:58:03.004051,599616445512984451,-36.00
2025-11-18 13:58:03.004051,599616445512984451,-9.00
2025-11-18 13:58:03.004051,599616445512984451,9.00
2025-11-18 13:58:03.004051,599616445512984451,19.00
2025-11-18 13:58:03.004051,599616445512984451,21.00
2025-11-18 13:58:03.004051,599616445512984451,14.00
2025-11-18 13:58:03.004051,599616445512984451,0.00
2025-11-18 13:58:03.004051,599616445512984451,-14.00
2025-11-18 13:58:03.004051,599616445512984451,-24.00
2025-11-18 13:58:03.004051,599616445512984451,-29.00
2025-11-18 13:58:03.004051,599616445512984451,-43.00
2025-11-18 13:58:03.004051,599616445512984451,-53.00
2025-11-18 13:58:03.004051,599616445512984451,-58.00
2025-11-18 13:58:03.004051,599616445512984451,-65.00
2025-11-18 13:58:03.004051,599616445512984451,-70.00
2025-11-18 13:58:03.004051,599616445512984451,-72.00
2025-11-18 13:58:03.004051,599616445512984451,-75.00
2025-11-18 13:58:03.004051,599616445512984451,-75.00
2025-11-18 13:58:03.004051,599616445512984451,-75.00
2025-11-18 13:58:03.004051,599616445512984451,-82.00
2025-11-18 13:58:03.004051,599616445512984451,-82.00
2025-11-18 13:58:03.004051,599616445512984451,-82.00
2025-11-18 13:58:03.004051,599616445512984451,-82.00
2025-11-18 13:58:03.004051,599616445512984451,-82.00
2025-11-18 13:58:03.004051,599616445512984451,-79.00
2025-11-18 13:58:03.004051,599616445512984451,-84.00
2025-11-18 13:58:03.004051,599616445512984451,-84.00
2025-11-18 13:58:03.004051,599616445512984451,-79.00
2025-11-18 13:58:03.004051,599616445512984451,-84.00
2025-11-18 13:58:03.004051,599616445512984451,-87.00
2025-11-18 13:58:03.004051,599616445512984451,-82.00
2025-11-18 13:58:03.004051,599616445512984451,-87.00
2025-11-18 13:58:03.004051,599616445512984451,-94.00
2025-11-18 13:58:03.004051,599616445512984451,-94.00
2025-11-18 13:58:03.004051,599616445512984451,-89.00
2025-11-18 13:58:03.004051,599616445512984451,-89.00
2025-11-18 13:58:03.004051,599616445512984451,-89.00
2025-11-18 13:58:03.004051,599616445512984451,-92.00
2025-11-18 13:58:03.004051,599616445512984451,-101.00
2025-11-18 13:58:03.004051,599616445512984451,-111.00
2025-11-18 13:58:03.004051,599616445512984451,-118.00
2025-11-18 13:58:03.004051,599616445512984451,-125.00
2025-11-18 13:58:03.004051,599616445512984451,-130.00
2025-11-18 13:58:03.004051,599616445512984451,-123.00
2025-11-18 13:58:03.004051,599616445512984451,-108.00
2025-11-18 13:58:03.004051,599616445512984451,-101.00
2025-11-18 13:58:03.004051,599616445512984451,-101.00
2025-11-18 13:58:03.004051,599616445512984451,-104.00
2025-11-18 13:58:03.004051,599616445512984451,-116.00
2025-11-18 13:58:03.004051,599616445512984451,-118.00
2025-11-18 13:58:03.004051,599616445512984451,-96.00
2025-11-18 13:58:03.004051,599616445512984451,-77.00
2025-11-18 13:58:03.004051,599616445512984451,-84.00
2025-11-18 13:58:03.004051,599616445512984451,-101.00
2025-11-18 13:58:03.004051,599616445512984451,-104.00
2025-11-18 13:58:03.004051,599616445512984451,-101.00
2025-11-18 13:58:03.004051,599616445512984451,-111.00
2025-11-18 13:58:03.004051,599616445512984451,-123.00
2025-11-18 13:58:03.004051,599616445512984451,-198.00
2025-11-18 13:58:03.004051,599616445512984451,-355.00
2025-11-18 13:58:03.004051,599616445512984451,-380.00
2025-11-18 13:58:03.004051,599616445512984451,7.00
2025-11-18 13:58:03.004051,599616445512984451,786.00
2025-11-18 13:58:03.004051,599616445512984451,1317.00
2025-11-18 13:58:03.004051,599616445512984451,997.00
2025-11-18 13:58:03.004051,599616445512984451,292.00
2025-11-18 13:58:03.004051,599616445512984451,-96.00
2025-11-18 13:58:03.004051,599616445512984451,-254.00
2025-11-18 13:58:03.004051,599616445512984451,-384.00
2025-11-18 13:58:03.004051,599616445512984451,-433.00
2025-11-18 13:58:03.004051,599616445512984451,-401.00
2025-11-18 13:58:03.004051,599616445512984451,-384.00
2025-11-18 13:58:03.543617,599616446073589938,-392.00
2025-11-18 13:58:03.543617,599616446073589938,-387.00
2025-11-18 13:58:03.543617,599616446073589938,-377.00
2025-11-18 13:58:03.543617,599616446073589938,-377.00
2025-11-18 13:58:03.543617,599616446073589938,-382.00
2025-11-18 13:58:03.543617,599616446073589938,-377.00
2025-11-18 13:58:03.543617,599616446073589938,-372.00
2025-11-18 13:58:03.543617,599616446073589938,-380.00
2025-11-18 13:58:03.543617,599616446073589938,-394.00
2025-11-18 13:58:03.543617,599616446073589938,-409.00
2025-11-18 13:58:03.543617,599616446073589938,-414.00
2025-11-18 13:58:03.543617,599616446073589938,-416.00
2025-11-18 13:58:03.543617,599616446073589938,-435.00
2025-11-18 13:58:03.543617,599616446073589938,-467.00
2025-11-18 13:58:03.543617,599616446073589938,-491.00
2025-11-18 13:58:03.543617,599616446073589938,-508.00
2025-11-18 13:58:03.543617,599616446073589938,-520.00
2025-11-18 13:58:03.543617,599616446073589938,-525.00
2025-11-18 13:58:03.543617,599616446073589938,-532.00
2025-11-18 13:58:03.543617,599616446073589938,-520.00
2025-11-18 13:58:03.543617,599616446073589938,-467.00
2025-11-18 13:58:03.543617,599616446073589938,-401.00
2025-11-18 13:58:03.543617,599616446073589938,-326.00
2025-11-18 13:58:03.543617,599616446073589938,-234.00
2025-11-18 13:58:03.543617,599616446073589938,-164.00
2025-11-18 13:58:03.543617,599616446073589938,-108.00
2025-11-18 13:58:03.543617,599616446073589938,-50.00
2025-11-18 13:58:03.543617,599616446073589938,-12.00
2025-11-18 13:58:03.543617,599616446073589938,0.00
2025-11-18 13:58:03.543617,599616446073589938,7.00
2025-11-18 13:58:03.543617,599616446073589938,9.00
2025-11-18 13:58:03.543617,599616446073589938,14.00
2025-11-18 13:58:03.543617,599616446073589938,14.00
2025-11-18 13:58:03.543617,599616446073589938,0.00
2025-11-18 13:58:03.543617,599616446073589938,-21.00
2025-11-18 13:58:03.543617,599616446073589938,-29.00
2025-11-18 13:58:03.543617,599616446073589938,-29.00
2025-11-18 13:58:03.543617,599616446073589938,-36.00
2025-11-18 13:58:03.543617,599616446073589938,-46.00
2025-11-18 13:58:03.543617,599616446073589938,-55.00
2025-11-18 13:58:03.543617,599616446073589938,-65.00
2025-11-18 13:58:03.543617,599616446073589938,-67.00
2025-11-18 13:58:03.543617,599616446073589938,-72.00
2025-11-18 13:58:03.543617,599616446073589938,-82.00
2025-11-18 13:58:03.543617,599616446073589938,-72.00
2025-11-18 13:58:03.543617,599616446073589938,-67.00
2025-11-18 13:58:03.543617,599616446073589938,-87.00
2025-11-18 13:58:03.543617,599616446073589938,-94.00
2025-11-18 13:58:03.543617,599616446073589938,-82.00
2025-11-18 13:58:03.543617,599616446073589938,-82.00
2025-11-18 13:58:03.543617,599616446073589938,-89.00
2025-11-18 13:58:03.543617,599616446073589938,-89.00
2025-11-18 13:58:03.543617,599616446073589938,-79.00
2025-11-18 13:58:03.543617,599616446073589938,-72.00
2025-11-18 13:58:03.543617,599616446073589938,-82.00
2025-11-18 13:58:03.543617,599616446073589938,-92.00
2025-11-18 13:58:03.543617,599616446073589938,-92.00
2025-11-18 13:58:03.543617,599616446073589938,-101.00
2025-11-18 13:58:03.543617,599616446073589938,-108.00
2025-11-18 13:58:03.543617,599616446073589938,-87.00
2025-11-18 13:58:03.543617,599616446073589938,-70.00
2025-11-18 13:58:03.543617,599616446073589938,-92.00
2025-11-18 13:58:03.543617,599616446073589938,-123.00
2025-11-18 13:58:03.543617,599616446073589938,-121.00
2025-11-18 13:58:03.543617,599616446073589938,-111.00
2025-11-18 13:58:03.543617,599616446073589938,-128.00
2025-11-18 13:58:03.543617,599616446073589938,-123.00
2025-11-18 13:58:03.543617,599616446073589938,-84.00
2025-11-18 13:58:03.543617,599616446073589938,-87.00
2025-11-18 13:58:03.543617,599616446073589938,-121.00
2025-11-18 13:58:03.543617,599616446073589938,-104.00
2025-11-18 13:58:03.543617,599616446073589938,-101.00
2025-11-18 13:58:03.543617,599616446073589938,-150.00
2025-11-18 13:58:04.114989,599616446634195425,-116.00
2025-11-18 13:58:04.114989,599616446634195425,-55.00
2025-11-18 13:58:04.114989,599616446634195425,-92.00
2025-11-18 13:58:04.114989,599616446634195425,-121.00
2025-11-18 13:58:04.114989,599616446634195425,-104.00
2025-11-18 13:58:04.114989,599616446634195425,-113.00
2025-11-18 13:58:04.114989,599616446634195425,-118.00
2025-11-18 13:58:04.114989,599616446634195425,-111.00
2025-11-18 13:58:04.114989,599616446634195425,-179.00
2025-11-18 13:58:04.114989,599616446634195425,-314.00
2025-11-18 13:58:04.114989,599616446634195425,-290.00
2025-11-18 13:58:04.114989,599616446634195425,101.00
2025-11-18 13:58:04.114989,599616446634195425,820.00
2025-11-18 13:58:04.114989,599616446634195425,1360.00
2025-11-18 13:58:04.114989,599616446634195425,1111.00
2025-11-18 13:58:04.114989,599616446634195425,377.00
2025-11-18 13:58:04.114989,599616446634195425,-113.00
2025-11-18 13:58:04.114989,599616446634195425,-295.00
2025-11-18 13:58:04.114989,599616446634195425,-406.00
2025-11-18 13:58:04.114989,599616446634195425,-455.00
2025-11-18 13:58:04.114989,599616446634195425,-433.00
2025-11-18 13:58:04.114989,599616446634195425,-416.00
2025-11-18 13:58:04.114989,599616446634195425,-406.00
2025-11-18 13:58:04.114989,599616446634195425,-389.00
2025-11-18 13:58:04.114989,599616446634195425,-389.00
2025-11-18 13:58:04.114989,599616446634195425,-397.00
2025-11-18 13:58:04.114989,599616446634195425,-382.00
2025-11-18 13:58:04.114989,599616446634195425,-372.00
2025-11-18 13:58:04.114989,599616446634195425,-394.00
2025-11-18 13:58:04.114989,599616446634195425,-416.00
2025-11-18 13:58:04.114989,599616446634195425,-392.00
2025-11-18 13:58:04.114989,599616446634195425,-372.00
2025-11-18 13:58:04.114989,599616446634195425,-404.00
2025-11-18 13:58:04.114989,599616446634195425,-430.00
2025-11-18 13:58:04.114989,599616446634195425,-443.00
2025-11-18 13:58:04.114989,599616446634195425,-469.00
2025-11-18 13:58:04.114989,599616446634195425,-491.00
2025-11-18 13:58:04.114989,599616446634195425,-508.00
2025-11-18 13:58:04.114989,599616446634195425,-520.00
2025-11-18 13:58:04.114989,599616446634195425,-518.00
2025-11-18 13:58:04.114989,599616446634195425,-510.00
2025-11-18 13:58:04.114989,599616446634195425,-503.00
2025-11-18 13:58:04.114989,599616446634195425,-452.00
2025-11-18 13:58:04.114989,599616446634195425,-372.00
2025-11-18 13:58:04.114989,599616446634195425,-307.00
2025-11-18 13:58:04.114989,599616446634195425,-234.00
2025-11-18 13:58:04.114989,599616446634195425,-140.00
2025-11-18 13:58:04.114989,599616446634195425,-75.00
2025-11-18 13:58:04.114989,599616446634195425,-41.00
2025-11-18 13:58:04.114989,599616446634195425,2.00
2025-11-18 13:58:04.114989,599616446634195425,38.00
2025-11-18 13:58:04.114989,599616446634195425,46.00
2025-11-18 13:58:04.114989,599616446634195425,41.00
2025-11-18 13:58:04.114989,599616446634195425,26.00
2025-11-18 13:58:04.114989,599616446634195425,29.00
2025-11-18 13:58:04.114989,599616446634195425,48.00
2025-11-18 13:58:04.114989,599616446634195425,31.00
2025-11-18 13:58:04.114989,599616446634195425,4.00
2025-11-18 13:58:04.114989,599616446634195425,12.00
2025-11-18 13:58:04.114989,599616446634195425,-12.00
2025-11-18 13:58:04.114989,599616446634195425,-46.00
2025-11-18 13:58:04.114989,599616446634195425,-31.00
2025-11-18 13:58:04.114989,599616446634195425,-24.00
2025-11-18 13:58:04.114989,599616446634195425,-43.00
2025-11-18 13:58:04.114989,599616446634195425,-48.00
2025-11-18 13:58:04.114989,599616446634195425,-46.00
2025-11-18 13:58:04.114989,599616446634195425,-50.00
2025-11-18 13:58:04.114989,599616446634195425,-55.00
2025-11-18 13:58:04.114989,599616446634195425,-53.00
2025-11-18 13:58:04.114989,599616446634195425,-50.00
2025-11-18 13:58:04.114989,599616446634195425,-50.00
2025-11-18 13:58:04.114989,599616446634195425,-58.00
2025-11-18 13:58:04.114989,599616446634195425,-58.00
2025-11-18 13:58:04.654246,599616447194831430,-58.00
2025-11-18 13:58:04.654246,599616447194831430,-58.00
2025-11-18 13:58:04.654246,599616447194831430,-58.00
2025-11-18 13:58:04.654246,599616447194831430,-62.00
2025-11-18 13:58:04.654246,599616447194831430,-65.00
2025-11-18 13:58:04.654246,599616447194831430,-62.00
2025-11-18 13:58:04.654246,599616447194831430,-62.00
2025-11-18 13:58:04.654246,599616447194831430,-65.00
2025-11-18 13:58:04.654246,599616447194831430,-67.00
2025-11-18 13:58:04.654246,599616447194831430,-62.00
2025-11-18 13:58:04.654246,599616447194831430,-60.00
2025-11-18 13:58:04.654246,599616447194831430,-65.00
2025-11-18 13:58:04.654246,599616447194831430,-67.00
2025-11-18 13:58:04.654246,599616447194831430,-62.00
2025-11-18 13:58:04.654246,599616447194831430,-62.00
2025-11-18 13:58:04.654246,599616447194831430,-67.00
2025-11-18 13:58:04.654246,599616447194831430,-75.00
2025-11-18 13:58:04.654246,599616447194831430,-77.00
2025-11-18 13:58:04.654246,599616447194831430,-84.00
2025-11-18 13:58:04.654246,599616447194831430,-94.00
2025-11-18 13:58:04.654246,599616447194831430,-101.00
2025-11-18 13:58:04.654246,599616447194831430,-104.00
2025-11-18 13:58:04.654246,599616447194831430,-101.00
2025-11-18 13:58:04.654246,599616447194831430,-89.00
2025-11-18 13:58:04.654246,599616447194831430,-75.00
2025-11-18 13:58:04.654246,599616447194831430,-72.00
2025-11-18 13:58:04.654246,599616447194831430,-82.00
2025-11-18 13:58:04.654246,599616447194831430,-87.00
2025-11-18 13:58:04.654246,599616447194831430,-84.00
2025-11-18 13:58:04.654246,599616447194831430,-77.00
2025-11-18 13:58:04.654246,599616447194831430,-70.00
2025-11-18 13:58:04.654246,599616447194831430,-67.00
2025-11-18 13:58:04.654246,599616447194831430,-62.00
2025-11-18 13:58:04.654246,599616447194831430,-65.00
2025-11-18 13:58:04.654246,599616447194831430,-79.00
2025-11-18 13:58:04.654246,599616447194831430,-82.00
2025-11-18 13:58:04.654246,599616447194831430,-82.00
2025-11-18 13:58:04.654246,599616447194831430,-118.00
2025-11-18 13:58:04.654246,599616447194831430,-215.00
2025-11-18 13:58:04.654246,599616447194831430,-242.00
2025-11-18 13:58:04.654246,599616447194831430,12.00
2025-11-18 13:58:04.654246,599616447194831430,622.00
2025-11-18 13:58:04.654246,599616447194831430,1295.00
2025-11-18 13:58:04.654246,599616447194831430,1363.00
2025-11-18 13:58:04.654246,599616447194831430,702.00
2025-11-18 13:58:04.654246,599616447194831430,33.00
2025-11-18 13:58:04.654246,599616447194831430,-256.00
2025-11-18 13:58:04.654246,599616447194831430,-372.00
2025-11-18 13:58:04.654246,599616447194831430,-426.00
2025-11-18 13:58:04.654246,599616447194831430,-401.00
2025-11-18 13:58:04.654246,599616447194831430,-389.00
2025-11-18 13:58:04.654246,599616447194831430,-397.00
2025-11-18 13:58:04.654246,599616447194831430,-377.00
2025-11-18 13:58:04.654246,599616447194831430,-363.00
2025-11-18 13:58:04.654246,599616447194831430,-365.00
2025-11-18 13:58:04.654246,599616447194831430,-358.00
2025-11-18 13:58:04.654246,599616447194831430,-351.00
2025-11-18 13:58:04.654246,599616447194831430,-355.00
2025-11-18 13:58:04.654246,599616447194831430,-358.00
2025-11-18 13:58:04.654246,599616447194831430,-360.00
2025-11-18 13:58:04.654246,599616447194831430,-370.00
2025-11-18 13:58:04.654246,599616447194831430,-387.00
2025-11-18 13:58:04.654246,599616447194831430,-404.00
2025-11-18 13:58:04.654246,599616447194831430,-423.00
2025-11-18 13:58:04.654246,599616447194831430,-447.00
2025-11-18 13:58:04.654246,599616447194831430,-472.00
2025-11-18 13:58:04.654246,599616447194831430,-493.00
2025-11-18 13:58:04.654246,599616447194831430,-510.00
2025-11-18 13:58:04.654246,599616447194831430,-520.00
2025-11-18 13:58:04.654246,599616447194831430,-520.00
2025-11-18 13:58:04.654246,599616447194831430,-510.00
2025-11-18 13:58:04.654246,599616447194831430,-481.00
2025-11-18 13:58:04.654246,599616447194831430,-428.00
2025-11-18 13:58:05.224752,599616447755436917,-355.00
2025-11-18 13:58:05.224752,599616447755436917,-273.00
2025-11-18 13:58:05.224752,599616447755436917,-193.00
2025-11-18 13:58:05.224752,599616447755436917,-118.00
2025-11-18 13:58:05.224752,599616447755436917,-50.00
2025-11-18 13:58:05.224752,599616447755436917,2.00
2025-11-18 13:58:05.224752,599616447755436917,36.00
2025-11-18 13:58:05.224752,599616447755436917,55.00
2025-11-18 13:58:05.224752,599616447755436917,65.00
2025-11-18 13:58:05.224752,599616447755436917,67.00
2025-11-18 13:58:05.224752,599616447755436917,58.00
2025-11-18 13:58:05.224752,599616447755436917,48.00
2025-11-18 13:58:05.224752,599616447755436917,36.00
2025-11-18 13:58:05.224752,599616447755436917,24.00
2025-11-18 13:58:05.224752,599616447755436917,14.00
2025-11-18 13:58:05.224752,599616447755436917,4.00
2025-11-18 13:58:05.224752,599616447755436917,-7.00
2025-11-18 13:58:05.224752,599616447755436917,-14.00
2025-11-18 13:58:05.224752,599616447755436917,-19.00
2025-11-18 13:58:05.224752,599616447755436917,-24.00
2025-11-18 13:58:05.224752,599616447755436917,-24.00
2025-11-18 13:58:05.224752,599616447755436917,-29.00
2025-11-18 13:58:05.224752,599616447755436917,-33.00
2025-11-18 13:58:05.224752,599616447755436917,-36.00
2025-11-18 13:58:05.224752,599616447755436917,-38.00
2025-11-18 13:58:05.224752,599616447755436917,-38.00
2025-11-18 13:58:05.224752,599616447755436917,-38.00
2025-11-18 13:58:05.224752,599616447755436917,-38.00
2025-11-18 13:58:05.224752,599616447755436917,-38.00
2025-11-18 13:58:05.224752,599616447755436917,-38.00
2025-11-18 13:58:05.224752,599616447755436917,-36.00
2025-11-18 13:58:05.224752,599616447755436917,-33.00
2025-11-18 13:58:05.224752,599616447755436917,-33.00
2025-11-18 13:58:05.224752,599616447755436917,-38.00
2025-11-18 13:58:05.224752,599616447755436917,-33.00
2025-11-18 13:58:05.224752,599616447755436917,-29.00
2025-11-18 13:58:05.224752,599616447755436917,-38.00
2025-11-18 13:58:05.224752,599616447755436917,-43.00
2025-11-18 13:58:05.224752,599616447755436917,-41.00
2025-11-18 13:58:05.224752,599616447755436917,-43.00
2025-11-18 13:58:05.224752,599616447755436917,-46.00
2025-11-18 13:58:05.224752,599616447755436917,-46.00
2025-11-18 13:58:05.224752,599616447755436917,-43.00
2025-11-18 13:58:05.224752,599616447755436917,-43.00
2025-11-18 13:58:05.224752,599616447755436917,-46.00
2025-11-18 13:58:05.224752,599616447755436917,-48.00
2025-11-18 13:58:05.224752,599616447755436917,-48.00
2025-11-18 13:58:05.224752,599616447755436917,-53.00
2025-11-18 13:58:05.224752,599616447755436917,-55.00
2025-11-18 13:58:05.224752,599616447755436917,-55.00
2025-11-18 13:58:05.224752,599616447755436917,-55.00
2025-11-18 13:58:05.224752,599616447755436917,-53.00
2025-11-18 13:58:05.224752,599616447755436917,-58.00
2025-11-18 13:58:05.224752,599616447755436917,-65.00
2025-11-18 13:58:05.224752,599616447755436917,-60.00
2025-11-18 13:58:05.224752,599616447755436917,-60.00
2025-11-18 13:58:05.224752,599616447755436917,-67.00
2025-11-18 13:58:05.224752,599616447755436917,-67.00
2025-11-18 13:58:05.224752,599616447755436917,-62.00
2025-11-18 13:58:05.224752,599616447755436917,-70.00
2025-11-18 13:58:05.224752,599616447755436917,-87.00
2025-11-18 13:58:05.224752,599616447755436917,-96.00
2025-11-18 13:58:05.224752,599616447755436917,-99.00
2025-11-18 13:58:05.224752,599616447755436917,-92.00
2025-11-18 13:58:05.224752,599616447755436917,-72.00
2025-11-18 13:58:05.224752,599616447755436917,-58.00
2025-11-18 13:58:05.224752,599616447755436917,-65.00
2025-11-18 13:58:05.224752,599616447755436917,-75.00
2025-11-18 13:58:05.224752,599616447755436917,-82.00
2025-11-18 13:58:05.224752,599616447755436917,-84.00
2025-11-18 13:58:05.224752,599616447755436917,-70.00
2025-11-18 13:58:05.224752,599616447755436917,-53.00
2025-11-18 13:58:05.224752,599616447755436917,-55.00
2025-11-18 13:58:05.823081,599616448316042404,-60.00
2025-11-18 13:58:05.823081,599616448316042404,-62.00
2025-11-18 13:58:05.823081,599616448316042404,-72.00
2025-11-18 13:58:05.823081,599616448316042404,-75.00
2025-11-18 13:58:05.823081,599616448316042404,-77.00
2025-11-18 13:58:05.823081,599616448316042404,-128.00
2025-11-18 13:58:05.823081,599616448316042404,-227.00
2025-11-18 13:58:05.823081,599616448316042404,-205.00
2025-11-18 13:58:05.823081,599616448316042404,147.00
2025-11-18 13:58:05.823081,599616448316042404,830.00
2025-11-18 13:58:05.823081,599616448316042404,1416.00
2025-11-18 13:58:05.823081,599616448316042404,1268.00
2025-11-18 13:58:05.823081,599616448316042404,527.00
2025-11-18 13:58:05.823081,599616448316042404,-55.00
2025-11-18 13:58:05.823081,599616448316042404,-283.00
2025-11-18 13:58:05.823081,599616448316042404,-380.00
2025-11-18 13:58:05.823081,599616448316042404,-409.00
2025-11-18 13:58:05.823081,599616448316042404,-384.00
2025-11-18 13:58:05.823081,599616448316042404,-377.00
2025-11-18 13:58:05.823081,599616448316042404,-377.00
2025-11-18 13:58:05.823081,599616448316042404,-363.00
2025-11-18 13:58:05.823081,599616448316042404,-353.00
2025-11-18 13:58:05.823081,599616448316042404,-348.00
2025-11-18 13:58:05.823081,599616448316042404,-341.00
2025-11-18 13:58:05.823081,599616448316042404,-341.00
2025-11-18 13:58:05.823081,599616448316042404,-346.00
2025-11-18 13:58:05.823081,599616448316042404,-348.00
2025-11-18 13:58:05.823081,599616448316042404,-355.00
2025-11-18 13:58:05.823081,599616448316042404,-368.00
2025-11-18 13:58:05.823081,599616448316042404,-377.00
2025-11-18 13:58:05.823081,599616448316042404,-387.00
2025-11-18 13:58:05.823081,599616448316042404,-409.00
2025-11-18 13:58:05.823081,599616448316042404,-430.00
2025-11-18 13:58:05.823081,599616448316042404,-452.00
2025-11-18 13:58:05.823081,599616448316042404,-474.00
2025-11-18 13:58:05.823081,599616448316042404,-496.00
2025-11-18 13:58:05.823081,599616448316042404,-508.00
2025-11-18 13:58:05.823081,599616448316042404,-508.00
2025-11-18 13:58:05.823081,599616448316042404,-498.00
2025-11-18 13:58:05.823081,599616448316042404,-469.00
2025-11-18 13:58:05.823081,599616448316042404,-416.00
2025-11-18 13:58:05.823081,599616448316042404,-346.00
2025-11-18 13:58:05.823081,599616448316042404,-266.00
2025-11-18 13:58:05.823081,599616448316042404,-191.00
2025-11-18 13:58:05.823081,599616448316042404,-121.00
2025-11-18 13:58:05.823081,599616448316042404,-55.00
2025-11-18 13:58:05.823081,599616448316042404,-4.00
2025-11-18 13:58:05.823081,599616448316042404,31.00
2025-11-18 13:58:05.823081,599616448316042404,48.00
2025-11-18 13:58:05.823081,599616448316042404,58.00
2025-11-18 13:58:05.823081,599616448316042404,60.00
2025-11-18 13:58:05.823081,599616448316042404,55.00
2025-11-18 13:58:05.823081,599616448316042404,48.00
2025-11-18 13:58:05.823081,599616448316042404,38.00
2025-11-18 13:58:05.823081,599616448316042404,26.00
2025-11-18 13:58:05.823081,599616448316042404,16.00
2025-11-18 13:58:05.823081,599616448316042404,2.00
2025-11-18 13:58:05.823081,599616448316042404,-7.00
2025-11-18 13:58:05.823081,599616448316042404,-12.00
2025-11-18 13:58:05.823081,599616448316042404,-14.00
2025-11-18 13:58:05.823081,599616448316042404,-21.00
2025-11-18 13:58:05.823081,599616448316042404,-26.00
2025-11-18 13:58:05.823081,599616448316042404,-26.00
2025-11-18 13:58:05.823081,599616448316042404,-29.00
2025-11-18 13:58:05.823081,599616448316042404,-33.00
2025-11-18 13:58:05.823081,599616448316042404,-31.00
2025-11-18 13:58:05.823081,599616448316042404,-33.00
2025-11-18 13:58:05.823081,599616448316042404,-36.00
2025-11-18 13:58:05.823081,599616448316042404,-38.00
2025-11-18 13:58:05.823081,599616448316042404,-36.00
2025-11-18 13:58:05.823081,599616448316042404,-33.00
2025-11-18 13:58:05.823081,599616448316042404,-33.00
2025-11-18 13:58:05.823081,599616448316042404,-31.00
2025-11-18 13:58:06.364524,599616448876647893,-33.00
2025-11-18 13:58:06.364524,599616448876647893,-31.00
2025-11-18 13:58:06.364524,599616448876647893,-29.00
2025-11-18 13:58:06.364524,599616448876647893,-33.00
2025-11-18 13:58:06.364524,599616448876647893,-38.00
2025-11-18 13:58:06.364524,599616448876647893,-36.00
2025-11-18 13:58:06.364524,599616448876647893,-38.00
2025-11-18 13:58:06.364524,599616448876647893,-46.00
2025-11-18 13:58:06.364524,599616448876647893,-43.00
2025-11-18 13:58:06.364524,599616448876647893,-38.00
2025-11-18 13:58:06.364524,599616448876647893,-41.00
2025-11-18 13:58:06.364524,599616448876647893,-46.00
2025-11-18 13:58:06.364524,599616448876647893,-43.00
2025-11-18 13:58:06.364524,599616448876647893,-38.00
2025-11-18 13:58:06.364524,599616448876647893,-46.00
2025-11-18 13:58:06.364524,599616448876647893,-50.00
2025-11-18 13:58:06.364524,599616448876647893,-48.00
2025-11-18 13:58:06.364524,599616448876647893,-50.00
2025-11-18 13:58:06.364524,599616448876647893,-55.00
2025-11-18 13:58:06.364524,599616448876647893,-55.00
2025-11-18 13:58:06.364524,599616448876647893,-53.00
2025-11-18 13:58:06.364524,599616448876647893,-53.00
2025-11-18 13:58:06.364524,599616448876647893,-55.00
2025-11-18 13:58:06.364524,599616448876647893,-53.00
2025-11-18 13:58:06.364524,599616448876647893,-55.00
2025-11-18 13:58:06.364524,599616448876647893,-60.00
2025-11-18 13:58:06.364524,599616448876647893,-58.00
2025-11-18 13:58:06.364524,599616448876647893,-60.00
2025-11-18 13:58:06.364524,599616448876647893,-65.00
2025-11-18 13:58:06.364524,599616448876647893,-67.00
2025-11-18 13:58:06.364524,599616448876647893,-75.00
2025-11-18 13:58:06.364524,599616448876647893,-87.00
2025-11-18 13:58:06.364524,599616448876647893,-89.00
2025-11-18 13:58:06.364524,599616448876647893,-87.00
2025-11-18 13:58:06.364524,599616448876647893,-82.00
2025-11-18 13:58:06.364524,599616448876647893,-70.00
2025-11-18 13:58:06.364524,599616448876647893,-70.00
2025-11-18 13:58:06.364524,599616448876647893,-79.00
2025-11-18 13:58:06.364524,599616448876647893,-87.00
2025-11-18 13:58:06.364524,599616448876647893,-82.00
2025-11-18 13:58:06.364524,599616448876647893,-70.00
2025-11-18 13:58:06.364524,599616448876647893,-62.00
2025-11-18 13:58:06.364524,599616448876647893,-58.00
2025-11-18 13:58:06.364524,599616448876647893,-53.00
2025-11-18 13:58:06.364524,599616448876647893,-53.00
2025-11-18 13:58:06.364524,599616448876647893,-58.00
2025-11-18 13:58:06.364524,599616448876647893,-60.00
2025-11-18 13:58:06.364524,599616448876647893,-65.00
2025-11-18 13:58:06.364524,599616448876647893,-77.00
2025-11-18 13:58:06.364524,599616448876647893,-118.00
2025-11-18 13:58:06.364524,599616448876647893,-222.00
2025-11-18 13:58:06.364524,599616448876647893,-263.00
2025-11-18 13:58:06.364524,599616448876647893,-2.00
2025-11-18 13:58:06.364524,599616448876647893,660.00
2025-11-18 13:58:06.364524,599616448876647893,1353.00
2025-11-18 13:58:06.364524,599616448876647893,1336.00
2025-11-18 13:58:06.364524,599616448876647893,622.00
2025-11-18 13:58:06.364524,599616448876647893,9.00
2025-11-18 13:58:06.364524,599616448876647893,-230.00
2025-11-18 13:58:06.364524,599616448876647893,-353.00
2025-11-18 13:58:06.364524,599616448876647893,-409.00
2025-11-18 13:58:06.364524,599616448876647893,-382.00
2025-11-18 13:58:06.364524,599616448876647893,-370.00
2025-11-18 13:58:06.364524,599616448876647893,-380.00
2025-11-18 13:58:06.364524,599616448876647893,-360.00
2025-11-18 13:58:06.364524,599616448876647893,-346.00
2025-11-18 13:58:06.364524,599616448876647893,-348.00
2025-11-18 13:58:06.364524,599616448876647893,-343.00
2025-11-18 13:58:06.364524,599616448876647893,-338.00
2025-11-18 13:58:06.364524,599616448876647893,-341.00
2025-11-18 13:58:06.364524,599616448876647893,-346.00
2025-11-18 13:58:06.364524,599616448876647893,-348.00
2025-11-18 13:58:06.364524,599616448876647893,-355.00
2025-11-18 13:58:06.935265,599616449437283898,-368.00
2025-11-18 13:58:06.935265,599616449437283898,-382.00
2025-11-18 13:58:06.935265,599616449437283898,-399.00
2025-11-18 13:58:06.935265,599616449437283898,-418.00
2025-11-18 13:58:06.935265,599616449437283898,-443.00
2025-11-18 13:58:06.935265,599616449437283898,-467.00
2025-11-18 13:58:06.935265,599616449437283898,-484.00
2025-11-18 13:58:06.935265,599616449437283898,-496.00
2025-11-18 13:58:06.935265,599616449437283898,-503.00
2025-11-18 13:58:06.935265,599616449437283898,-496.00
2025-11-18 13:58:06.935265,599616449437283898,-467.00
2025-11-18 13:58:06.935265,599616449437283898,-421.00
2025-11-18 13:58:06.935265,599616449437283898,-360.00
2025-11-18 13:58:06.935265,599616449437283898,-283.00
2025-11-18 13:58:06.935265,599616449437283898,-205.00
2025-11-18 13:58:06.935265,599616449437283898,-133.00
2025-11-18 13:58:06.935265,599616449437283898,-70.00
2025-11-18 13:58:06.935265,599616449437283898,-16.00
2025-11-18 13:58:06.935265,599616449437283898,19.00
2025-11-18 13:58:06.935265,599616449437283898,43.00
2025-11-18 13:58:06.935265,599616449437283898,55.00
2025-11-18 13:58:06.935265,599616449437283898,58.00
2025-11-18 13:58:06.935265,599616449437283898,50.00
2025-11-18 13:58:06.935265,599616449437283898,41.00
2025-11-18 13:58:06.935265,599616449437283898,33.00
2025-11-18 13:58:06.935265,599616449437283898,24.00
2025-11-18 13:58:06.935265,599616449437283898,12.00
2025-11-18 13:58:06.935265,599616449437283898,4.00
2025-11-18 13:58:06.935265,599616449437283898,-4.00
2025-11-18 13:58:06.935265,599616449437283898,-12.00
2025-11-18 13:58:06.935265,599616449437283898,-16.00
2025-11-18 13:58:06.935265,599616449437283898,-21.00
2025-11-18 13:58:06.935265,599616449437283898,-26.00
2025-11-18 13:58:06.935265,599616449437283898,-31.00
2025-11-18 13:58:06.935265,599616449437283898,-33.00
2025-11-18 13:58:06.935265,599616449437283898,-36.00
2025-11-18 13:58:06.935265,599616449437283898,-38.00
2025-11-18 13:58:06.935265,599616449437283898,-38.00
2025-11-18 13:58:06.935265,599616449437283898,-38.00
2025-11-18 13:58:06.935265,599616449437283898,-38.00
2025-11-18 13:58:06.935265,599616449437283898,-41.00
2025-11-18 13:58:06.935265,599616449437283898,-41.00
2025-11-18 13:58:06.935265,599616449437283898,-38.00
2025-11-18 13:58:06.935265,599616449437283898,-41.00
2025-11-18 13:58:06.935265,599616449437283898,-43.00
2025-11-18 13:58:06.935265,599616449437283898,-43.00
2025-11-18 13:58:06.935265,599616449437283898,-43.00
2025-11-18 13:58:06.935265,599616449437283898,-46.00
2025-11-18 13:58:06.935265,599616449437283898,-50.00
2025-11-18 13:58:06.935265,599616449437283898,-48.00
2025-11-18 13:58:06.935265,599616449437283898,-50.00
2025-11-18 13:58:06.935265,599616449437283898,-53.00
2025-11-18 13:58:06.935265,599616449437283898,-53.00
2025-11-18 13:58:06.935265,599616449437283898,-53.00
2025-11-18 13:58:06.935265,599616449437283898,-55.00
2025-11-18 13:58:06.935265,599616449437283898,-55.00
2025-11-18 13:58:06.935265,599616449437283898,-55.00
2025-11-18 13:58:06.935265,599616449437283898,-60.00
2025-11-18 13:58:06.935265,599616449437283898,-62.00
2025-11-18 13:58:06.935265,599616449437283898,-65.00
2025-11-18 13:58:06.935265,599616449437283898,-65.00
2025-11-18 13:58:06.935265,599616449437283898,-65.00
2025-11-18 13:58:06.935265,599616449437283898,-67.00
2025-11-18 13:58:06.935265,599616449437283898,-62.00
2025-11-18 13:58:06.935265,599616449437283898,-62.00
2025-11-18 13:58:06.935265,599616449437283898,-65.00
2025-11-18 13:58:06.935265,599616449437283898,-65.00
2025-11-18 13:58:06.935265,599616449437283898,-70.00
2025-11-18 13:58:06.935265,599616449437283898,-72.00
2025-11-18 13:58:06.935265,599616449437283898,-75.00
2025-11-18 13:58:06.935265,599616449437283898,-72.00
2025-11-18 13:58:06.935265,599616449437283898,-72.00
2025-11-18 13:58:06.935265,599616449437283898,-72.00
2025-11-18 13:58:07.476728,599616449997889385,-72.00
2025-11-18 13:58:07.476728,599616449997889385,-77.00
2025-11-18 13:58:07.476728,599616449997889385,-87.00
2025-11-18 13:58:07.476728,599616449997889385,-99.00
2025-11-18 13:58:07.476728,599616449997889385,-104.00
2025-11-18 13:58:07.476728,599616449997889385,-101.00
2025-11-18 13:58:07.476728,599616449997889385,-96.00
2025-11-18 13:58:07.476728,599616449997889385,-87.00
2025-11-18 13:58:07.476728,599616449997889385,-87.00
2025-11-18 13:58:07.476728,599616449997889385,-99.00
2025-11-18 13:58:07.476728,599616449997889385,-99.00
2025-11-18 13:58:07.476728,599616449997889385,-89.00
2025-11-18 13:58:07.476728,599616449997889385,-82.00
2025-11-18 13:58:07.476728,599616449997889385,-77.00
2025-11-18 13:58:07.476728,599616449997889385,-75.00
2025-11-18 13:58:07.476728,599616449997889385,-70.00
2025-11-18 13:58:07.476728,599616449997889385,-77.00
2025-11-18 13:58:07.476728,599616449997889385,-84.00
2025-11-18 13:58:07.476728,599616449997889385,-84.00
2025-11-18 13:58:07.476728,599616449997889385,-84.00
2025-11-18 13:58:07.476728,599616449997889385,-96.00
2025-11-18 13:58:07.476728,599616449997889385,-150.00
2025-11-18 13:58:07.476728,599616449997889385,-261.00
2025-11-18 13:58:07.476728,599616449997889385,-283.00
2025-11-18 13:58:07.476728,599616449997889385,31.00
2025-11-18 13:58:07.476728,599616449997889385,748.00
2025-11-18 13:58:07.476728,599616449997889385,1389.00
2025-11-18 13:58:07.476728,599616449997889385,1227.00
2025-11-18 13:58:07.476728,599616449997889385,472.00
2025-11-18 13:58:07.476728,599616449997889385,-62.00
2025-11-18 13:58:07.476728,599616449997889385,-259.00
2025-11-18 13:58:07.476728,599616449997889385,-380.00
2025-11-18 13:58:07.476728,599616449997889385,-426.00
2025-11-18 13:58:07.476728,599616449997889385,-392.00
2025-11-18 13:58:07.476728,599616449997889385,-384.00
2025-11-18 13:58:07.476728,599616449997889385,-394.00
2025-11-18 13:58:07.476728,599616449997889385,-375.00
2025-11-18 13:58:07.476728,599616449997889385,-365.00
2025-11-18 13:58:07.476728,599616449997889385,-370.00
2025-11-18 13:58:07.476728,599616449997889385,-363.00
2025-11-18 13:58:07.476728,599616449997889385,-355.00
2025-11-18 13:58:07.476728,599616449997889385,-360.00
2025-11-18 13:58:07.476728,599616449997889385,-365.00
2025-11-18 13:58:07.476728,599616449997889385,-370.00
2025-11-18 13:58:07.476728,599616449997889385,-380.00
2025-11-18 13:58:07.476728,599616449997889385,-392.00
2025-11-18 13:58:07.476728,599616449997889385,-406.00
2025-11-18 13:58:07.476728,599616449997889385,-423.00
2025-11-18 13:58:07.476728,599616449997889385,-447.00
2025-11-18 13:58:07.476728,599616449997889385,-469.00
2025-11-18 13:58:07.476728,599616449997889385,-489.00
2025-11-18 13:58:07.476728,599616449997889385,-510.00
2025-11-18 13:58:07.476728,599616449997889385,-522.00
2025-11-18 13:58:07.476728,599616449997889385,-527.00
2025-11-18 13:58:07.476728,599616449997889385,-520.00
2025-11-18 13:58:07.476728,599616449997889385,-489.00
2025-11-18 13:58:07.476728,599616449997889385,-435.00
2025-11-18 13:58:07.476728,599616449997889385,-368.00
2025-11-18 13:58:07.476728,599616449997889385,-288.00
2025-11-18 13:58:07.476728,599616449997889385,-213.00
2025-11-18 13:58:07.476728,599616449997889385,-147.00
2025-11-18 13:58:07.476728,599616449997889385,-82.00
2025-11-18 13:58:07.476728,599616449997889385,-26.00
2025-11-18 13:58:07.476728,599616449997889385,4.00
2025-11-18 13:58:07.476728,599616449997889385,24.00
2025-11-18 13:58:07.476728,599616449997889385,36.00
2025-11-18 13:58:07.476728,599616449997889385,36.00
2025-11-18 13:58:07.476728,599616449997889385,26.00
2025-11-18 13:58:07.476728,599616449997889385,19.00
2025-11-18 13:58:07.476728,599616449997889385,16.00
2025-11-18 13:58:07.476728,599616449997889385,7.00
2025-11-18 13:58:07.476728,599616449997889385,-9.00
2025-11-18 13:58:07.476728,599616449997889385,-21.00
2025-11-18 13:58:08.013110,599616450558494872,-29.00
2025-11-18 13:58:08.013110,599616450558494872,-38.00
2025-11-18 13:58:08.013110,599616450558494872,-48.00
2025-11-18 13:58:08.013110,599616450558494872,-50.00
2025-11-18 13:58:08.013110,599616450558494872,-53.00
2025-11-18 13:58:08.013110,599616450558494872,-58.00
2025-11-18 13:58:08.013110,599616450558494872,-58.00
2025-11-18 13:58:08.013110,599616450558494872,-60.00
2025-11-18 13:58:08.013110,599616450558494872,-65.00
2025-11-18 13:58:08.013110,599616450558494872,-62.00
2025-11-18 13:58:08.013110,599616450558494872,-60.00
2025-11-18 13:58:08.013110,599616450558494872,-60.00
2025-11-18 13:58:08.013110,599616450558494872,-65.00
2025-11-18 13:58:08.013110,599616450558494872,-65.00
2025-11-18 13:58:08.013110,599616450558494872,-62.00
2025-11-18 13:58:08.013110,599616450558494872,-58.00
2025-11-18 13:58:08.013110,599616450558494872,-60.00
2025-11-18 13:58:08.013110,599616450558494872,-62.00
2025-11-18 13:58:08.013110,599616450558494872,-62.00
2025-11-18 13:58:08.013110,599616450558494872,-65.00
2025-11-18 13:58:08.013110,599616450558494872,-70.00
2025-11-18 13:58:08.013110,599616450558494872,-75.00
2025-11-18 13:58:08.013110,599616450558494872,-75.00
2025-11-18 13:58:08.013110,599616450558494872,-75.00
2025-11-18 13:58:08.013110,599616450558494872,-75.00
2025-11-18 13:58:08.013110,599616450558494872,-75.00
2025-11-18 13:58:08.013110,599616450558494872,-75.00
2025-11-18 13:58:08.013110,599616450558494872,-75.00
2025-11-18 13:58:08.013110,599616450558494872,-77.00
2025-11-18 13:58:08.013110,599616450558494872,-79.00
2025-11-18 13:58:08.013110,599616450558494872,-82.00
2025-11-18 13:58:08.013110,599616450558494872,-84.00
2025-11-18 13:58:08.013110,599616450558494872,-82.00
2025-11-18 13:58:08.013110,599616450558494872,-84.00
2025-11-18 13:58:08.013110,599616450558494872,-87.00
2025-11-18 13:58:08.013110,599616450558494872,-87.00
2025-11-18 13:58:08.013110,599616450558494872,-87.00
2025-11-18 13:58:08.013110,599616450558494872,-92.00
2025-11-18 13:58:08.013110,599616450558494872,-92.00
2025-11-18 13:58:08.013110,599616450558494872,-89.00
2025-11-18 13:58:08.013110,599616450558494872,-89.00
2025-11-18 13:58:08.013110,599616450558494872,-92.00
2025-11-18 13:58:08.013110,599616450558494872,-94.00
2025-11-18 13:58:08.013110,599616450558494872,-94.00
2025-11-18 13:58:08.013110,599616450558494872,-96.00
2025-11-18 13:58:08.013110,599616450558494872,-104.00
2025-11-18 13:58:08.013110,599616450558494872,-111.00
2025-11-18 13:58:08.013110,599616450558494872,-123.00
2025-11-18 13:58:08.013110,599616450558494872,-125.00
2025-11-18 13:58:08.013110,599616450558494872,-118.00
2025-11-18 13:58:08.013110,599616450558494872,-113.00
2025-11-18 13:58:08.013110,599616450558494872,-106.00
2025-11-18 13:58:08.013110,599616450558494872,-108.00
2025-11-18 13:58:08.013110,599616450558494872,-116.00
2025-11-18 13:58:08.013110,599616450558494872,-113.00
2025-11-18 13:58:08.013110,599616450558494872,-106.00
2025-11-18 13:58:08.013110,599616450558494872,-101.00
2025-11-18 13:58:08.013110,599616450558494872,-94.00
2025-11-18 13:58:08.013110,599616450558494872,-89.00
2025-11-18 13:58:08.013110,599616450558494872,-89.00
2025-11-18 13:58:08.013110,599616450558494872,-92.00
2025-11-18 13:58:08.013110,599616450558494872,-94.00
2025-11-18 13:58:08.013110,599616450558494872,-96.00
2025-11-18 13:58:08.013110,599616450558494872,-104.00
2025-11-18 13:58:08.013110,599616450558494872,-138.00
2025-11-18 13:58:08.013110,599616450558494872,-234.00
2025-11-18 13:58:08.013110,599616450558494872,-353.00
2025-11-18 13:58:08.013110,599616450558494872,-268.00
2025-11-18 13:58:08.013110,599616450558494872,239.00
2025-11-18 13:58:08.013110,599616450558494872,1016.00
2025-11-18 13:58:08.013110,599616450558494872,1343.00
2025-11-18 13:58:08.013110,599616450558494872,837.00
2025-11-18 13:58:08.013110,599616450558494872,174.00
2025-11-18 13:58:08.583862,599616451119105447,-128.00
2025-11-18 13:58:08.583862,599616451119105447,-278.00
2025-11-18 13:58:08.583862,599616451119105447,-397.00
2025-11-18 13:58:08.583862,599616451119105447,-409.00
2025-11-18 13:58:08.583862,599616451119105447,-382.00
2025-11-18 13:58:08.583862,599616451119105447,-382.00
2025-11-18 13:58:08.583862,599616451119105447,-375.00
2025-11-18 13:58:08.583862,599616451119105447,-360.00
2025-11-18 13:58:08.583862,599616451119105447,-358.00
2025-11-18 13:58:08.583862,599616451119105447,-355.00
2025-11-18 13:58:08.583862,599616451119105447,-351.00
2025-11-18 13:58:08.583862,599616451119105447,-351.00
2025-11-18 13:58:08.583862,599616451119105447,-355.00
2025-11-18 13:58:08.583862,599616451119105447,-363.00
2025-11-18 13:58:08.583862,599616451119105447,-370.00
2025-11-18 13:58:08.583862,599616451119105447,-380.00
2025-11-18 13:58:08.583862,599616451119105447,-392.00
2025-11-18 13:58:08.583862,599616451119105447,-406.00
2025-11-18 13:58:08.583862,599616451119105447,-423.00
2025-11-18 13:58:08.583862,599616451119105447,-450.00
2025-11-18 13:58:08.583862,599616451119105447,-472.00
2025-11-18 13:58:08.583862,599616451119105447,-491.00
2025-11-18 13:58:08.583862,599616451119105447,-506.00
2025-11-18 13:58:08.583862,599616451119105447,-515.00
2025-11-18 13:58:08.583862,599616451119105447,-510.00
2025-11-18 13:58:08.583862,599616451119105447,-493.00
2025-11-18 13:58:08.583862,599616451119105447,-462.00
2025-11-18 13:58:08.583862,599616451119105447,-397.00
2025-11-18 13:58:08.583862,599616451119105447,-317.00
2025-11-18 13:58:08.583862,599616451119105447,-239.00
2025-11-18 13:58:08.583862,599616451119105447,-167.00
2025-11-18 13:58:08.583862,599616451119105447,-101.00
2025-11-18 13:58:08.583862,599616451119105447,-46.00
2025-11-18 13:58:08.583862,599616451119105447,-7.00
2025-11-18 13:58:08.583862,599616451119105447,16.00
2025-11-18 13:58:08.583862,599616451119105447,31.00
2025-11-18 13:58:08.583862,599616451119105447,38.00
2025-11-18 13:58:08.583862,599616451119105447,41.00
2025-11-18 13:58:08.583862,599616451119105447,33.00
2025-11-18 13:58:08.583862,599616451119105447,26.00
2025-11-18 13:58:08.583862,599616451119105447,16.00
2025-11-18 13:58:08.583862,599616451119105447,12.00
2025-11-18 13:58:08.583862,599616451119105447,7.00
2025-11-18 13:58:08.583862,599616451119105447,-2.00
2025-11-18 13:58:08.583862,599616451119105447,-14.00
2025-11-18 13:58:08.583862,599616451119105447,-21.00
2025-11-18 13:58:08.583862,599616451119105447,-29.00
2025-11-18 13:58:08.583862,599616451119105447,-36.00
2025-11-18 13:58:08.583862,599616451119105447,-38.00
2025-11-18 13:58:08.583862,599616451119105447,-38.00
2025-11-18 13:58:08.583862,599616451119105447,-41.00
2025-11-18 13:58:08.583862,599616451119105447,-46.00
2025-11-18 13:58:08.583862,599616451119105447,-43.00
2025-11-18 13:58:08.583862,599616451119105447,-41.00
2025-11-18 13:58:08.583862,599616451119105447,-41.00
2025-11-18 13:58:08.583862,599616451119105447,-43.00
2025-11-18 13:58:08.583862,599616451119105447,-43.00
2025-11-18 13:58:08.583862,599616451119105447,-43.00
2025-11-18 13:58:08.583862,599616451119105447,-46.00
2025-11-18 13:58:08.583862,599616451119105447,-46.00
2025-11-18 13:58:08.583862,599616451119105447,-43.00
2025-11-18 13:58:08.583862,599616451119105447,-41.00
2025-11-18 13:58:08.583862,599616451119105447,-43.00
2025-11-18 13:58:08.583862,599616451119105447,-43.00
2025-11-18 13:58:08.583862,599616451119105447,-43.00
2025-11-18 13:58:08.583862,599616451119105447,-48.00
2025-11-18 13:58:08.583862,599616451119105447,-48.00
2025-11-18 13:58:08.583862,599616451119105447,-48.00
2025-11-18 13:58:08.583862,599616451119105447,-50.00
2025-11-18 13:58:08.583862,599616451119105447,-53.00
2025-11-18 13:58:08.583862,599616451119105447,-53.00
2025-11-18 13:58:08.583862,599616451119105447,-55.00
2025-11-18 13:58:08.583862,599616451119105447,-55.00
2025-11-18 13:58:09.137281,599616451679736364,-55.00
2025-11-18 13:58:09.137281,599616451679736364,-58.00
2025-11-18 13:58:09.137281,599616451679736364,-60.00
2025-11-18 13:58:09.137281,599616451679736364,-58.00
2025-11-18 13:58:09.137281,599616451679736364,-60.00
2025-11-18 13:58:09.137281,599616451679736364,-62.00
2025-11-18 13:58:09.137281,599616451679736364,-62.00
2025-11-18 13:58:09.137281,599616451679736364,-65.00
2025-11-18 13:58:09.137281,599616451679736364,-65.00
2025-11-18 13:58:09.137281,599616451679736364,-67.00
2025-11-18 13:58:09.137281,599616451679736364,-67.00
2025-11-18 13:58:09.137281,599616451679736364,-65.00
2025-11-18 13:58:09.137281,599616451679736364,-67.00
2025-11-18 13:58:09.137281,599616451679736364,-70.00
2025-11-18 13:58:09.137281,599616451679736364,-70.00
2025-11-18 13:58:09.137281,599616451679736364,-67.00
2025-11-18 13:58:09.137281,599616451679736364,-72.00
2025-11-18 13:58:09.137281,599616451679736364,-84.00
2025-11-18 13:58:09.137281,599616451679736364,-94.00
2025-11-18 13:58:09.137281,599616451679736364,-99.00
2025-11-18 13:58:09.137281,599616451679736364,-99.00
2025-11-18 13:58:09.137281,599616451679736364,-94.00
2025-11-18 13:58:09.137281,599616451679736364,-79.00
2025-11-18 13:58:09.137281,599616451679736364,-77.00
2025-11-18 13:58:09.137281,599616451679736364,-89.00
2025-11-18 13:58:09.137281,599616451679736364,-94.00
2025-11-18 13:58:09.137281,599616451679736364,-87.00
2025-11-18 13:58:09.137281,599616451679736364,-77.00
2025-11-18 13:58:09.137281,599616451679736364,-67.00
2025-11-18 13:58:09.137281,599616451679736364,-60.00
2025-11-18 13:58:09.137281,599616451679736364,-60.00
2025-11-18 13:58:09.137281,599616451679736364,-65.00
2025-11-18 13:58:09.137281,599616451679736364,-70.00
2025-11-18 13:58:09.137281,599616451679736364,-75.00
2025-11-18 13:58:09.137281,599616451679736364,-77.00
2025-11-18 13:58:09.137281,599616451679736364,-87.00
2025-11-18 13:58:09.137281,599616451679736364,-142.00
2025-11-18 13:58:09.137281,599616451679736364,-246.00
2025-11-18 13:58:09.137281,599616451679736364,-237.00
2025-11-18 13:58:09.137281,599616451679736364,108.00
2025-11-18 13:58:09.137281,599616451679736364,813.00
2025-11-18 13:58:09.137281,599616451679736364,1399.00
2025-11-18 13:58:09.137281,599616451679736364,1198.00
2025-11-18 13:58:09.137281,599616451679736364,455.00
2025-11-18 13:58:09.137281,599616451679736364,-65.00
2025-11-18 13:58:09.137281,599616451679736364,-263.00
2025-11-18 13:58:09.137281,599616451679736364,-377.00
2025-11-18 13:58:09.137281,599616451679736364,-409.00
2025-11-18 13:58:09.137281,599616451679736364,-380.00
2025-11-18 13:58:09.137281,599616451679736364,-377.00
2025-11-18 13:58:09.137281,599616451679736364,-382.00
2025-11-18 13:58:09.137281,599616451679736364,-363.00
2025-11-18 13:58:09.137281,599616451679736364,-353.00
2025-11-18 13:58:09.137281,599616451679736364,-353.00
2025-11-18 13:58:09.137281,599616451679736364,-348.00
2025-11-18 13:58:09.137281,599616451679736364,-346.00
2025-11-18 13:58:09.137281,599616451679736364,-351.00
2025-11-18 13:58:09.137281,599616451679736364,-355.00
2025-11-18 13:58:09.137281,599616451679736364,-363.00
2025-11-18 13:58:09.137281,599616451679736364,-370.00
2025-11-18 13:58:09.137281,599616451679736364,-380.00
2025-11-18 13:58:09.137281,599616451679736364,-392.00
2025-11-18 13:58:09.137281,599616451679736364,-414.00
2025-11-18 13:58:09.137281,599616451679736364,-435.00
2025-11-18 13:58:09.137281,599616451679736364,-460.00
2025-11-18 13:58:09.137281,599616451679736364,-481.00
2025-11-18 13:58:09.137281,599616451679736364,-498.00
2025-11-18 13:58:09.137281,599616451679736364,-513.00
2025-11-18 13:58:09.137281,599616451679736364,-515.00
2025-11-18 13:58:09.137281,599616451679736364,-503.00
2025-11-18 13:58:09.137281,599616451679736364,-472.00
2025-11-18 13:58:09.137281,599616451679736364,-418.00
2025-11-18 13:58:09.137281,599616451679736364,-348.00
2025-11-18 13:58:09.754734,599616452240341853,-273.00
2025-11-18 13:58:09.754734,599616452240341853,-200.00
2025-11-18 13:58:09.754734,599616452240341853,-130.00
2025-11-18 13:58:09.754734,599616452240341853,-62.00
2025-11-18 13:58:09.754734,599616452240341853,-7.00
2025-11-18 13:58:09.754734,599616452240341853,29.00
2025-11-18 13:58:09.754734,599616452240341853,50.00
2025-11-18 13:58:09.754734,599616452240341853,60.00
2025-11-18 13:58:09.754734,599616452240341853,62.00
2025-11-18 13:58:09.754734,599616452240341853,62.00
2025-11-18 13:58:09.754734,599616452240341853,55.00
2025-11-18 13:58:09.754734,599616452240341853,43.00
2025-11-18 13:58:09.754734,599616452240341853,31.00
2025-11-18 13:58:09.754734,599616452240341853,21.00
2025-11-18 13:58:09.754734,599616452240341853,12.00
2025-11-18 13:58:09.754734,599616452240341853,4.00
2025-11-18 13:58:09.754734,599616452240341853,-2.00
2025-11-18 13:58:09.754734,599616452240341853,-9.00
2025-11-18 13:58:09.754734,599616452240341853,-14.00
2025-11-18 13:58:09.754734,599616452240341853,-19.00
2025-11-18 13:58:09.754734,599616452240341853,-19.00
2025-11-18 13:58:09.754734,599616452240341853,-24.00
2025-11-18 13:58:09.754734,599616452240341853,-29.00
2025-11-18 13:58:09.754734,599616452240341853,-31.00
2025-11-18 13:58:09.754734,599616452240341853,-29.00
2025-11-18 13:58:09.754734,599616452240341853,-31.00
2025-11-18 13:58:09.754734,599616452240341853,-33.00
2025-11-18 13:58:09.754734,599616452240341853,-31.00
2025-11-18 13:58:09.754734,599616452240341853,-29.00
2025-11-18 13:58:09.754734,599616452240341853,-29.00
2025-11-18 13:58:09.754734,599616452240341853,-31.00
2025-11-18 13:58:09.754734,599616452240341853,-31.00
2025-11-18 13:58:09.754734,599616452240341853,-31.00
2025-11-18 13:58:09.754734,599616452240341853,-33.00
2025-11-18 13:58:09.754734,599616452240341853,-36.00
2025-11-18 13:58:09.754734,599616452240341853,-36.00
2025-11-18 13:58:09.754734,599616452240341853,-38.00
2025-11-18 13:58:09.754734,599616452240341853,-41.00
2025-11-18 13:58:09.754734,599616452240341853,-43.00
2025-11-18 13:58:09.754734,599616452240341853,-46.00
2025-11-18 13:58:09.754734,599616452240341853,-43.00
2025-11-18 13:58:09.754734,599616452240341853,-46.00
2025-11-18 13:58:09.754734,599616452240341853,-46.00
2025-11-18 13:58:09.754734,599616452240341853,-48.00
2025-11-18 13:58:09.754734,599616452240341853,-48.00
2025-11-18 13:58:09.754734,599616452240341853,-50.00
2025-11-18 13:58:09.754734,599616452240341853,-50.00
2025-11-18 13:58:09.754734,599616452240341853,-50.00
2025-11-18 13:58:09.754734,599616452240341853,-53.00
2025-11-18 13:58:09.754734,599616452240341853,-58.00
2025-11-18 13:58:09.754734,599616452240341853,-60.00
2025-11-18 13:58:09.754734,599616452240341853,-55.00
2025-11-18 13:58:09.754734,599616452240341853,-58.00
2025-11-18 13:58:09.754734,599616452240341853,-62.00
2025-11-18 13:58:09.754734,599616452240341853,-60.00
2025-11-18 13:58:09.754734,599616452240341853,-60.00
2025-11-18 13:58:09.754734,599616452240341853,-65.00
2025-11-18 13:58:09.754734,599616452240341853,-65.00
2025-11-18 13:58:09.754734,599616452240341853,-65.00
2025-11-18 13:58:09.754734,599616452240341853,-67.00
2025-11-18 13:58:09.754734,599616452240341853,-70.00
2025-11-18 13:58:09.754734,599616452240341853,-75.00
2025-11-18 13:58:09.754734,599616452240341853,-87.00
2025-11-18 13:58:09.754734,599616452240341853,-96.00
2025-11-18 13:58:09.754734,599616452240341853,-96.00
2025-11-18 13:58:09.754734,599616452240341853,-94.00
2025-11-18 13:58:09.754734,599616452240341853,-87.00
2025-11-18 13:58:09.754734,599616452240341853,-77.00
2025-11-18 13:58:09.754734,599616452240341853,-79.00
2025-11-18 13:58:09.754734,599616452240341853,-89.00
2025-11-18 13:58:09.754734,599616452240341853,-92.00
2025-11-18 13:58:09.754734,599616452240341853,-84.00
2025-11-18 13:58:09.754734,599616452240341853,-75.00
2025-11-18 13:58:10.295518,599616452800977858,-72.00
2025-11-18 13:58:10.295518,599616452800977858,-65.00
2025-11-18 13:58:10.295518,599616452800977858,-62.00
2025-11-18 13:58:10.295518,599616452800977858,-67.00
2025-11-18 13:58:10.295518,599616452800977858,-72.00
2025-11-18 13:58:10.295518,599616452800977858,-75.00
2025-11-18 13:58:10.295518,599616452800977858,-77.00
2025-11-18 13:58:10.295518,599616452800977858,-99.00
2025-11-18 13:58:10.295518,599616452800977858,-167.00
2025-11-18 13:58:10.295518,599616452800977858,-271.00
2025-11-18 13:58:10.295518,599616452800977858,-222.00
2025-11-18 13:58:10.295518,599616452800977858,208.00
2025-11-18 13:58:10.295518,599616452800977858,963.00
2025-11-18 13:58:10.295518,599616452800977858,1442.00
2025-11-18 13:58:10.295518,599616452800977858,1067.00
2025-11-18 13:58:10.295518,599616452800977858,312.00
2025-11-18 13:58:10.295518,599616452800977858,-121.00
2025-11-18 13:58:10.295518,599616452800977858,-290.00
2025-11-18 13:58:10.295518,599616452800977858,-397.00
2025-11-18 13:58:10.295518,599616452800977858,-409.00
2025-11-18 13:58:10.295518,599616452800977858,-380.00
2025-11-18 13:58:10.295518,599616452800977858,-380.00
2025-11-18 13:58:10.295518,599616452800977858,-380.00
2025-11-18 13:58:10.295518,599616452800977858,-363.00
2025-11-18 13:58:10.295518,599616452800977858,-355.00
2025-11-18 13:58:10.295518,599616452800977858,-351.00
2025-11-18 13:58:10.295518,599616452800977858,-346.00
2025-11-18 13:58:10.295518,599616452800977858,-346.00
2025-11-18 13:58:10.295518,599616452800977858,-351.00
2025-11-18 13:58:10.295518,599616452800977858,-353.00
2025-11-18 13:58:10.295518,599616452800977858,-358.00
2025-11-18 13:58:10.295518,599616452800977858,-372.00
2025-11-18 13:58:10.295518,599616452800977858,-384.00
2025-11-18 13:58:10.295518,599616452800977858,-394.00
2025-11-18 13:58:10.295518,599616452800977858,-414.00
2025-11-18 13:58:10.295518,599616452800977858,-438.00
2025-11-18 13:58:10.295518,599616452800977858,-462.00
2025-11-18 13:58:10.295518,599616452800977858,-481.00
2025-11-18 13:58:10.295518,599616452800977858,-501.00
2025-11-18 13:58:10.295518,599616452800977858,-513.00
2025-11-18 13:58:10.295518,599616452800977858,-515.00
2025-11-18 13:58:10.295518,599616452800977858,-503.00
2025-11-18 13:58:10.295518,599616452800977858,-474.00
2025-11-18 13:58:10.295518,599616452800977858,-418.00
2025-11-18 13:58:10.295518,599616452800977858,-346.00
2025-11-18 13:58:10.295518,599616452800977858,-268.00
2025-11-18 13:58:10.295518,599616452800977858,-193.00
2025-11-18 13:58:10.295518,599616452800977858,-121.00
2025-11-18 13:58:10.295518,599616452800977858,-58.00
2025-11-18 13:58:10.295518,599616452800977858,-7.00
2025-11-18 13:58:10.295518,599616452800977858,24.00
2025-11-18 13:58:10.295518,599616452800977858,46.00
2025-11-18 13:58:10.295518,599616452800977858,55.00
2025-11-18 13:58:10.295518,599616452800977858,55.00
2025-11-18 13:58:10.295518,599616452800977858,50.00
2025-11-18 13:58:10.295518,599616452800977858,43.00
2025-11-18 13:58:10.295518,599616452800977858,33.00
2025-11-18 13:58:10.295518,599616452800977858,24.00
2025-11-18 13:58:10.295518,599616452800977858,14.00
2025-11-18 13:58:10.295518,599616452800977858,4.00
2025-11-18 13:58:10.295518,599616452800977858,-4.00
2025-11-18 13:58:10.295518,599616452800977858,-14.00
2025-11-18 13:58:10.295518,599616452800977858,-19.00
2025-11-18 13:58:10.295518,599616452800977858,-24.00
2025-11-18 13:58:10.295518,599616452800977858,-29.00
2025-11-18 13:58:10.295518,599616452800977858,-33.00
2025-11-18 13:58:10.295518,599616452800977858,-38.00
2025-11-18 13:58:10.295518,599616452800977858,-41.00
2025-11-18 13:58:10.295518,599616452800977858,-38.00
2025-11-18 13:58:10.295518,599616452800977858,-41.00
2025-11-18 13:58:10.295518,599616452800977858,-46.00
2025-11-18 13:58:10.295518,599616452800977858,-43.00
2025-11-18 13:58:10.295518,599616452800977858,-43.00
2025-11-18 13:58:10.840375,599616453361583345,-43.00
2025-11-18 13:58:10.840375,599616453361583345,-43.00
2025-11-18 13:58:10.840375,599616453361583345,-41.00
2025-11-18 13:58:10.840375,599616453361583345,-43.00
2025-11-18 13:58:10.840375,599616453361583345,-43.00
2025-11-18 13:58:10.840375,599616453361583345,-43.00
2025-11-18 13:58:10.840375,599616453361583345,-46.00
2025-11-18 13:58:10.840375,599616453361583345,-48.00
2025-11-18 13:58:10.840375,599616453361583345,-48.00
2025-11-18 13:58:10.840375,599616453361583345,-50.00
2025-11-18 13:58:10.840375,599616453361583345,-53.00
2025-11-18 13:58:10.840375,599616453361583345,-50.00
2025-11-18 13:58:10.840375,599616453361583345,-53.00
2025-11-18 13:58:10.840375,599616453361583345,-55.00
2025-11-18 13:58:10.840375,599616453361583345,-53.00
2025-11-18 13:58:10.840375,599616453361583345,-55.00
2025-11-18 13:58:10.840375,599616453361583345,-60.00
2025-11-18 13:58:10.840375,599616453361583345,-60.00
2025-11-18 13:58:10.840375,599616453361583345,-60.00
2025-11-18 13:58:10.840375,599616453361583345,-62.00
2025-11-18 13:58:10.840375,599616453361583345,-65.00
2025-11-18 13:58:10.840375,599616453361583345,-65.00
2025-11-18 13:58:10.840375,599616453361583345,-67.00
2025-11-18 13:58:10.840375,599616453361583345,-67.00
2025-11-18 13:58:10.840375,599616453361583345,-70.00
2025-11-18 13:58:10.840375,599616453361583345,-72.00
2025-11-18 13:58:10.840375,599616453361583345,-72.00
2025-11-18 13:58:10.840375,599616453361583345,-70.00
2025-11-18 13:58:10.840375,599616453361583345,-70.00
2025-11-18 13:58:10.840375,599616453361583345,-72.00
2025-11-18 13:58:10.840375,599616453361583345,-75.00
2025-11-18 13:58:10.840375,599616453361583345,-75.00
2025-11-18 13:58:10.840375,599616453361583345,-77.00
2025-11-18 13:58:10.840375,599616453361583345,-84.00
2025-11-18 13:58:10.840375,599616453361583345,-94.00
2025-11-18 13:58:10.840375,599616453361583345,-101.00
2025-11-18 13:58:10.840375,599616453361583345,-101.00
2025-11-18 13:58:10.840375,599616453361583345,-99.00
2025-11-18 13:58:10.840375,599616453361583345,-84.00
2025-11-18 13:58:10.840375,599616453361583345,-75.00
2025-11-18 13:58:10.840375,599616453361583345,-77.00
2025-11-18 13:58:10.840375,599616453361583345,-87.00
2025-11-18 13:58:10.840375,599616453361583345,-94.00
2025-11-18 13:58:10.840375,599616453361583345,-99.00
2025-11-18 13:58:10.840375,599616453361583345,-87.00
2025-11-18 13:58:10.840375,599616453361583345,-70.00
2025-11-18 13:58:10.840375,599616453361583345,-70.00
2025-11-18 13:58:10.840375,599616453361583345,-75.00
2025-11-18 13:58:10.840375,599616453361583345,-77.00
2025-11-18 13:58:10.840375,599616453361583345,-82.00
2025-11-18 13:58:10.840375,599616453361583345,-84.00
2025-11-18 13:58:10.840375,599616453361583345,-89.00
2025-11-18 13:58:10.840375,599616453361583345,-125.00
2025-11-18 13:58:10.840375,599616453361583345,-225.00
2025-11-18 13:58:10.840375,599616453361583345,-295.00
2025-11-18 13:58:10.840375,599616453361583345,-104.00
2025-11-18 13:58:10.840375,599616453361583345,513.00
2025-11-18 13:58:10.840375,599616453361583345,1261.00
2025-11-18 13:58:10.840375,599616453361583345,1377.00
2025-11-18 13:58:10.840375,599616453361583345,714.00
2025-11-18 13:58:10.840375,599616453361583345,58.00
2025-11-18 13:58:10.840375,599616453361583345,-213.00
2025-11-18 13:58:10.840375,599616453361583345,-346.00
2025-11-18 13:58:10.840375,599616453361583345,-421.00
2025-11-18 13:58:10.840375,599616453361583345,-401.00
2025-11-18 13:58:10.840375,599616453361583345,-382.00
2025-11-18 13:58:10.840375,599616453361583345,-389.00
2025-11-18 13:58:10.840375,599616453361583345,-377.00
2025-11-18 13:58:10.840375,599616453361583345,-360.00
2025-11-18 13:58:10.840375,599616453361583345,-360.00
2025-11-18 13:58:10.840375,599616453361583345,-355.00
2025-11-18 13:58:10.840375,599616453361583345,-351.00
2025-11-18 13:58:10.840375,599616453361583345,-353.00
2025-11-18 13:58:11.403518,599616453922188832,-355.00
2025-11-18 13:58:11.403518,599616453922188832,-358.00
2025-11-18 13:58:11.403518,599616453922188832,-368.00
2025-11-18 13:58:11.403518,599616453922188832,-377.00
2025-11-18 13:58:11.403518,599616453922188832,-387.00
2025-11-18 13:58:11.403518,599616453922188832,-404.00
2025-11-18 13:58:11.403518,599616453922188832,-428.00
2025-11-18 13:58:11.403518,599616453922188832,-445.00
2025-11-18 13:58:11.403518,599616453922188832,-467.00
2025-11-18 13:58:11.403518,599616453922188832,-489.00
2025-11-18 13:58:11.403518,599616453922188832,-506.00
2025-11-18 13:58:11.403518,599616453922188832,-513.00
2025-11-18 13:58:11.403518,599616453922188832,-508.00
2025-11-18 13:58:11.403518,599616453922188832,-489.00
2025-11-18 13:58:11.403518,599616453922188832,-447.00
2025-11-18 13:58:11.403518,599616453922188832,-387.00
2025-11-18 13:58:11.403518,599616453922188832,-312.00
2025-11-18 13:58:11.403518,599616453922188832,-234.00
2025-11-18 13:58:11.403518,599616453922188832,-159.00
2025-11-18 13:58:11.403518,599616453922188832,-89.00
2025-11-18 13:58:11.403518,599616453922188832,-31.00
2025-11-18 13:58:11.403518,599616453922188832,9.00
2025-11-18 13:58:11.403518,599616453922188832,33.00
2025-11-18 13:58:11.403518,599616453922188832,48.00
2025-11-18 13:58:11.403518,599616453922188832,55.00
2025-11-18 13:58:11.403518,599616453922188832,55.00
2025-11-18 13:58:11.403518,599616453922188832,48.00
2025-11-18 13:58:11.403518,599616453922188832,38.00
2025-11-18 13:58:11.403518,599616453922188832,29.00
2025-11-18 13:58:11.403518,599616453922188832,16.00
2025-11-18 13:58:11.403518,599616453922188832,7.00
2025-11-18 13:58:11.403518,599616453922188832,0.00
2025-11-18 13:58:11.403518,599616453922188832,-7.00
2025-11-18 13:58:11.403518,599616453922188832,-14.00
2025-11-18 13:58:11.403518,599616453922188832,-19.00
2025-11-18 13:58:11.403518,599616453922188832,-24.00
2025-11-18 13:58:11.403518,599616453922188832,-29.00
2025-11-18 13:58:11.403518,599616453922188832,-33.00
2025-11-18 13:58:11.403518,599616453922188832,-38.00
2025-11-18 13:58:11.403518,599616453922188832,-41.00
2025-11-18 13:58:11.403518,599616453922188832,-41.00
2025-11-18 13:58:11.403518,599616453922188832,-46.00
2025-11-18 13:58:11.403518,599616453922188832,-46.00
2025-11-18 13:58:11.403518,599616453922188832,-43.00
2025-11-18 13:58:11.403518,599616453922188832,-46.00
2025-11-18 13:58:11.403518,599616453922188832,-43.00
2025-11-18 13:58:11.403518,599616453922188832,-43.00
2025-11-18 13:58:11.403518,599616453922188832,-48.00
2025-11-18 13:58:11.403518,599616453922188832,-48.00
2025-11-18 13:58:11.403518,599616453922188832,-48.00
2025-11-18 13:58:11.403518,599616453922188832,-50.00
2025-11-18 13:58:11.403518,599616453922188832,-53.00
2025-11-18 13:58:11.403518,599616453922188832,-55.00
2025-11-18 13:58:11.403518,599616453922188832,-58.00
2025-11-18 13:58:11.403518,599616453922188832,-58.00
2025-11-18 13:58:11.403518,599616453922188832,-58.00
2025-11-18 13:58:11.403518,599616453922188832,-60.00
2025-11-18 13:58:11.403518,599616453922188832,-62.00
2025-11-18 13:58:11.403518,599616453922188832,-60.00
2025-11-18 13:58:11.403518,599616453922188832,-62.00
2025-11-18 13:58:11.403518,599616453922188832,-65.00
2025-11-18 13:58:11.403518,599616453922188832,-67.00
2025-11-18 13:58:11.403518,599616453922188832,-70.00
2025-11-18 13:58:11.403518,599616453922188832,-70.00
2025-11-18 13:58:11.403518,599616453922188832,-70.00
2025-11-18 13:58:11.403518,599616453922188832,-75.00
2025-11-18 13:58:11.403518,599616453922188832,-77.00
2025-11-18 13:58:11.403518,599616453922188832,-77.00
2025-11-18 13:58:11.403518,599616453922188832,-77.00
2025-11-18 13:58:11.403518,599616453922188832,-79.00
2025-11-18 13:58:11.403518,599616453922188832,-79.00
2025-11-18 13:58:11.403518,599616453922188832,-79.00
2025-11-18 13:58:11.403518,599616453922188832,-79.00
2025-11-18 13:58:11.975521,599616454482824837,-79.00
2025-11-18 13:58:11.975521,599616454482824837,-84.00
2025-11-18 13:58:11.975521,599616454482824837,-89.00
2025-11-18 13:58:11.975521,599616454482824837,-89.00
2025-11-18 13:58:11.975521,599616454482824837,-89.00
2025-11-18 13:58:11.975521,599616454482824837,-94.00
2025-11-18 13:58:11.975521,599616454482824837,-101.00
2025-11-18 13:58:11.975521,599616454482824837,-108.00
2025-11-18 13:58:11.975521,599616454482824837,-113.00
2025-11-18 13:58:11.975521,599616454482824837,-111.00
2025-11-18 13:58:11.975521,599616454482824837,-96.00
2025-11-18 13:58:11.975521,599616454482824837,-87.00
2025-11-18 13:58:11.975521,599616454482824837,-94.00
2025-11-18 13:58:11.975521,599616454482824837,-101.00
2025-11-18 13:58:11.975521,599616454482824837,-106.00
2025-11-18 13:58:11.975521,599616454482824837,-106.00
2025-11-18 13:58:11.975521,599616454482824837,-92.00
2025-11-18 13:58:11.975521,599616454482824837,-79.00
2025-11-18 13:58:11.975521,599616454482824837,-82.00
2025-11-18 13:58:11.975521,599616454482824837,-87.00
2025-11-18 13:58:11.975521,599616454482824837,-87.00
2025-11-18 13:58:11.975521,599616454482824837,-89.00
2025-11-18 13:58:11.975521,599616454482824837,-92.00
2025-11-18 13:58:11.975521,599616454482824837,-96.00
2025-11-18 13:58:11.975521,599616454482824837,-130.00
2025-11-18 13:58:11.975521,599616454482824837,-232.00
2025-11-18 13:58:11.975521,599616454482824837,-329.00
2025-11-18 13:58:11.975521,599616454482824837,-193.00
2025-11-18 13:58:11.975521,599616454482824837,384.00
2025-11-18 13:58:11.975521,599616454482824837,1171.00
2025-11-18 13:58:11.975521,599616454482824837,1367.00
2025-11-18 13:58:11.975521,599616454482824837,740.00
2025-11-18 13:58:11.975521,599616454482824837,79.00
2025-11-18 13:58:11.975521,599616454482824837,-191.00
2025-11-18 13:58:11.975521,599616454482824837,-329.00
2025-11-18 13:58:11.975521,599616454482824837,-421.00
2025-11-18 13:58:11.975521,599616454482824837,-406.00
2025-11-18 13:58:11.975521,599616454482824837,-380.00
2025-11-18 13:58:11.975521,599616454482824837,-389.00
2025-11-18 13:58:11.975521,599616454482824837,-384.00
2025-11-18 13:58:11.975521,599616454482824837,-370.00
2025-11-18 13:58:11.975521,599616454482824837,-368.00
2025-11-18 13:58:11.975521,599616454482824837,-365.00
2025-11-18 13:58:11.975521,599616454482824837,-360.00
2025-11-18 13:58:11.975521,599616454482824837,-360.00
2025-11-18 13:58:11.975521,599616454482824837,-360.00
2025-11-18 13:58:11.975521,599616454482824837,-365.00
2025-11-18 13:58:11.975521,599616454482824837,-377.00
2025-11-18 13:58:11.975521,599616454482824837,-384.00
2025-11-18 13:58:11.975521,599616454482824837,-397.00
2025-11-18 13:58:11.975521,599616454482824837,-414.00
2025-11-18 13:58:11.975521,599616454482824837,-435.00
2025-11-18 13:58:11.975521,599616454482824837,-460.00
2025-11-18 13:58:11.975521,599616454482824837,-486.00
2025-11-18 13:58:11.975521,599616454482824837,-501.00
2025-11-18 13:58:11.975521,599616454482824837,-510.00
2025-11-18 13:58:11.975521,599616454482824837,-518.00
2025-11-18 13:58:11.975521,599616454482824837,-520.00
2025-11-18 13:58:11.975521,599616454482824837,-508.00
2025-11-18 13:58:11.975521,599616454482824837,-469.00
2025-11-18 13:58:11.975521,599616454482824837,-406.00
2025-11-18 13:58:11.975521,599616454482824837,-336.00
2025-11-18 13:58:11.975521,599616454482824837,-261.00
2025-11-18 13:58:11.975521,599616454482824837,-179.00
2025-11-18 13:58:11.975521,599616454482824837,-106.00
2025-11-18 13:58:11.975521,599616454482824837,-50.00
2025-11-18 13:58:11.975521,599616454482824837,-7.00
2025-11-18 13:58:11.975521,599616454482824837,21.00
2025-11-18 13:58:11.975521,599616454482824837,36.00
2025-11-18 13:58:11.975521,599616454482824837,38.00
2025-11-18 13:58:11.975521,599616454482824837,36.00
2025-11-18 13:58:11.975521,599616454482824837,31.00
2025-11-18 13:58:11.975521,599616454482824837,19.00
2025-11-18 13:58:12.484752,599616455043430324,4.00
2025-11-18 13:58:12.484752,599616455043430324,-2.00
2025-11-18 13:58:12.484752,599616455043430324,-9.00
2025-11-18 13:58:12.484752,599616455043430324,-19.00
2025-11-18 13:58:12.484752,599616455043430324,-29.00
2025-11-18 13:58:12.484752,599616455043430324,-33.00
2025-11-18 13:58:12.484752,599616455043430324,-38.00
2025-11-18 13:58:12.484752,599616455043430324,-43.00
2025-11-18 13:58:12.484752,599616455043430324,-48.00
2025-11-18 13:58:12.484752,599616455043430324,-53.00
2025-11-18 13:58:12.484752,599616455043430324,-53.00
2025-11-18 13:58:12.484752,599616455043430324,-53.00
2025-11-18 13:58:12.484752,599616455043430324,-55.00
2025-11-18 13:58:12.484752,599616455043430324,-58.00
2025-11-18 13:58:12.484752,599616455043430324,-58.00
2025-11-18 13:58:12.484752,599616455043430324,-58.00
2025-11-18 13:58:12.484752,599616455043430324,-58.00
2025-11-18 13:58:12.484752,599616455043430324,-58.00
2025-11-18 13:58:12.484752,599616455043430324,-58.00
2025-11-18 13:58:12.484752,599616455043430324,-58.00
2025-11-18 13:58:12.484752,599616455043430324,-60.00
2025-11-18 13:58:12.484752,599616455043430324,-60.00
2025-11-18 13:58:12.484752,599616455043430324,-62.00
2025-11-18 13:58:12.484752,599616455043430324,-60.00
2025-11-18 13:58:12.484752,599616455043430324,-60.00
2025-11-18 13:58:12.484752,599616455043430324,-65.00
2025-11-18 13:58:12.484752,599616455043430324,-67.00
2025-11-18 13:58:12.484752,599616455043430324,-67.00
2025-11-18 13:58:12.484752,599616455043430324,-70.00
2025-11-18 13:58:12.484752,599616455043430324,-67.00
2025-11-18 13:58:12.484752,599616455043430324,-67.00
2025-11-18 13:58:12.484752,599616455043430324,-67.00
2025-11-18 13:58:12.484752,599616455043430324,-72.00
2025-11-18 13:58:12.484752,599616455043430324,-75.00
2025-11-18 13:58:12.484752,599616455043430324,-75.00
2025-11-18 13:58:12.484752,599616455043430324,-72.00
2025-11-18 13:58:12.484752,599616455043430324,-72.00
2025-11-18 13:58:12.484752,599616455043430324,-75.00
2025-11-18 13:58:12.484752,599616455043430324,-72.00
2025-11-18 13:58:12.484752,599616455043430324,-72.00
2025-11-18 13:58:12.484752,599616455043430324,-77.00
2025-11-18 13:58:12.484752,599616455043430324,-82.00
2025-11-18 13:58:12.484752,599616455043430324,-87.00
2025-11-18 13:58:12.484752,599616455043430324,-96.00
2025-11-18 13:58:12.484752,599616455043430324,-104.00
2025-11-18 13:58:12.484752,599616455043430324,-106.00
2025-11-18 13:58:12.484752,599616455043430324,-104.00
2025-11-18 13:58:12.484752,599616455043430324,-92.00
2025-11-18 13:58:12.484752,599616455043430324,-77.00
2025-11-18 13:58:12.484752,599616455043430324,-77.00
2025-11-18 13:58:12.484752,599616455043430324,-87.00
2025-11-18 13:58:12.484752,599616455043430324,-94.00
2025-11-18 13:58:12.484752,599616455043430324,-94.00
2025-11-18 13:58:12.484752,599616455043430324,-82.00
2025-11-18 13:58:12.484752,599616455043430324,-70.00
2025-11-18 13:58:12.484752,599616455043430324,-70.00
2025-11-18 13:58:12.484752,599616455043430324,-75.00
2025-11-18 13:58:12.484752,599616455043430324,-79.00
2025-11-18 13:58:12.484752,599616455043430324,-79.00
2025-11-18 13:58:12.484752,599616455043430324,-79.00
2025-11-18 13:58:12.484752,599616455043430324,-87.00
2025-11-18 13:58:12.484752,599616455043430324,-123.00
2025-11-18 13:58:12.484752,599616455043430324,-225.00
2025-11-18 13:58:12.484752,599616455043430324,-343.00
2025-11-18 13:58:12.484752,599616455043430324,-232.00
2025-11-18 13:58:12.484752,599616455043430324,338.00
2025-11-18 13:58:12.484752,599616455043430324,1135.00
2025-11-18 13:58:12.484752,599616455043430324,1367.00
2025-11-18 13:58:12.484752,599616455043430324,784.00
2025-11-18 13:58:12.484752,599616455043430324,135.00
2025-11-18 13:58:12.484752,599616455043430324,-142.00
2025-11-18 13:58:12.484752,599616455043430324,-292.00
2025-11-18 13:58:12.484752,599616455043430324,-399.00
2025-11-18 13:58:13.088334,599616455604035813,-389.00
2025-11-18 13:58:13.088334,599616455604035813,-358.00
2025-11-18 13:58:13.088334,599616455604035813,-372.00
2025-11-18 13:58:13.088334,599616455604035813,-368.00
2025-11-18 13:58:13.088334,599616455604035813,-341.00
2025-11-18 13:58:13.088334,599616455604035813,-338.00
2025-11-18 13:58:13.088334,599616455604035813,-343.00
2025-11-18 13:58:13.088334,599616455604035813,-338.00
2025-11-18 13:58:13.088334,599616455604035813,-338.00
2025-11-18 13:58:13.088334,599616455604035813,-343.00
2025-11-18 13:58:13.088334,599616455604035813,-348.00
2025-11-18 13:58:13.088334,599616455604035813,-353.00
2025-11-18 13:58:13.088334,599616455604035813,-360.00
2025-11-18 13:58:13.088334,599616455604035813,-375.00
2025-11-18 13:58:13.088334,599616455604035813,-394.00
2025-11-18 13:58:13.088334,599616455604035813,-416.00
2025-11-18 13:58:13.088334,599616455604035813,-438.00
2025-11-18 13:58:13.088334,599616455604035813,-464.00
2025-11-18 13:58:13.088334,599616455604035813,-484.00
2025-11-18 13:58:13.088334,599616455604035813,-498.00
2025-11-18 13:58:13.088334,599616455604035813,-506.00
2025-11-18 13:58:13.088334,599616455604035813,-501.00
2025-11-18 13:58:13.088334,599616455604035813,-479.00
2025-11-18 13:58:13.088334,599616455604035813,-438.00
2025-11-18 13:58:13.088334,599616455604035813,-375.00
2025-11-18 13:58:13.088334,599616455604035813,-295.00
2025-11-18 13:58:13.088334,599616455604035813,-217.00
2025-11-18 13:58:13.088334,599616455604035813,-142.00
2025-11-18 13:58:13.088334,599616455604035813,-77.00
2025-11-18 13:58:13.088334,599616455604035813,-21.00
2025-11-18 13:58:13.088334,599616455604035813,19.00
2025-11-18 13:58:13.088334,599616455604035813,46.00
2025-11-18 13:58:13.088334,599616455604035813,55.00
2025-11-18 13:58:13.088334,599616455604035813,58.00
2025-11-18 13:58:13.088334,599616455604035813,58.00
2025-11-18 13:58:13.088334,599616455604035813,50.00
2025-11-18 13:58:13.088334,599616455604035813,43.00
2025-11-18 13:58:13.088334,599616455604035813,33.00
2025-11-18 13:58:13.088334,599616455604035813,24.00
2025-11-18 13:58:13.088334,599616455604035813,16.00
2025-11-18 13:58:13.088334,599616455604035813,9.00
2025-11-18 13:58:13.088334,599616455604035813,0.00
2025-11-18 13:58:13.088334,599616455604035813,-7.00
2025-11-18 13:58:13.088334,599616455604035813,-14.00
2025-11-18 13:58:13.088334,599616455604035813,-21.00
2025-11-18 13:58:13.088334,599616455604035813,-26.00
2025-11-18 13:58:13.088334,599616455604035813,-29.00
2025-11-18 13:58:13.088334,599616455604035813,-31.00
2025-11-18 13:58:13.088334,599616455604035813,-36.00
2025-11-18 13:58:13.088334,599616455604035813,-36.00
2025-11-18 13:58:13.088334,599616455604035813,-36.00
2025-11-18 13:58:13.088334,599616455604035813,-33.00
2025-11-18 13:58:13.088334,599616455604035813,-33.00
2025-11-18 13:58:13.088334,599616455604035813,-36.00
2025-11-18 13:58:13.088334,599616455604035813,-36.00
2025-11-18 13:58:13.088334,599616455604035813,-38.00
2025-11-18 13:58:13.088334,599616455604035813,-38.00
2025-11-18 13:58:13.088334,599616455604035813,-38.00
2025-11-18 13:58:13.088334,599616455604035813,-41.00
2025-11-18 13:58:13.088334,599616455604035813,-43.00
2025-11-18 13:58:13.088334,599616455604035813,-41.00
2025-11-18 13:58:13.088334,599616455604035813,-41.00
2025-11-18 13:58:13.088334,599616455604035813,-43.00
2025-11-18 13:58:13.088334,599616455604035813,-46.00
2025-11-18 13:58:13.088334,599616455604035813,-46.00
2025-11-18 13:58:13.088334,599616455604035813,-50.00
2025-11-18 13:58:13.088334,599616455604035813,-50.00
2025-11-18 13:58:13.088334,599616455604035813,-53.00
2025-11-18 13:58:13.088334,599616455604035813,-53.00
2025-11-18 13:58:13.088334,599616455604035813,-55.00
2025-11-18 13:58:13.088334,599616455604035813,-53.00
2025-11-18 13:58:13.088334,599616455604035813,-55.00
2025-11-18 13:58:13.088334,599616455604035813,-60.00
2025-11-18 13:58:13.683808,599616456164641300,-60.00
2025-11-18 13:58:13.683808,599616456164641300,-58.00
2025-11-18 13:58:13.683808,599616456164641300,-60.00
2025-11-18 13:58:13.683808,599616456164641300,-62.00
2025-11-18 13:58:13.683808,599616456164641300,-65.00
2025-11-18 13:58:13.683808,599616456164641300,-65.00
2025-11-18 13:58:13.683808,599616456164641300,-65.00
2025-11-18 13:58:13.683808,599616456164641300,-67.00
2025-11-18 13:58:13.683808,599616456164641300,-67.00
2025-11-18 13:58:13.683808,599616456164641300,-67.00
2025-11-18 13:58:13.683808,599616456164641300,-67.00
2025-11-18 13:58:13.683808,599616456164641300,-72.00
2025-11-18 13:58:13.683808,599616456164641300,-75.00
2025-11-18 13:58:13.683808,599616456164641300,-82.00
2025-11-18 13:58:13.683808,599616456164641300,-92.00
2025-11-18 13:58:13.683808,599616456164641300,-94.00
2025-11-18 13:58:13.683808,599616456164641300,-94.00
2025-11-18 13:58:13.683808,599616456164641300,-84.00
2025-11-18 13:58:13.683808,599616456164641300,-67.00
2025-11-18 13:58:13.683808,599616456164641300,-70.00
2025-11-18 13:58:13.683808,599616456164641300,-77.00
2025-11-18 13:58:13.683808,599616456164641300,-84.00
2025-11-18 13:58:13.683808,599616456164641300,-87.00
2025-11-18 13:58:13.683808,599616456164641300,-82.00
2025-11-18 13:58:13.683808,599616456164641300,-65.00
2025-11-18 13:58:13.683808,599616456164641300,-60.00
2025-11-18 13:58:13.683808,599616456164641300,-65.00
2025-11-18 13:58:13.683808,599616456164641300,-67.00
2025-11-18 13:58:13.683808,599616456164641300,-72.00
2025-11-18 13:58:13.683808,599616456164641300,-75.00
2025-11-18 13:58:13.683808,599616456164641300,-79.00
2025-11-18 13:58:13.683808,599616456164641300,-99.00
2025-11-18 13:58:13.683808,599616456164641300,-169.00
2025-11-18 13:58:13.683808,599616456164641300,-271.00
2025-11-18 13:58:13.683808,599616456164641300,-222.00
2025-11-18 13:58:13.683808,599616456164641300,213.00
2025-11-18 13:58:13.683808,599616456164641300,982.00
2025-11-18 13:58:13.683808,599616456164641300,1447.00
2025-11-18 13:58:13.683808,599616456164641300,1048.00
2025-11-18 13:58:13.683808,599616456164641300,292.00
2025-11-18 13:58:13.683808,599616456164641300,-128.00
2025-11-18 13:58:13.683808,599616456164641300,-297.00
2025-11-18 13:58:13.683808,599616456164641300,-404.00
2025-11-18 13:58:13.683808,599616456164641300,-409.00
2025-11-18 13:58:13.683808,599616456164641300,-375.00
2025-11-18 13:58:13.683808,599616456164641300,-380.00
2025-11-18 13:58:13.683808,599616456164641300,-380.00
2025-11-18 13:58:13.683808,599616456164641300,-360.00
2025-11-18 13:58:13.683808,599616456164641300,-353.00
2025-11-18 13:58:13.683808,599616456164641300,-351.00
2025-11-18 13:58:13.683808,599616456164641300,-346.00
2025-11-18 13:58:13.683808,599616456164641300,-346.00
2025-11-18 13:58:13.683808,599616456164641300,-351.00
2025-11-18 13:58:13.683808,599616456164641300,-351.00
2025-11-18 13:58:13.683808,599616456164641300,-358.00
2025-11-18 13:58:13.683808,599616456164641300,-368.00
2025-11-18 13:58:13.683808,599616456164641300,-377.00
2025-11-18 13:58:13.683808,599616456164641300,-392.00
2025-11-18 13:58:13.683808,599616456164641300,-414.00
2025-11-18 13:58:13.683808,599616456164641300,-438.00
2025-11-18 13:58:13.683808,599616456164641300,-457.00
2025-11-18 13:58:13.683808,599616456164641300,-481.00
2025-11-18 13:58:13.683808,599616456164641300,-503.00
2025-11-18 13:58:13.683808,599616456164641300,-513.00
2025-11-18 13:58:13.683808,599616456164641300,-513.00
2025-11-18 13:58:13.683808,599616456164641300,-501.00
2025-11-18 13:58:13.683808,599616456164641300,-469.00
2025-11-18 13:58:13.683808,599616456164641300,-411.00
2025-11-18 13:58:13.683808,599616456164641300,-336.00
2025-11-18 13:58:13.683808,599616456164641300,-263.00
2025-11-18 13:58:13.683808,599616456164641300,-191.00
2025-11-18 13:58:13.683808,599616456164641300,-118.00
2025-11-18 13:58:13.683808,599616456164641300,-55.00
2025-11-18 13:58:14.194318,599616456725262047,-7.00
2025-11-18 13:58:14.194318,599616456725262047,26.00
2025-11-18 13:58:14.194318,599616456725262047,46.00
2025-11-18 13:58:14.194318,599616456725262047,55.00
2025-11-18 13:58:14.194318,599616456725262047,55.00
2025-11-18 13:58:14.194318,599616456725262047,53.00
2025-11-18 13:58:14.194318,599616456725262047,46.00
2025-11-18 13:58:14.194318,599616456725262047,36.00
2025-11-18 13:58:14.194318,599616456725262047,26.00
2025-11-18 13:58:14.194318,599616456725262047,16.00
2025-11-18 13:58:14.194318,599616456725262047,9.00
2025-11-18 13:58:14.194318,599616456725262047,0.00
2025-11-18 13:58:14.194318,599616456725262047,-9.00
2025-11-18 13:58:14.194318,599616456725262047,-12.00
2025-11-18 13:58:14.194318,599616456725262047,-16.00
2025-11-18 13:58:14.194318,599616456725262047,-21.00
2025-11-18 13:58:14.194318,599616456725262047,-26.00
2025-11-18 13:58:14.194318,599616456725262047,-31.00
2025-11-18 13:58:14.194318,599616456725262047,-33.00
2025-11-18 13:58:14.194318,599616456725262047,-33.00
2025-11-18 13:58:14.194318,599616456725262047,-36.00
2025-11-18 13:58:14.194318,599616456725262047,-38.00
2025-11-18 13:58:14.194318,599616456725262047,-38.00
2025-11-18 13:58:14.194318,599616456725262047,-36.00
2025-11-18 13:58:14.194318,599616456725262047,-38.00
2025-11-18 13:58:14.194318,599616456725262047,-36.00
2025-11-18 13:58:14.194318,599616456725262047,-36.00
2025-11-18 13:58:14.194318,599616456725262047,-38.00
2025-11-18 13:58:14.194318,599616456725262047,-41.00
2025-11-18 13:58:14.194318,599616456725262047,-41.00
2025-11-18 13:58:14.194318,599616456725262047,-41.00
2025-11-18 13:58:14.194318,599616456725262047,-43.00
2025-11-18 13:58:14.194318,599616456725262047,-43.00
2025-11-18 13:58:14.194318,599616456725262047,-46.00
2025-11-18 13:58:14.194318,599616456725262047,-48.00
2025-11-18 13:58:14.194318,599616456725262047,-50.00
2025-11-18 13:58:14.194318,599616456725262047,-50.00
2025-11-18 13:58:14.194318,599616456725262047,-50.00
2025-11-18 13:58:14.194318,599616456725262047,-50.00
2025-11-18 13:58:14.194318,599616456725262047,-53.00
2025-11-18 13:58:14.194318,599616456725262047,-55.00
2025-11-18 13:58:14.194318,599616456725262047,-55.00
2025-11-18 13:58:14.194318,599616456725262047,-55.00
2025-11-18 13:58:14.194318,599616456725262047,-58.00
2025-11-18 13:58:14.194318,599616456725262047,-58.00
2025-11-18 13:58:14.194318,599616456725262047,-55.00
2025-11-18 13:58:14.194318,599616456725262047,-60.00
2025-11-18 13:58:14.194318,599616456725262047,-65.00
2025-11-18 13:58:14.194318,599616456725262047,-65.00
2025-11-18 13:58:14.194318,599616456725262047,-65.00
2025-11-18 13:58:14.194318,599616456725262047,-65.00
2025-11-18 13:58:14.194318,599616456725262047,-67.00
2025-11-18 13:58:14.194318,599616456725262047,-70.00
2025-11-18 13:58:14.194318,599616456725262047,-70.00
2025-11-18 13:58:14.194318,599616456725262047,-70.00
2025-11-18 13:58:14.194318,599616456725262047,-72.00
2025-11-18 13:58:14.194318,599616456725262047,-75.00
2025-11-18 13:58:14.194318,599616456725262047,-82.00
2025-11-18 13:58:14.194318,599616456725262047,-92.00
2025-11-18 13:58:14.194318,599616456725262047,-99.00
2025-11-18 13:58:14.194318,599616456725262047,-99.00
2025-11-18 13:58:14.194318,599616456725262047,-92.00
2025-11-18 13:58:14.194318,599616456725262047,-77.00
2025-11-18 13:58:14.194318,599616456725262047,-70.00
2025-11-18 13:58:14.194318,599616456725262047,-77.00
2025-11-18 13:58:14.194318,599616456725262047,-87.00
2025-11-18 13:58:14.194318,599616456725262047,-94.00
2025-11-18 13:58:14.194318,599616456725262047,-96.00
2025-11-18 13:58:14.194318,599616456725262047,-79.00
2025-11-18 13:58:14.194318,599616456725262047,-65.00
2025-11-18 13:58:14.194318,599616456725262047,-70.00
2025-11-18 13:58:14.194318,599616456725262047,-77.00
2025-11-18 13:58:14.194318,599616456725262047,-77.00
2025-11-18 13:58:14.767648,599616457285882792,-79.00
2025-11-18 13:58:14.767648,599616457285882792,-82.00
2025-11-18 13:58:14.767648,599616457285882792,-94.00
2025-11-18 13:58:14.767648,599616457285882792,-140.00
2025-11-18 13:58:14.767648,599616457285882792,-244.00
2025-11-18 13:58:14.767648,599616457285882792,-285.00
2025-11-18 13:58:14.767648,599616457285882792,-26.00
2025-11-18 13:58:14.767648,599616457285882792,646.00
2025-11-18 13:58:14.767648,599616457285882792,1343.00
2025-11-18 13:58:14.767648,599616457285882792,1307.00
2025-11-18 13:58:14.767648,599616457285882792,583.00
2025-11-18 13:58:14.767648,599616457285882792,-12.00
2025-11-18 13:58:14.767648,599616457285882792,-239.00
2025-11-18 13:58:14.767648,599616457285882792,-368.00
2025-11-18 13:58:14.767648,599616457285882792,-426.00
2025-11-18 13:58:14.767648,599616457285882792,-397.00
2025-11-18 13:58:14.767648,599616457285882792,-384.00
2025-11-18 13:58:14.767648,599616457285882792,-394.00
2025-11-18 13:58:14.767648,599616457285882792,-377.00
2025-11-18 13:58:14.767648,599616457285882792,-360.00
2025-11-18 13:58:14.767648,599616457285882792,-360.00
2025-11-18 13:58:14.767648,599616457285882792,-358.00
2025-11-18 13:58:14.767648,599616457285882792,-353.00
2025-11-18 13:58:14.767648,599616457285882792,-353.00
2025-11-18 13:58:14.767648,599616457285882792,-355.00
2025-11-18 13:58:14.767648,599616457285882792,-360.00
2025-11-18 13:58:14.767648,599616457285882792,-370.00
2025-11-18 13:58:14.767648,599616457285882792,-384.00
2025-11-18 13:58:14.767648,599616457285882792,-399.00
2025-11-18 13:58:14.767648,599616457285882792,-414.00
2025-11-18 13:58:14.767648,599616457285882792,-433.00
2025-11-18 13:58:14.767648,599616457285882792,-455.00
2025-11-18 13:58:14.767648,599616457285882792,-479.00
2025-11-18 13:58:14.767648,599616457285882792,-498.00
2025-11-18 13:58:14.767648,599616457285882792,-513.00
2025-11-18 13:58:14.767648,599616457285882792,-515.00
2025-11-18 13:58:14.767648,599616457285882792,-513.00
2025-11-18 13:58:14.767648,599616457285882792,-493.00
2025-11-18 13:58:14.767648,599616457285882792,-447.00
2025-11-18 13:58:14.767648,599616457285882792,-380.00
2025-11-18 13:58:14.767648,599616457285882792,-307.00
2025-11-18 13:58:14.767648,599616457285882792,-232.00
2025-11-18 13:58:14.767648,599616457285882792,-154.00
2025-11-18 13:58:14.767648,599616457285882792,-82.00
2025-11-18 13:58:14.767648,599616457285882792,-29.00
2025-11-18 13:58:14.767648,599616457285882792,7.00
2025-11-18 13:58:14.767648,599616457285882792,31.00
2025-11-18 13:58:14.767648,599616457285882792,43.00
2025-11-18 13:58:14.767648,599616457285882792,50.00
2025-11-18 13:58:14.767648,599616457285882792,50.00
2025-11-18 13:58:14.767648,599616457285882792,41.00
2025-11-18 13:58:14.767648,599616457285882792,29.00
2025-11-18 13:58:14.767648,599616457285882792,14.00
2025-11-18 13:58:14.767648,599616457285882792,2.00
2025-11-18 13:58:14.767648,599616457285882792,-2.00
2025-11-18 13:58:14.767648,599616457285882792,-7.00
2025-11-18 13:58:14.767648,599616457285882792,-19.00
2025-11-18 13:58:14.767648,599616457285882792,-29.00
2025-11-18 13:58:14.767648,599616457285882792,-31.00
2025-11-18 13:58:14.767648,599616457285882792,-36.00
2025-11-18 13:58:14.767648,599616457285882792,-46.00
2025-11-18 13:58:14.767648,599616457285882792,-48.00
2025-11-18 13:58:14.767648,599616457285882792,-48.00
2025-11-18 13:58:14.767648,599616457285882792,-53.00
2025-11-18 13:58:14.767648,599616457285882792,-58.00
2025-11-18 13:58:14.767648,599616457285882792,-55.00
2025-11-18 13:58:14.767648,599616457285882792,-53.00
2025-11-18 13:58:14.767648,599616457285882792,-58.00
2025-11-18 13:58:14.767648,599616457285882792,-58.00
2025-11-18 13:58:14.767648,599616457285882792,-53.00
2025-11-18 13:58:14.767648,599616457285882792,-55.00
2025-11-18 13:58:14.767648,599616457285882792,-58.00
2025-11-18 13:58:14.767648,599616457285882792,-58.00
2025-11-18 13:58:15.306142,599616457846493367,-62.00
2025-11-18 13:58:15.306142,599616457846493367,-65.00
2025-11-18 13:58:15.306142,599616457846493367,-65.00
2025-11-18 13:58:15.306142,599616457846493367,-62.00
2025-11-18 13:58:15.306142,599616457846493367,-67.00
2025-11-18 13:58:15.306142,599616457846493367,-72.00
2025-11-18 13:58:15.306142,599616457846493367,-75.00
2025-11-18 13:58:15.306142,599616457846493367,-77.00
2025-11-18 13:58:15.306142,599616457846493367,-75.00
2025-11-18 13:58:15.306142,599616457846493367,-70.00
2025-11-18 13:58:15.306142,599616457846493367,-75.00
2025-11-18 13:58:15.306142,599616457846493367,-79.00
2025-11-18 13:58:15.306142,599616457846493367,-77.00
2025-11-18 13:58:15.306142,599616457846493367,-77.00
2025-11-18 13:58:15.306142,599616457846493367,-84.00
2025-11-18 13:58:15.306142,599616457846493367,-87.00
2025-11-18 13:58:15.306142,599616457846493367,-84.00
2025-11-18 13:58:15.306142,599616457846493367,-87.00
2025-11-18 13:58:15.306142,599616457846493367,-89.00
2025-11-18 13:58:15.306142,599616457846493367,-87.00
2025-11-18 13:58:15.306142,599616457846493367,-89.00
2025-11-18 13:58:15.306142,599616457846493367,-89.00
2025-11-18 13:58:15.306142,599616457846493367,-84.00
2025-11-18 13:58:15.306142,599616457846493367,-84.00
2025-11-18 13:58:15.306142,599616457846493367,-92.00
2025-11-18 13:58:15.306142,599616457846493367,-99.00
2025-11-18 13:58:15.306142,599616457846493367,-106.00
2025-11-18 13:58:15.306142,599616457846493367,-111.00
2025-11-18 13:58:15.306142,599616457846493367,-113.00
2025-11-18 13:58:15.306142,599616457846493367,-116.00
2025-11-18 13:58:15.306142,599616457846493367,-108.00
2025-11-18 13:58:15.306142,599616457846493367,-99.00
2025-11-18 13:58:15.306142,599616457846493367,-96.00
2025-11-18 13:58:15.306142,599616457846493367,-99.00
2025-11-18 13:58:15.306142,599616457846493367,-104.00
2025-11-18 13:58:15.306142,599616457846493367,-111.00
2025-11-18 13:58:15.306142,599616457846493367,-104.00
2025-11-18 13:58:15.306142,599616457846493367,-84.00
2025-11-18 13:58:15.306142,599616457846493367,-82.00
2025-11-18 13:58:15.306142,599616457846493367,-92.00
2025-11-18 13:58:15.306142,599616457846493367,-94.00
2025-11-18 13:58:15.306142,599616457846493367,-96.00
2025-11-18 13:58:15.306142,599616457846493367,-104.00
2025-11-18 13:58:15.306142,599616457846493367,-108.00
2025-11-18 13:58:15.306142,599616457846493367,-125.00
2025-11-18 13:58:15.306142,599616457846493367,-205.00
2025-11-18 13:58:15.306142,599616457846493367,-331.00
2025-11-18 13:58:15.306142,599616457846493367,-326.00
2025-11-18 13:58:15.306142,599616457846493367,58.00
2025-11-18 13:58:15.306142,599616457846493367,818.00
2025-11-18 13:58:15.306142,599616457846493367,1329.00
2025-11-18 13:58:15.306142,599616457846493367,992.00
2025-11-18 13:58:15.306142,599616457846493367,297.00
2025-11-18 13:58:15.306142,599616457846493367,-77.00
2025-11-18 13:58:15.306142,599616457846493367,-239.00
2025-11-18 13:58:15.306142,599616457846493367,-377.00
2025-11-18 13:58:15.306142,599616457846493367,-411.00
2025-11-18 13:58:15.306142,599616457846493367,-375.00
2025-11-18 13:58:15.306142,599616457846493367,-375.00
2025-11-18 13:58:15.306142,599616457846493367,-380.00
2025-11-18 13:58:15.306142,599616457846493367,-360.00
2025-11-18 13:58:15.306142,599616457846493367,-353.00
2025-11-18 13:58:15.306142,599616457846493367,-355.00
2025-11-18 13:58:15.306142,599616457846493367,-351.00
2025-11-18 13:58:15.306142,599616457846493367,-351.00
2025-11-18 13:58:15.306142,599616457846493367,-353.00
2025-11-18 13:58:15.306142,599616457846493367,-351.00
2025-11-18 13:58:15.306142,599616457846493367,-358.00
2025-11-18 13:58:15.306142,599616457846493367,-370.00
2025-11-18 13:58:15.306142,599616457846493367,-380.00
2025-11-18 13:58:15.306142,599616457846493367,-392.00
2025-11-18 13:58:15.306142,599616457846493367,-414.00
2025-11-18 13:58:15.306142,599616457846493367,-435.00
2025-11-18 13:58:15.845099,599616458407124284,-457.00
2025-11-18 13:58:15.845099,599616458407124284,-481.00
2025-11-18 13:58:15.845099,599616458407124284,-498.00
2025-11-18 13:58:15.845099,599616458407124284,-506.00
2025-11-18 13:58:15.845099,599616458407124284,-513.00
2025-11-18 13:58:15.845099,599616458407124284,-506.00
2025-11-18 13:58:15.845099,599616458407124284,-467.00
2025-11-18 13:58:15.845099,599616458407124284,-404.00
2025-11-18 13:58:15.845099,599616458407124284,-336.00
2025-11-18 13:58:15.845099,599616458407124284,-261.00
2025-11-18 13:58:15.845099,599616458407124284,-181.00
2025-11-18 13:58:15.845099,599616458407124284,-108.00
2025-11-18 13:58:15.845099,599616458407124284,-50.00
2025-11-18 13:58:15.845099,599616458407124284,-7.00
2025-11-18 13:58:15.845099,599616458407124284,24.00
2025-11-18 13:58:15.845099,599616458407124284,41.00
2025-11-18 13:58:15.845099,599616458407124284,43.00
2025-11-18 13:58:15.845099,599616458407124284,43.00
2025-11-18 13:58:15.845099,599616458407124284,41.00
2025-11-18 13:58:15.845099,599616458407124284,33.00
2025-11-18 13:58:15.845099,599616458407124284,29.00
