Timestamp,Device Timestamp (ns),ECG Value (uV)
2025-06-12 13:32:33.084122,599617458875351133,282.00
2025-06-12 13:32:33.084122,599617458875351133,326.00
2025-06-12 13:32:33.084122,599617458875351133,372.00
2025-06-12 13:32:33.084122,599617458875351133,409.00
2025-06-12 13:32:33.084122,599617458875351133,441.00
2025-06-12 13:32:33.084122,599617458875351133,472.00
2025-06-12 13:32:33.084122,599617458875351133,497.00
2025-06-12 13:32:33.084122,599617458875351133,489.00
2025-06-12 13:32:33.084122,599617458875351133,428.00
2025-06-12 13:32:33.084122,599617458875351133,319.00
2025-06-12 13:32:33.084122,599617458875351133,185.00
2025-06-12 13:32:33.084122,599617458875351133,43.00
2025-06-12 13:32:33.084122,599617458875351133,-80.00
2025-06-12 13:32:33.084122,599617458875351133,-163.00
2025-06-12 13:32:33.084122,599617458875351133,-219.00
2025-06-12 13:32:33.084122,599617458875351133,-253.00
2025-06-12 13:32:33.084122,599617458875351133,-265.00
2025-06-12 13:32:33.084122,599617458875351133,-277.00
2025-06-12 13:32:33.084122,599617458875351133,-282.00
2025-06-12 13:32:33.084122,599617458875351133,-270.00
2025-06-12 13:32:33.084122,599617458875351133,-260.00
2025-06-12 13:32:33.084122,599617458875351133,-258.00
2025-06-12 13:32:33.084122,599617458875351133,-248.00
2025-06-12 13:32:33.084122,599617458875351133,-236.00
2025-06-12 13:32:33.084122,599617458875351133,-233.00
2025-06-12 13:32:33.084122,599617458875351133,-229.00
2025-06-12 13:32:33.084122,599617458875351133,-214.00
2025-06-12 13:32:33.084122,599617458875351133,-204.00
2025-06-12 13:32:33.084122,599617458875351133,-207.00
2025-06-12 13:32:33.084122,599617458875351133,-194.00
2025-06-12 13:32:33.084122,599617458875351133,-180.00
2025-06-12 13:32:33.084122,599617458875351133,-177.00
2025-06-12 13:32:33.084122,599617458875351133,-170.00
2025-06-12 13:32:33.084122,599617458875351133,-158.00
2025-06-12 13:32:33.084122,599617458875351133,-155.00
2025-06-12 13:32:33.084122,599617458875351133,-151.00
2025-06-12 13:32:33.084122,599617458875351133,-141.00
2025-06-12 13:32:33.084122,599617458875351133,-131.00
2025-06-12 13:32:33.084122,599617458875351133,-134.00
2025-06-12 13:32:33.084122,599617458875351133,-136.00
2025-06-12 13:32:33.084122,599617458875351133,-129.00
2025-06-12 13:32:33.084122,599617458875351133,-121.00
2025-06-12 13:32:33.084122,599617458875351133,-129.00
2025-06-12 13:32:33.084122,599617458875351133,-129.00
2025-06-12 13:32:33.084122,599617458875351133,-116.00
2025-06-12 13:32:33.084122,599617458875351133,-119.00
2025-06-12 13:32:33.084122,599617458875351133,-121.00
2025-06-12 13:32:33.084122,599617458875351133,-116.00
2025-06-12 13:32:33.084122,599617458875351133,-119.00
2025-06-12 13:32:33.084122,599617458875351133,-121.00
2025-06-12 13:32:33.084122,599617458875351133,-114.00
2025-06-12 13:32:33.084122,599617458875351133,-109.00
2025-06-12 13:32:33.084122,599617458875351133,-109.00
2025-06-12 13:32:33.084122,599617458875351133,-99.00
2025-06-12 13:32:33.084122,599617458875351133,-104.00
2025-06-12 13:32:33.084122,599617458875351133,-112.00
2025-06-12 13:32:33.084122,599617458875351133,-104.00
2025-06-12 13:32:33.084122,599617458875351133,-92.00
2025-06-12 13:32:33.084122,599617458875351133,-97.00
2025-06-12 13:32:33.084122,599617458875351133,-97.00
2025-06-12 13:32:33.084122,599617458875351133,-95.00
2025-06-12 13:32:33.084122,599617458875351133,-97.00
2025-06-12 13:32:33.084122,599617458875351133,-92.00
2025-06-12 13:32:33.084122,599617458875351133,-85.00
2025-06-12 13:32:33.084122,599617458875351133,-90.00
2025-06-12 13:32:33.084122,599617458875351133,-102.00
2025-06-12 13:32:33.084122,599617458875351133,-107.00
2025-06-12 13:32:33.084122,599617458875351133,-82.00
2025-06-12 13:32:33.084122,599617458875351133,-60.00
2025-06-12 13:32:33.084122,599617458875351133,-68.00
2025-06-12 13:32:33.084122,599617458875351133,-63.00
2025-06-12 13:32:33.084122,599617458875351133,-51.00
2025-06-12 13:32:33.084122,599617458875351133,-60.00
2025-06-12 13:32:33.622377,599617459436078692,-77.00
2025-06-12 13:32:33.622377,599617459436078692,-77.00
2025-06-12 13:32:33.622377,599617459436078692,-77.00
2025-06-12 13:32:33.622377,599617459436078692,-80.00
2025-06-12 13:32:33.622377,599617459436078692,-75.00
2025-06-12 13:32:33.622377,599617459436078692,-73.00
2025-06-12 13:32:33.622377,599617459436078692,-70.00
2025-06-12 13:32:33.622377,599617459436078692,-68.00
2025-06-12 13:32:33.622377,599617459436078692,-70.00
2025-06-12 13:32:33.622377,599617459436078692,-107.00
2025-06-12 13:32:33.622377,599617459436078692,-187.00
2025-06-12 13:32:33.622377,599617459436078692,-95.00
2025-06-12 13:32:33.622377,599617459436078692,472.00
2025-06-12 13:32:33.622377,599617459436078692,1218.00
2025-06-12 13:32:33.622377,599617459436078692,1104.00
2025-06-12 13:32:33.622377,599617459436078692,-73.00
2025-06-12 13:32:33.622377,599617459436078692,-823.00
2025-06-12 13:32:33.622377,599617459436078692,-443.00
2025-06-12 13:32:33.622377,599617459436078692,-70.00
2025-06-12 13:32:33.622377,599617459436078692,-134.00
2025-06-12 13:32:33.622377,599617459436078692,-63.00
2025-06-12 13:32:33.622377,599617459436078692,63.00
2025-06-12 13:32:33.622377,599617459436078692,17.00
2025-06-12 13:32:33.622377,599617459436078692,-4.00
2025-06-12 13:32:33.622377,599617459436078692,46.00
2025-06-12 13:32:33.622377,599617459436078692,53.00
2025-06-12 13:32:33.622377,599617459436078692,46.00
2025-06-12 13:32:33.622377,599617459436078692,68.00
2025-06-12 13:32:33.622377,599617459436078692,82.00
2025-06-12 13:32:33.622377,599617459436078692,87.00
2025-06-12 13:32:33.622377,599617459436078692,104.00
2025-06-12 13:32:33.622377,599617459436078692,124.00
2025-06-12 13:32:33.622377,599617459436078692,141.00
2025-06-12 13:32:33.622377,599617459436078692,160.00
2025-06-12 13:32:33.622377,599617459436078692,185.00
2025-06-12 13:32:33.622377,599617459436078692,214.00
2025-06-12 13:32:33.622377,599617459436078692,248.00
2025-06-12 13:32:33.622377,599617459436078692,290.00
2025-06-12 13:32:33.622377,599617459436078692,331.00
2025-06-12 13:32:33.622377,599617459436078692,380.00
2025-06-12 13:32:33.622377,599617459436078692,419.00
2025-06-12 13:32:33.622377,599617459436078692,446.00
2025-06-12 13:32:33.622377,599617459436078692,460.00
2025-06-12 13:32:33.622377,599617459436078692,455.00
2025-06-12 13:32:33.622377,599617459436078692,404.00
2025-06-12 13:32:33.622377,599617459436078692,302.00
2025-06-12 13:32:33.622377,599617459436078692,165.00
2025-06-12 13:32:33.622377,599617459436078692,24.00
2025-06-12 13:32:33.622377,599617459436078692,-97.00
2025-06-12 13:32:33.622377,599617459436078692,-187.00
2025-06-12 13:32:33.622377,599617459436078692,-246.00
2025-06-12 13:32:33.622377,599617459436078692,-280.00
2025-06-12 13:32:33.622377,599617459436078692,-297.00
2025-06-12 13:32:33.622377,599617459436078692,-302.00
2025-06-12 13:32:33.622377,599617459436078692,-299.00
2025-06-12 13:32:33.622377,599617459436078692,-294.00
2025-06-12 13:32:33.622377,599617459436078692,-287.00
2025-06-12 13:32:33.622377,599617459436078692,-275.00
2025-06-12 13:32:33.622377,599617459436078692,-263.00
2025-06-12 13:32:33.622377,599617459436078692,-260.00
2025-06-12 13:32:33.622377,599617459436078692,-253.00
2025-06-12 13:32:33.622377,599617459436078692,-243.00
2025-06-12 13:32:33.622377,599617459436078692,-233.00
2025-06-12 13:32:33.622377,599617459436078692,-226.00
2025-06-12 13:32:33.622377,599617459436078692,-216.00
2025-06-12 13:32:33.622377,599617459436078692,-209.00
2025-06-12 13:32:33.622377,599617459436078692,-199.00
2025-06-12 13:32:33.622377,599617459436078692,-190.00
2025-06-12 13:32:33.622377,599617459436078692,-182.00
2025-06-12 13:32:33.622377,599617459436078692,-177.00
2025-06-12 13:32:33.622377,599617459436078692,-173.00
2025-06-12 13:32:33.622377,599617459436078692,-160.00
2025-06-12 13:32:33.622377,599617459436078692,-153.00
2025-06-12 13:32:34.252800,599617459996775733,-151.00
2025-06-12 13:32:34.252800,599617459996775733,-146.00
2025-06-12 13:32:34.252800,599617459996775733,-146.00
2025-06-12 13:32:34.252800,599617459996775733,-141.00
2025-06-12 13:32:34.252800,599617459996775733,-136.00
2025-06-12 13:32:34.252800,599617459996775733,-134.00
2025-06-12 13:32:34.252800,599617459996775733,-134.00
2025-06-12 13:32:34.252800,599617459996775733,-134.00
2025-06-12 13:32:34.252800,599617459996775733,-126.00
2025-06-12 13:32:34.252800,599617459996775733,-121.00
2025-06-12 13:32:34.252800,599617459996775733,-124.00
2025-06-12 13:32:34.252800,599617459996775733,-126.00
2025-06-12 13:32:34.252800,599617459996775733,-124.00
2025-06-12 13:32:34.252800,599617459996775733,-116.00
2025-06-12 13:32:34.252800,599617459996775733,-112.00
2025-06-12 13:32:34.252800,599617459996775733,-114.00
2025-06-12 13:32:34.252800,599617459996775733,-112.00
2025-06-12 13:32:34.252800,599617459996775733,-107.00
2025-06-12 13:32:34.252800,599617459996775733,-99.00
2025-06-12 13:32:34.252800,599617459996775733,-95.00
2025-06-12 13:32:34.252800,599617459996775733,-95.00
2025-06-12 13:32:34.252800,599617459996775733,-95.00
2025-06-12 13:32:34.252800,599617459996775733,-90.00
2025-06-12 13:32:34.252800,599617459996775733,-87.00
2025-06-12 13:32:34.252800,599617459996775733,-87.00
2025-06-12 13:32:34.252800,599617459996775733,-87.00
2025-06-12 13:32:34.252800,599617459996775733,-82.00
2025-06-12 13:32:34.252800,599617459996775733,-80.00
2025-06-12 13:32:34.252800,599617459996775733,-82.00
2025-06-12 13:32:34.252800,599617459996775733,-82.00
2025-06-12 13:32:34.252800,599617459996775733,-77.00
2025-06-12 13:32:34.252800,599617459996775733,-73.00
2025-06-12 13:32:34.252800,599617459996775733,-70.00
2025-06-12 13:32:34.252800,599617459996775733,-77.00
2025-06-12 13:32:34.252800,599617459996775733,-80.00
2025-06-12 13:32:34.252800,599617459996775733,-77.00
2025-06-12 13:32:34.252800,599617459996775733,-77.00
2025-06-12 13:32:34.252800,599617459996775733,-73.00
2025-06-12 13:32:34.252800,599617459996775733,-60.00
2025-06-12 13:32:34.252800,599617459996775733,-48.00
2025-06-12 13:32:34.252800,599617459996775733,-38.00
2025-06-12 13:32:34.252800,599617459996775733,-36.00
2025-06-12 13:32:34.252800,599617459996775733,-51.00
2025-06-12 13:32:34.252800,599617459996775733,-70.00
2025-06-12 13:32:34.252800,599617459996775733,-73.00
2025-06-12 13:32:34.252800,599617459996775733,-65.00
2025-06-12 13:32:34.252800,599617459996775733,-60.00
2025-06-12 13:32:34.252800,599617459996775733,-63.00
2025-06-12 13:32:34.252800,599617459996775733,-60.00
2025-06-12 13:32:34.252800,599617459996775733,-58.00
2025-06-12 13:32:34.252800,599617459996775733,-56.00
2025-06-12 13:32:34.252800,599617459996775733,-75.00
2025-06-12 13:32:34.252800,599617459996775733,-151.00
2025-06-12 13:32:34.252800,599617459996775733,-182.00
2025-06-12 13:32:34.252800,599617459996775733,160.00
2025-06-12 13:32:34.252800,599617459996775733,948.00
2025-06-12 13:32:34.252800,599617459996775733,1379.00
2025-06-12 13:32:34.252800,599617459996775733,570.00
2025-06-12 13:32:34.252800,599617459996775733,-614.00
2025-06-12 13:32:34.252800,599617459996775733,-660.00
2025-06-12 13:32:34.252800,599617459996775733,-124.00
2025-06-12 13:32:34.252800,599617459996775733,-60.00
2025-06-12 13:32:34.252800,599617459996775733,-104.00
2025-06-12 13:32:34.252800,599617459996775733,26.00
2025-06-12 13:32:34.252800,599617459996775733,36.00
2025-06-12 13:32:34.252800,599617459996775733,-14.00
2025-06-12 13:32:34.252800,599617459996775733,24.00
2025-06-12 13:32:34.252800,599617459996775733,51.00
2025-06-12 13:32:34.252800,599617459996775733,38.00
2025-06-12 13:32:34.252800,599617459996775733,51.00
2025-06-12 13:32:34.252800,599617459996775733,75.00
2025-06-12 13:32:34.252800,599617459996775733,80.00
2025-06-12 13:32:34.252800,599617459996775733,85.00
2025-06-12 13:32:34.732390,599617460557503292,104.00
2025-06-12 13:32:34.732390,599617460557503292,121.00
2025-06-12 13:32:34.732390,599617460557503292,136.00
2025-06-12 13:32:34.732390,599617460557503292,163.00
2025-06-12 13:32:34.732390,599617460557503292,194.00
2025-06-12 13:32:34.732390,599617460557503292,226.00
2025-06-12 13:32:34.732390,599617460557503292,260.00
2025-06-12 13:32:34.732390,599617460557503292,302.00
2025-06-12 13:32:34.732390,599617460557503292,350.00
2025-06-12 13:32:34.732390,599617460557503292,399.00
2025-06-12 13:32:34.732390,599617460557503292,438.00
2025-06-12 13:32:34.732390,599617460557503292,465.00
2025-06-12 13:32:34.732390,599617460557503292,475.00
2025-06-12 13:32:34.732390,599617460557503292,453.00
2025-06-12 13:32:34.732390,599617460557503292,385.00
2025-06-12 13:32:34.732390,599617460557503292,265.00
2025-06-12 13:32:34.732390,599617460557503292,121.00
2025-06-12 13:32:34.732390,599617460557503292,-7.00
2025-06-12 13:32:34.732390,599617460557503292,-116.00
2025-06-12 13:32:34.732390,599617460557503292,-204.00
2025-06-12 13:32:34.732390,599617460557503292,-258.00
2025-06-12 13:32:34.732390,599617460557503292,-280.00
2025-06-12 13:32:34.732390,599617460557503292,-290.00
2025-06-12 13:32:34.732390,599617460557503292,-290.00
2025-06-12 13:32:34.732390,599617460557503292,-287.00
2025-06-12 13:32:34.732390,599617460557503292,-285.00
2025-06-12 13:32:34.732390,599617460557503292,-277.00
2025-06-12 13:32:34.732390,599617460557503292,-265.00
2025-06-12 13:32:34.732390,599617460557503292,-253.00
2025-06-12 13:32:34.732390,599617460557503292,-243.00
2025-06-12 13:32:34.732390,599617460557503292,-233.00
2025-06-12 13:32:34.732390,599617460557503292,-219.00
2025-06-12 13:32:34.732390,599617460557503292,-212.00
2025-06-12 13:32:34.732390,599617460557503292,-209.00
2025-06-12 13:32:34.732390,599617460557503292,-199.00
2025-06-12 13:32:34.732390,599617460557503292,-192.00
2025-06-12 13:32:34.732390,599617460557503292,-187.00
2025-06-12 13:32:34.732390,599617460557503292,-180.00
2025-06-12 13:32:34.732390,599617460557503292,-173.00
2025-06-12 13:32:34.732390,599617460557503292,-168.00
2025-06-12 13:32:34.732390,599617460557503292,-160.00
2025-06-12 13:32:34.732390,599617460557503292,-148.00
2025-06-12 13:32:34.732390,599617460557503292,-146.00
2025-06-12 13:32:34.732390,599617460557503292,-148.00
2025-06-12 13:32:34.732390,599617460557503292,-146.00
2025-06-12 13:32:34.732390,599617460557503292,-143.00
2025-06-12 13:32:34.732390,599617460557503292,-141.00
2025-06-12 13:32:34.732390,599617460557503292,-136.00
2025-06-12 13:32:34.732390,599617460557503292,-126.00
2025-06-12 13:32:34.732390,599617460557503292,-124.00
2025-06-12 13:32:34.732390,599617460557503292,-124.00
2025-06-12 13:32:34.732390,599617460557503292,-116.00
2025-06-12 13:32:34.732390,599617460557503292,-116.00
2025-06-12 13:32:34.732390,599617460557503292,-121.00
2025-06-12 13:32:34.732390,599617460557503292,-121.00
2025-06-12 13:32:34.732390,599617460557503292,-112.00
2025-06-12 13:32:34.732390,599617460557503292,-112.00
2025-06-12 13:32:34.732390,599617460557503292,-109.00
2025-06-12 13:32:34.732390,599617460557503292,-99.00
2025-06-12 13:32:34.732390,599617460557503292,-95.00
2025-06-12 13:32:34.732390,599617460557503292,-104.00
2025-06-12 13:32:34.732390,599617460557503292,-112.00
2025-06-12 13:32:34.732390,599617460557503292,-102.00
2025-06-12 13:32:34.732390,599617460557503292,-95.00
2025-06-12 13:32:34.732390,599617460557503292,-95.00
2025-06-12 13:32:34.732390,599617460557503292,-90.00
2025-06-12 13:32:34.732390,599617460557503292,-82.00
2025-06-12 13:32:34.732390,599617460557503292,-85.00
2025-06-12 13:32:34.732390,599617460557503292,-85.00
2025-06-12 13:32:34.732390,599617460557503292,-85.00
2025-06-12 13:32:34.732390,599617460557503292,-87.00
2025-06-12 13:32:34.732390,599617460557503292,-90.00
2025-06-12 13:32:34.732390,599617460557503292,-85.00
2025-06-12 13:32:35.302343,599617461118230851,-80.00
2025-06-12 13:32:35.302343,599617461118230851,-75.00
2025-06-12 13:32:35.302343,599617461118230851,-75.00
2025-06-12 13:32:35.302343,599617461118230851,-75.00
2025-06-12 13:32:35.302343,599617461118230851,-75.00
2025-06-12 13:32:35.302343,599617461118230851,-80.00
2025-06-12 13:32:35.302343,599617461118230851,-75.00
2025-06-12 13:32:35.302343,599617461118230851,-56.00
2025-06-12 13:32:35.302343,599617461118230851,-43.00
2025-06-12 13:32:35.302343,599617461118230851,-41.00
2025-06-12 13:32:35.302343,599617461118230851,-43.00
2025-06-12 13:32:35.302343,599617461118230851,-51.00
2025-06-12 13:32:35.302343,599617461118230851,-63.00
2025-06-12 13:32:35.302343,599617461118230851,-70.00
2025-06-12 13:32:35.302343,599617461118230851,-68.00
2025-06-12 13:32:35.302343,599617461118230851,-65.00
2025-06-12 13:32:35.302343,599617461118230851,-68.00
2025-06-12 13:32:35.302343,599617461118230851,-63.00
2025-06-12 13:32:35.302343,599617461118230851,-58.00
2025-06-12 13:32:35.302343,599617461118230851,-70.00
2025-06-12 13:32:35.302343,599617461118230851,-80.00
2025-06-12 13:32:35.302343,599617461118230851,-112.00
2025-06-12 13:32:35.302343,599617461118230851,-177.00
2025-06-12 13:32:35.302343,599617461118230851,-34.00
2025-06-12 13:32:35.302343,599617461118230851,602.00
2025-06-12 13:32:35.302343,599617461118230851,1294.00
2025-06-12 13:32:35.302343,599617461118230851,972.00
2025-06-12 13:32:35.302343,599617461118230851,-270.00
2025-06-12 13:32:35.302343,599617461118230851,-809.00
2025-06-12 13:32:35.302343,599617461118230851,-326.00
2025-06-12 13:32:35.302343,599617461118230851,-60.00
2025-06-12 13:32:35.302343,599617461118230851,-146.00
2025-06-12 13:32:35.302343,599617461118230851,-36.00
2025-06-12 13:32:35.302343,599617461118230851,56.00
2025-06-12 13:32:35.302343,599617461118230851,-7.00
2025-06-12 13:32:35.302343,599617461118230851,-2.00
2025-06-12 13:32:35.302343,599617461118230851,48.00
2025-06-12 13:32:35.302343,599617461118230851,41.00
2025-06-12 13:32:35.302343,599617461118230851,38.00
2025-06-12 13:32:35.302343,599617461118230851,58.00
2025-06-12 13:32:35.302343,599617461118230851,77.00
2025-06-12 13:32:35.302343,599617461118230851,90.00
2025-06-12 13:32:35.302343,599617461118230851,99.00
2025-06-12 13:32:35.302343,599617461118230851,116.00
2025-06-12 13:32:35.302343,599617461118230851,141.00
2025-06-12 13:32:35.302343,599617461118230851,163.00
2025-06-12 13:32:35.302343,599617461118230851,187.00
2025-06-12 13:32:35.302343,599617461118230851,214.00
2025-06-12 13:32:35.302343,599617461118230851,251.00
2025-06-12 13:32:35.302343,599617461118230851,299.00
2025-06-12 13:32:35.302343,599617461118230851,341.00
2025-06-12 13:32:35.302343,599617461118230851,385.00
2025-06-12 13:32:35.302343,599617461118230851,428.00
2025-06-12 13:32:35.302343,599617461118230851,465.00
2025-06-12 13:32:35.302343,599617461118230851,480.00
2025-06-12 13:32:35.302343,599617461118230851,467.00
2025-06-12 13:32:35.302343,599617461118230851,407.00
2025-06-12 13:32:35.302343,599617461118230851,292.00
2025-06-12 13:32:35.302343,599617461118230851,158.00
2025-06-12 13:32:35.302343,599617461118230851,29.00
2025-06-12 13:32:35.302343,599617461118230851,-92.00
2025-06-12 13:32:35.302343,599617461118230851,-204.00
2025-06-12 13:32:35.302343,599617461118230851,-280.00
2025-06-12 13:32:35.302343,599617461118230851,-304.00
2025-06-12 13:32:35.302343,599617461118230851,-297.00
2025-06-12 13:32:35.302343,599617461118230851,-294.00
2025-06-12 13:32:35.302343,599617461118230851,-309.00
2025-06-12 13:32:35.302343,599617461118230851,-307.00
2025-06-12 13:32:35.302343,599617461118230851,-260.00
2025-06-12 13:32:35.302343,599617461118230851,-243.00
2025-06-12 13:32:35.302343,599617461118230851,-302.00
2025-06-12 13:32:35.302343,599617461118230851,-304.00
2025-06-12 13:32:35.302343,599617461118230851,-238.00
2025-06-12 13:32:35.843635,599617461678958410,-243.00
2025-06-12 13:32:35.843635,599617461678958410,-280.00
2025-06-12 13:32:35.843635,599617461678958410,-246.00
2025-06-12 13:32:35.843635,599617461678958410,-197.00
2025-06-12 13:32:35.843635,599617461678958410,-190.00
2025-06-12 13:32:35.843635,599617461678958410,-187.00
2025-06-12 13:32:35.843635,599617461678958410,-170.00
2025-06-12 13:32:35.843635,599617461678958410,-204.00
2025-06-12 13:32:35.843635,599617461678958410,-248.00
2025-06-12 13:32:35.843635,599617461678958410,-192.00
2025-06-12 13:32:35.843635,599617461678958410,-136.00
2025-06-12 13:32:35.843635,599617461678958410,-160.00
2025-06-12 13:32:35.843635,599617461678958410,-160.00
2025-06-12 13:32:35.843635,599617461678958410,-134.00
2025-06-12 13:32:35.843635,599617461678958410,-148.00
2025-06-12 13:32:35.843635,599617461678958410,-180.00
2025-06-12 13:32:35.843635,599617461678958410,-180.00
2025-06-12 13:32:35.843635,599617461678958410,-148.00
2025-06-12 13:32:35.843635,599617461678958410,-129.00
2025-06-12 13:32:35.843635,599617461678958410,-129.00
2025-06-12 13:32:35.843635,599617461678958410,-138.00
2025-06-12 13:32:35.843635,599617461678958410,-148.00
2025-06-12 13:32:35.843635,599617461678958410,-153.00
2025-06-12 13:32:35.843635,599617461678958410,-138.00
2025-06-12 13:32:35.843635,599617461678958410,-116.00
2025-06-12 13:32:35.843635,599617461678958410,-95.00
2025-06-12 13:32:35.843635,599617461678958410,-77.00
2025-06-12 13:32:35.843635,599617461678958410,-99.00
2025-06-12 13:32:35.843635,599617461678958410,-153.00
2025-06-12 13:32:35.843635,599617461678958410,-158.00
2025-06-12 13:32:35.843635,599617461678958410,-119.00
2025-06-12 13:32:35.843635,599617461678958410,-116.00
2025-06-12 13:32:35.843635,599617461678958410,-138.00
2025-06-12 13:32:35.843635,599617461678958410,-134.00
2025-06-12 13:32:35.843635,599617461678958410,-99.00
2025-06-12 13:32:35.843635,599617461678958410,-85.00
2025-06-12 13:32:35.843635,599617461678958410,-124.00
2025-06-12 13:32:35.843635,599617461678958410,-109.00
2025-06-12 13:32:35.843635,599617461678958410,-34.00
2025-06-12 13:32:35.843635,599617461678958410,-68.00
2025-06-12 13:32:35.843635,599617461678958410,-126.00
2025-06-12 13:32:35.843635,599617461678958410,-73.00
2025-06-12 13:32:35.843635,599617461678958410,-36.00
2025-06-12 13:32:35.843635,599617461678958410,-90.00
2025-06-12 13:32:35.843635,599617461678958410,-146.00
2025-06-12 13:32:35.843635,599617461678958410,-136.00
2025-06-12 13:32:35.843635,599617461678958410,-87.00
2025-06-12 13:32:35.843635,599617461678958410,-63.00
2025-06-12 13:32:35.843635,599617461678958410,-70.00
2025-06-12 13:32:35.843635,599617461678958410,-68.00
2025-06-12 13:32:35.843635,599617461678958410,-104.00
2025-06-12 13:32:35.843635,599617461678958410,-194.00
2025-06-12 13:32:35.843635,599617461678958410,-97.00
2025-06-12 13:32:35.843635,599617461678958410,482.00
2025-06-12 13:32:35.843635,599617461678958410,1199.00
2025-06-12 13:32:35.843635,599617461678958410,1016.00
2025-06-12 13:32:35.843635,599617461678958410,-160.00
2025-06-12 13:32:35.843635,599617461678958410,-818.00
2025-06-12 13:32:35.843635,599617461678958410,-407.00
2025-06-12 13:32:35.843635,599617461678958410,-73.00
2025-06-12 13:32:35.843635,599617461678958410,-146.00
2025-06-12 13:32:35.843635,599617461678958410,-48.00
2025-06-12 13:32:35.843635,599617461678958410,102.00
2025-06-12 13:32:35.843635,599617461678958410,21.00
2025-06-12 13:32:35.843635,599617461678958410,-65.00
2025-06-12 13:32:35.843635,599617461678958410,-2.00
2025-06-12 13:32:35.843635,599617461678958410,75.00
2025-06-12 13:32:35.843635,599617461678958410,85.00
2025-06-12 13:32:35.843635,599617461678958410,38.00
2025-06-12 13:32:35.843635,599617461678958410,24.00
2025-06-12 13:32:35.843635,599617461678958410,85.00
2025-06-12 13:32:35.843635,599617461678958410,104.00
2025-06-12 13:32:35.843635,599617461678958410,90.00
2025-06-12 13:32:36.472158,599617462239685971,141.00
2025-06-12 13:32:36.472158,599617462239685971,192.00
2025-06-12 13:32:36.472158,599617462239685971,182.00
2025-06-12 13:32:36.472158,599617462239685971,187.00
2025-06-12 13:32:36.472158,599617462239685971,229.00
2025-06-12 13:32:36.472158,599617462239685971,265.00
2025-06-12 13:32:36.472158,599617462239685971,331.00
2025-06-12 13:32:36.472158,599617462239685971,424.00
2025-06-12 13:32:36.472158,599617462239685971,448.00
2025-06-12 13:32:36.472158,599617462239685971,438.00
2025-06-12 13:32:36.472158,599617462239685971,485.00
2025-06-12 13:32:36.472158,599617462239685971,485.00
2025-06-12 13:32:36.472158,599617462239685971,355.00
2025-06-12 13:32:36.472158,599617462239685971,231.00
2025-06-12 13:32:36.472158,599617462239685971,141.00
2025-06-12 13:32:36.472158,599617462239685971,-4.00
2025-06-12 13:32:36.472158,599617462239685971,-146.00
2025-06-12 13:32:36.472158,599617462239685971,-216.00
2025-06-12 13:32:36.472158,599617462239685971,-229.00
2025-06-12 13:32:36.472158,599617462239685971,-216.00
2025-06-12 13:32:36.472158,599617462239685971,-243.00
2025-06-12 13:32:36.472158,599617462239685971,-270.00
2025-06-12 13:32:36.472158,599617462239685971,-290.00
2025-06-12 13:32:36.472158,599617462239685971,-326.00
2025-06-12 13:32:36.472158,599617462239685971,-304.00
2025-06-12 13:32:36.472158,599617462239685971,-260.00
2025-06-12 13:32:36.472158,599617462239685971,-268.00
2025-06-12 13:32:36.472158,599617462239685971,-270.00
2025-06-12 13:32:36.472158,599617462239685971,-255.00
2025-06-12 13:32:36.472158,599617462239685971,-229.00
2025-06-12 13:32:36.472158,599617462239685971,-207.00
2025-06-12 13:32:36.472158,599617462239685971,-209.00
2025-06-12 13:32:36.472158,599617462239685971,-182.00
2025-06-12 13:32:36.472158,599617462239685971,-153.00
2025-06-12 13:32:36.472158,599617462239685971,-207.00
2025-06-12 13:32:36.472158,599617462239685971,-226.00
2025-06-12 13:32:36.472158,599617462239685971,-151.00
2025-06-12 13:32:36.472158,599617462239685971,-163.00
2025-06-12 13:32:36.472158,599617462239685971,-243.00
2025-06-12 13:32:36.472158,599617462239685971,-192.00
2025-06-12 13:32:36.472158,599617462239685971,-112.00
2025-06-12 13:32:36.472158,599617462239685971,-138.00
2025-06-12 13:32:36.472158,599617462239685971,-170.00
2025-06-12 13:32:36.472158,599617462239685971,-143.00
2025-06-12 13:32:36.472158,599617462239685971,-107.00
2025-06-12 13:32:36.472158,599617462239685971,-129.00
2025-06-12 13:32:36.472158,599617462239685971,-175.00
2025-06-12 13:32:36.472158,599617462239685971,-160.00
2025-06-12 13:32:36.472158,599617462239685971,-138.00
2025-06-12 13:32:36.472158,599617462239685971,-160.00
2025-06-12 13:32:36.472158,599617462239685971,-158.00
2025-06-12 13:32:36.472158,599617462239685971,-109.00
2025-06-12 13:32:36.472158,599617462239685971,-95.00
2025-06-12 13:32:36.472158,599617462239685971,-119.00
2025-06-12 13:32:36.472158,599617462239685971,-124.00
2025-06-12 13:32:36.472158,599617462239685971,-148.00
2025-06-12 13:32:36.472158,599617462239685971,-165.00
2025-06-12 13:32:36.472158,599617462239685971,-107.00
2025-06-12 13:32:36.472158,599617462239685971,-92.00
2025-06-12 13:32:36.472158,599617462239685971,-173.00
2025-06-12 13:32:36.472158,599617462239685971,-163.00
2025-06-12 13:32:36.472158,599617462239685971,-63.00
2025-06-12 13:32:36.472158,599617462239685971,-26.00
2025-06-12 13:32:36.472158,599617462239685971,-56.00
2025-06-12 13:32:36.472158,599617462239685971,-121.00
2025-06-12 13:32:36.472158,599617462239685971,-182.00
2025-06-12 13:32:36.472158,599617462239685971,-168.00
2025-06-12 13:32:36.472158,599617462239685971,-97.00
2025-06-12 13:32:36.472158,599617462239685971,-65.00
2025-06-12 13:32:36.472158,599617462239685971,-80.00
2025-06-12 13:32:36.472158,599617462239685971,-99.00
2025-06-12 13:32:36.472158,599617462239685971,-141.00
2025-06-12 13:32:36.472158,599617462239685971,-134.00
2025-06-12 13:32:36.986981,599617462800413530,-95.00
2025-06-12 13:32:36.986981,599617462800413530,-207.00
2025-06-12 13:32:36.986981,599617462800413530,-319.00
2025-06-12 13:32:36.986981,599617462800413530,9.00
2025-06-12 13:32:36.986981,599617462800413530,789.00
2025-06-12 13:32:36.986981,599617462800413530,1316.00
2025-06-12 13:32:36.986981,599617462800413530,733.00
2025-06-12 13:32:36.986981,599617462800413530,-494.00
2025-06-12 13:32:36.986981,599617462800413530,-828.00
2025-06-12 13:32:36.986981,599617462800413530,-319.00
2025-06-12 13:32:36.986981,599617462800413530,-141.00
2025-06-12 13:32:36.986981,599617462800413530,-148.00
2025-06-12 13:32:36.986981,599617462800413530,17.00
2025-06-12 13:32:36.986981,599617462800413530,-7.00
2025-06-12 13:32:36.986981,599617462800413530,-95.00
2025-06-12 13:32:36.986981,599617462800413530,36.00
2025-06-12 13:32:36.986981,599617462800413530,95.00
2025-06-12 13:32:36.986981,599617462800413530,-34.00
2025-06-12 13:32:36.986981,599617462800413530,-51.00
2025-06-12 13:32:36.986981,599617462800413530,77.00
2025-06-12 13:32:36.986981,599617462800413530,82.00
2025-06-12 13:32:36.986981,599617462800413530,-29.00
2025-06-12 13:32:36.986981,599617462800413530,-19.00
2025-06-12 13:32:36.986981,599617462800413530,134.00
2025-06-12 13:32:36.986981,599617462800413530,214.00
2025-06-12 13:32:36.986981,599617462800413530,146.00
2025-06-12 13:32:36.986981,599617462800413530,134.00
2025-06-12 13:32:36.986981,599617462800413530,216.00
2025-06-12 13:32:36.986981,599617462800413530,251.00
2025-06-12 13:32:36.986981,599617462800413530,248.00
2025-06-12 13:32:36.986981,599617462800413530,272.00
2025-06-12 13:32:36.986981,599617462800413530,358.00
2025-06-12 13:32:36.986981,599617462800413530,482.00
2025-06-12 13:32:36.986981,599617462800413530,497.00
2025-06-12 13:32:36.986981,599617462800413530,414.00
2025-06-12 13:32:36.986981,599617462800413530,394.00
2025-06-12 13:32:36.986981,599617462800413530,375.00
2025-06-12 13:32:36.986981,599617462800413530,216.00
2025-06-12 13:32:36.986981,599617462800413530,29.00
2025-06-12 13:32:36.986981,599617462800413530,-82.00
2025-06-12 13:32:36.986981,599617462800413530,-175.00
2025-06-12 13:32:36.986981,599617462800413530,-255.00
2025-06-12 13:32:36.986981,599617462800413530,-292.00
2025-06-12 13:32:36.986981,599617462800413530,-321.00
2025-06-12 13:32:36.986981,599617462800413530,-341.00
2025-06-12 13:32:36.986981,599617462800413530,-336.00
2025-06-12 13:32:36.986981,599617462800413530,-341.00
2025-06-12 13:32:36.986981,599617462800413530,-341.00
2025-06-12 13:32:36.986981,599617462800413530,-294.00
2025-06-12 13:32:36.986981,599617462800413530,-246.00
2025-06-12 13:32:36.986981,599617462800413530,-263.00
2025-06-12 13:32:36.986981,599617462800413530,-277.00
2025-06-12 13:32:36.986981,599617462800413530,-246.00
2025-06-12 13:32:36.986981,599617462800413530,-236.00
2025-06-12 13:32:36.986981,599617462800413530,-251.00
2025-06-12 13:32:36.986981,599617462800413530,-238.00
2025-06-12 13:32:36.986981,599617462800413530,-216.00
2025-06-12 13:32:36.986981,599617462800413530,-219.00
2025-06-12 13:32:36.986981,599617462800413530,-221.00
2025-06-12 13:32:36.986981,599617462800413530,-212.00
2025-06-12 13:32:36.986981,599617462800413530,-214.00
2025-06-12 13:32:36.986981,599617462800413530,-202.00
2025-06-12 13:32:36.986981,599617462800413530,-165.00
2025-06-12 13:32:36.986981,599617462800413530,-158.00
2025-06-12 13:32:36.986981,599617462800413530,-180.00
2025-06-12 13:32:36.986981,599617462800413530,-177.00
2025-06-12 13:32:36.986981,599617462800413530,-165.00
2025-06-12 13:32:36.986981,599617462800413530,-160.00
2025-06-12 13:32:36.986981,599617462800413530,-160.00
2025-06-12 13:32:36.986981,599617462800413530,-163.00
2025-06-12 13:32:36.986981,599617462800413530,-153.00
2025-06-12 13:32:36.986981,599617462800413530,-146.00
2025-06-12 13:32:36.986981,599617462800413530,-155.00
2025-06-12 13:32:37.555006,599617463361141089,-151.00
2025-06-12 13:32:37.555006,599617463361141089,-138.00
2025-06-12 13:32:37.555006,599617463361141089,-146.00
2025-06-12 13:32:37.555006,599617463361141089,-163.00
2025-06-12 13:32:37.555006,599617463361141089,-155.00
2025-06-12 13:32:37.555006,599617463361141089,-129.00
2025-06-12 13:32:37.555006,599617463361141089,-134.00
2025-06-12 13:32:37.555006,599617463361141089,-136.00
2025-06-12 13:32:37.555006,599617463361141089,-95.00
2025-06-12 13:32:37.555006,599617463361141089,-107.00
2025-06-12 13:32:37.555006,599617463361141089,-165.00
2025-06-12 13:32:37.555006,599617463361141089,-160.00
2025-06-12 13:32:37.555006,599617463361141089,-121.00
2025-06-12 13:32:37.555006,599617463361141089,-141.00
2025-06-12 13:32:37.555006,599617463361141089,-168.00
2025-06-12 13:32:37.555006,599617463361141089,-112.00
2025-06-12 13:32:37.555006,599617463361141089,-65.00
2025-06-12 13:32:37.555006,599617463361141089,-121.00
2025-06-12 13:32:37.555006,599617463361141089,-194.00
2025-06-12 13:32:37.555006,599617463361141089,-214.00
2025-06-12 13:32:37.555006,599617463361141089,-46.00
2025-06-12 13:32:37.555006,599617463361141089,563.00
2025-06-12 13:32:37.555006,599617463361141089,1223.00
2025-06-12 13:32:37.555006,599617463361141089,875.00
2025-06-12 13:32:37.555006,599617463361141089,-380.00
2025-06-12 13:32:37.555006,599617463361141089,-928.00
2025-06-12 13:32:37.555006,599617463361141089,-404.00
2025-06-12 13:32:37.555006,599617463361141089,-56.00
2025-06-12 13:32:37.555006,599617463361141089,-138.00
2025-06-12 13:32:37.555006,599617463361141089,-82.00
2025-06-12 13:32:37.555006,599617463361141089,17.00
2025-06-12 13:32:37.555006,599617463361141089,-21.00
2025-06-12 13:32:37.555006,599617463361141089,-26.00
2025-06-12 13:32:37.555006,599617463361141089,14.00
2025-06-12 13:32:37.555006,599617463361141089,24.00
2025-06-12 13:32:37.555006,599617463361141089,24.00
2025-06-12 13:32:37.555006,599617463361141089,34.00
2025-06-12 13:32:37.555006,599617463361141089,68.00
2025-06-12 13:32:37.555006,599617463361141089,109.00
2025-06-12 13:32:37.555006,599617463361141089,114.00
2025-06-12 13:32:37.555006,599617463361141089,107.00
2025-06-12 13:32:37.555006,599617463361141089,134.00
2025-06-12 13:32:37.555006,599617463361141089,168.00
2025-06-12 13:32:37.555006,599617463361141089,187.00
2025-06-12 13:32:37.555006,599617463361141089,204.00
2025-06-12 13:32:37.555006,599617463361141089,224.00
2025-06-12 13:32:37.555006,599617463361141089,275.00
2025-06-12 13:32:37.555006,599617463361141089,368.00
2025-06-12 13:32:37.555006,599617463361141089,431.00
2025-06-12 13:32:37.555006,599617463361141089,433.00
2025-06-12 13:32:37.555006,599617463361141089,453.00
2025-06-12 13:32:37.555006,599617463361141089,465.00
2025-06-12 13:32:37.555006,599617463361141089,407.00
2025-06-12 13:32:37.555006,599617463361141089,309.00
2025-06-12 13:32:37.555006,599617463361141089,192.00
2025-06-12 13:32:37.555006,599617463361141089,29.00
2025-06-12 13:32:37.555006,599617463361141089,-112.00
2025-06-12 13:32:37.555006,599617463361141089,-153.00
2025-06-12 13:32:37.555006,599617463361141089,-168.00
2025-06-12 13:32:37.555006,599617463361141089,-236.00
2025-06-12 13:32:37.555006,599617463361141089,-287.00
2025-06-12 13:32:37.555006,599617463361141089,-280.00
2025-06-12 13:32:37.555006,599617463361141089,-280.00
2025-06-12 13:32:37.555006,599617463361141089,-292.00
2025-06-12 13:32:37.555006,599617463361141089,-280.00
2025-06-12 13:32:37.555006,599617463361141089,-258.00
2025-06-12 13:32:37.555006,599617463361141089,-251.00
2025-06-12 13:32:37.555006,599617463361141089,-246.00
2025-06-12 13:32:37.555006,599617463361141089,-243.00
2025-06-12 13:32:37.555006,599617463361141089,-246.00
2025-06-12 13:32:37.555006,599617463361141089,-236.00
2025-06-12 13:32:37.555006,599617463361141089,-209.00
2025-06-12 13:32:37.555006,599617463361141089,-187.00
2025-06-12 13:32:38.125690,599617463921838130,-187.00
2025-06-12 13:32:38.125690,599617463921838130,-190.00
2025-06-12 13:32:38.125690,599617463921838130,-180.00
2025-06-12 13:32:38.125690,599617463921838130,-170.00
2025-06-12 13:32:38.125690,599617463921838130,-168.00
2025-06-12 13:32:38.125690,599617463921838130,-158.00
2025-06-12 13:32:38.125690,599617463921838130,-146.00
2025-06-12 13:32:38.125690,599617463921838130,-141.00
2025-06-12 13:32:38.125690,599617463921838130,-138.00
2025-06-12 13:32:38.125690,599617463921838130,-134.00
2025-06-12 13:32:38.125690,599617463921838130,-131.00
2025-06-12 13:32:38.125690,599617463921838130,-131.00
2025-06-12 13:32:38.125690,599617463921838130,-131.00
2025-06-12 13:32:38.125690,599617463921838130,-126.00
2025-06-12 13:32:38.125690,599617463921838130,-114.00
2025-06-12 13:32:38.125690,599617463921838130,-114.00
2025-06-12 13:32:38.125690,599617463921838130,-131.00
2025-06-12 13:32:38.125690,599617463921838130,-134.00
2025-06-12 13:32:38.125690,599617463921838130,-114.00
2025-06-12 13:32:38.125690,599617463921838130,-104.00
2025-06-12 13:32:38.125690,599617463921838130,-109.00
2025-06-12 13:32:38.125690,599617463921838130,-99.00
2025-06-12 13:32:38.125690,599617463921838130,-80.00
2025-06-12 13:32:38.125690,599617463921838130,-70.00
2025-06-12 13:32:38.125690,599617463921838130,-80.00
2025-06-12 13:32:38.125690,599617463921838130,-95.00
2025-06-12 13:32:38.125690,599617463921838130,-97.00
2025-06-12 13:32:38.125690,599617463921838130,-97.00
2025-06-12 13:32:38.125690,599617463921838130,-102.00
2025-06-12 13:32:38.125690,599617463921838130,-97.00
2025-06-12 13:32:38.125690,599617463921838130,-92.00
2025-06-12 13:32:38.125690,599617463921838130,-90.00
2025-06-12 13:32:38.125690,599617463921838130,-85.00
2025-06-12 13:32:38.125690,599617463921838130,-85.00
2025-06-12 13:32:38.125690,599617463921838130,-104.00
2025-06-12 13:32:38.125690,599617463921838130,-168.00
2025-06-12 13:32:38.125690,599617463921838130,-197.00
2025-06-12 13:32:38.125690,599617463921838130,114.00
2025-06-12 13:32:38.125690,599617463921838130,860.00
2025-06-12 13:32:38.125690,599617463921838130,1291.00
2025-06-12 13:32:38.125690,599617463921838130,531.00
2025-06-12 13:32:38.125690,599617463921838130,-653.00
2025-06-12 13:32:38.125690,599617463921838130,-760.00
2025-06-12 13:32:38.125690,599617463921838130,-214.00
2025-06-12 13:32:38.125690,599617463921838130,-114.00
2025-06-12 13:32:38.125690,599617463921838130,-158.00
2025-06-12 13:32:38.125690,599617463921838130,-2.00
2025-06-12 13:32:38.125690,599617463921838130,36.00
2025-06-12 13:32:38.125690,599617463921838130,-26.00
2025-06-12 13:32:38.125690,599617463921838130,4.00
2025-06-12 13:32:38.125690,599617463921838130,38.00
2025-06-12 13:32:38.125690,599617463921838130,29.00
2025-06-12 13:32:38.125690,599617463921838130,43.00
2025-06-12 13:32:38.125690,599617463921838130,56.00
2025-06-12 13:32:38.125690,599617463921838130,56.00
2025-06-12 13:32:38.125690,599617463921838130,80.00
2025-06-12 13:32:38.125690,599617463921838130,107.00
2025-06-12 13:32:38.125690,599617463921838130,112.00
2025-06-12 13:32:38.125690,599617463921838130,124.00
2025-06-12 13:32:38.125690,599617463921838130,146.00
2025-06-12 13:32:38.125690,599617463921838130,175.00
2025-06-12 13:32:38.125690,599617463921838130,219.00
2025-06-12 13:32:38.125690,599617463921838130,263.00
2025-06-12 13:32:38.125690,599617463921838130,297.00
2025-06-12 13:32:38.125690,599617463921838130,343.00
2025-06-12 13:32:38.125690,599617463921838130,389.00
2025-06-12 13:32:38.125690,599617463921838130,414.00
2025-06-12 13:32:38.125690,599617463921838130,419.00
2025-06-12 13:32:38.125690,599617463921838130,409.00
2025-06-12 13:32:38.125690,599617463921838130,360.00
2025-06-12 13:32:38.125690,599617463921838130,258.00
2025-06-12 13:32:38.125690,599617463921838130,119.00
2025-06-12 13:32:38.125690,599617463921838130,-21.00
2025-06-12 13:32:38.664508,599617464482565689,-136.00
2025-06-12 13:32:38.664508,599617464482565689,-209.00
2025-06-12 13:32:38.664508,599617464482565689,-258.00
2025-06-12 13:32:38.664508,599617464482565689,-304.00
2025-06-12 13:32:38.664508,599617464482565689,-343.00
2025-06-12 13:32:38.664508,599617464482565689,-336.00
2025-06-12 13:32:38.664508,599617464482565689,-304.00
2025-06-12 13:32:38.664508,599617464482565689,-307.00
2025-06-12 13:32:38.664508,599617464482565689,-292.00
2025-06-12 13:32:38.664508,599617464482565689,-236.00
2025-06-12 13:32:38.664508,599617464482565689,-238.00
2025-06-12 13:32:38.664508,599617464482565689,-285.00
2025-06-12 13:32:38.664508,599617464482565689,-268.00
2025-06-12 13:32:38.664508,599617464482565689,-226.00
2025-06-12 13:32:38.664508,599617464482565689,-216.00
2025-06-12 13:32:38.664508,599617464482565689,-202.00
2025-06-12 13:32:38.664508,599617464482565689,-199.00
2025-06-12 13:32:38.664508,599617464482565689,-233.00
2025-06-12 13:32:38.664508,599617464482565689,-221.00
2025-06-12 13:32:38.664508,599617464482565689,-163.00
2025-06-12 13:32:38.664508,599617464482565689,-170.00
2025-06-12 13:32:38.664508,599617464482565689,-212.00
2025-06-12 13:32:38.664508,599617464482565689,-155.00
2025-06-12 13:32:38.664508,599617464482565689,-90.00
2025-06-12 13:32:38.664508,599617464482565689,-116.00
2025-06-12 13:32:38.664508,599617464482565689,-131.00
2025-06-12 13:32:38.664508,599617464482565689,-119.00
2025-06-12 13:32:38.664508,599617464482565689,-121.00
2025-06-12 13:32:38.664508,599617464482565689,-131.00
2025-06-12 13:32:38.664508,599617464482565689,-129.00
2025-06-12 13:32:38.664508,599617464482565689,-136.00
2025-06-12 13:32:38.664508,599617464482565689,-131.00
2025-06-12 13:32:38.664508,599617464482565689,-90.00
2025-06-12 13:32:38.664508,599617464482565689,-95.00
2025-06-12 13:32:38.664508,599617464482565689,-138.00
2025-06-12 13:32:38.664508,599617464482565689,-160.00
2025-06-12 13:32:38.664508,599617464482565689,-180.00
2025-06-12 13:32:38.664508,599617464482565689,-146.00
2025-06-12 13:32:38.664508,599617464482565689,-46.00
2025-06-12 13:32:38.664508,599617464482565689,2.00
2025-06-12 13:32:38.664508,599617464482565689,-60.00
2025-06-12 13:32:38.664508,599617464482565689,-143.00
2025-06-12 13:32:38.664508,599617464482565689,-126.00
2025-06-12 13:32:38.664508,599617464482565689,-34.00
2025-06-12 13:32:38.664508,599617464482565689,-14.00
2025-06-12 13:32:38.664508,599617464482565689,-77.00
2025-06-12 13:32:38.664508,599617464482565689,-95.00
2025-06-12 13:32:38.664508,599617464482565689,-9.00
2025-06-12 13:32:38.664508,599617464482565689,0.00
2025-06-12 13:32:38.664508,599617464482565689,-165.00
2025-06-12 13:32:38.664508,599617464482565689,-214.00
2025-06-12 13:32:38.664508,599617464482565689,-21.00
2025-06-12 13:32:38.664508,599617464482565689,19.00
2025-06-12 13:32:38.664508,599617464482565689,-131.00
2025-06-12 13:32:38.664508,599617464482565689,-102.00
2025-06-12 13:32:38.664508,599617464482565689,-9.00
2025-06-12 13:32:38.664508,599617464482565689,-134.00
2025-06-12 13:32:38.664508,599617464482565689,-119.00
2025-06-12 13:32:38.664508,599617464482565689,458.00
2025-06-12 13:32:38.664508,599617464482565689,1225.00
2025-06-12 13:32:38.664508,599617464482565689,1167.00
2025-06-12 13:32:38.664508,599617464482565689,14.00
2025-06-12 13:32:38.664508,599617464482565689,-862.00
2025-06-12 13:32:38.664508,599617464482565689,-538.00
2025-06-12 13:32:38.664508,599617464482565689,-41.00
2025-06-12 13:32:38.664508,599617464482565689,-65.00
2025-06-12 13:32:38.664508,599617464482565689,-70.00
2025-06-12 13:32:38.664508,599617464482565689,73.00
2025-06-12 13:32:38.664508,599617464482565689,53.00
2025-06-12 13:32:38.664508,599617464482565689,-56.00
2025-06-12 13:32:38.664508,599617464482565689,-26.00
2025-06-12 13:32:38.664508,599617464482565689,114.00
2025-06-12 13:32:38.664508,599617464482565689,153.00
2025-06-12 13:32:39.204783,599617465043293246,102.00
2025-06-12 13:32:39.204783,599617465043293246,99.00
2025-06-12 13:32:39.204783,599617465043293246,90.00
2025-06-12 13:32:39.204783,599617465043293246,51.00
2025-06-12 13:32:39.204783,599617465043293246,75.00
2025-06-12 13:32:39.204783,599617465043293246,151.00
2025-06-12 13:32:39.204783,599617465043293246,221.00
2025-06-12 13:32:39.204783,599617465043293246,246.00
2025-06-12 13:32:39.204783,599617465043293246,238.00
2025-06-12 13:32:39.204783,599617465043293246,292.00
2025-06-12 13:32:39.204783,599617465043293246,353.00
2025-06-12 13:32:39.204783,599617465043293246,348.00
2025-06-12 13:32:39.204783,599617465043293246,358.00
2025-06-12 13:32:39.204783,599617465043293246,380.00
2025-06-12 13:32:39.204783,599617465043293246,382.00
2025-06-12 13:32:39.204783,599617465043293246,433.00
2025-06-12 13:32:39.204783,599617465043293246,470.00
2025-06-12 13:32:39.204783,599617465043293246,370.00
2025-06-12 13:32:39.204783,599617465043293246,231.00
2025-06-12 13:32:39.204783,599617465043293246,131.00
2025-06-12 13:32:39.204783,599617465043293246,-21.00
2025-06-12 13:32:39.204783,599617465043293246,-158.00
2025-06-12 13:32:39.204783,599617465043293246,-197.00
2025-06-12 13:32:39.204783,599617465043293246,-265.00
2025-06-12 13:32:39.204783,599617465043293246,-329.00
2025-06-12 13:32:39.204783,599617465043293246,-290.00
2025-06-12 13:32:39.204783,599617465043293246,-275.00
2025-06-12 13:32:39.204783,599617465043293246,-272.00
2025-06-12 13:32:39.204783,599617465043293246,-212.00
2025-06-12 13:32:39.204783,599617465043293246,-231.00
2025-06-12 13:32:39.204783,599617465043293246,-326.00
2025-06-12 13:32:39.204783,599617465043293246,-316.00
2025-06-12 13:32:39.204783,599617465043293246,-243.00
2025-06-12 13:32:39.204783,599617465043293246,-199.00
2025-06-12 13:32:39.204783,599617465043293246,-170.00
2025-06-12 13:32:39.204783,599617465043293246,-192.00
2025-06-12 13:32:39.204783,599617465043293246,-236.00
2025-06-12 13:32:39.204783,599617465043293246,-207.00
2025-06-12 13:32:39.204783,599617465043293246,-165.00
2025-06-12 13:32:39.204783,599617465043293246,-177.00
2025-06-12 13:32:39.204783,599617465043293246,-197.00
2025-06-12 13:32:39.204783,599617465043293246,-170.00
2025-06-12 13:32:39.204783,599617465043293246,-143.00
2025-06-12 13:32:39.204783,599617465043293246,-170.00
2025-06-12 13:32:39.204783,599617465043293246,-190.00
2025-06-12 13:32:39.204783,599617465043293246,-158.00
2025-06-12 13:32:39.204783,599617465043293246,-126.00
2025-06-12 13:32:39.204783,599617465043293246,-126.00
2025-06-12 13:32:39.204783,599617465043293246,-141.00
2025-06-12 13:32:39.204783,599617465043293246,-146.00
2025-06-12 13:32:39.204783,599617465043293246,-143.00
2025-06-12 13:32:39.204783,599617465043293246,-138.00
2025-06-12 13:32:39.204783,599617465043293246,-131.00
2025-06-12 13:32:39.204783,599617465043293246,-131.00
2025-06-12 13:32:39.204783,599617465043293246,-134.00
2025-06-12 13:32:39.204783,599617465043293246,-131.00
2025-06-12 13:32:39.204783,599617465043293246,-119.00
2025-06-12 13:32:39.204783,599617465043293246,-112.00
2025-06-12 13:32:39.204783,599617465043293246,-121.00
2025-06-12 13:32:39.204783,599617465043293246,-124.00
2025-06-12 13:32:39.204783,599617465043293246,-112.00
2025-06-12 13:32:39.204783,599617465043293246,-116.00
2025-06-12 13:32:39.204783,599617465043293246,-119.00
2025-06-12 13:32:39.204783,599617465043293246,-99.00
2025-06-12 13:32:39.204783,599617465043293246,-85.00
2025-06-12 13:32:39.204783,599617465043293246,-77.00
2025-06-12 13:32:39.204783,599617465043293246,-75.00
2025-06-12 13:32:39.204783,599617465043293246,-87.00
2025-06-12 13:32:39.204783,599617465043293246,-99.00
2025-06-12 13:32:39.204783,599617465043293246,-99.00
2025-06-12 13:32:39.204783,599617465043293246,-95.00
2025-06-12 13:32:39.204783,599617465043293246,-97.00
2025-06-12 13:32:39.204783,599617465043293246,-95.00
2025-06-12 13:32:39.803514,599617465603990291,-85.00
2025-06-12 13:32:39.803514,599617465603990291,-77.00
2025-06-12 13:32:39.803514,599617465603990291,-80.00
2025-06-12 13:32:39.803514,599617465603990291,-85.00
2025-06-12 13:32:39.803514,599617465603990291,-116.00
2025-06-12 13:32:39.803514,599617465603990291,-173.00
2025-06-12 13:32:39.803514,599617465603990291,-51.00
2025-06-12 13:32:39.803514,599617465603990291,536.00
2025-06-12 13:32:39.803514,599617465603990291,1238.00
2025-06-12 13:32:39.803514,599617465603990291,1004.00
2025-06-12 13:32:39.803514,599617465603990291,-221.00
2025-06-12 13:32:39.803514,599617465603990291,-850.00
2025-06-12 13:32:39.803514,599617465603990291,-375.00
2025-06-12 13:32:39.803514,599617465603990291,-41.00
2025-06-12 13:32:39.803514,599617465603990291,-129.00
2025-06-12 13:32:39.803514,599617465603990291,-43.00
2025-06-12 13:32:39.803514,599617465603990291,65.00
2025-06-12 13:32:39.803514,599617465603990291,9.00
2025-06-12 13:32:39.803514,599617465603990291,2.00
2025-06-12 13:32:39.803514,599617465603990291,53.00
2025-06-12 13:32:39.803514,599617465603990291,48.00
2025-06-12 13:32:39.803514,599617465603990291,43.00
2025-06-12 13:32:39.803514,599617465603990291,65.00
2025-06-12 13:32:39.803514,599617465603990291,75.00
2025-06-12 13:32:39.803514,599617465603990291,82.00
2025-06-12 13:32:39.803514,599617465603990291,97.00
2025-06-12 13:32:39.803514,599617465603990291,112.00
2025-06-12 13:32:39.803514,599617465603990291,129.00
2025-06-12 13:32:39.803514,599617465603990291,153.00
2025-06-12 13:32:39.803514,599617465603990291,177.00
2025-06-12 13:32:39.803514,599617465603990291,209.00
2025-06-12 13:32:39.803514,599617465603990291,246.00
2025-06-12 13:32:39.803514,599617465603990291,287.00
2025-06-12 13:32:39.803514,599617465603990291,326.00
2025-06-12 13:32:39.803514,599617465603990291,363.00
2025-06-12 13:32:39.803514,599617465603990291,397.00
2025-06-12 13:32:39.803514,599617465603990291,419.00
2025-06-12 13:32:39.803514,599617465603990291,424.00
2025-06-12 13:32:39.803514,599617465603990291,399.00
2025-06-12 13:32:39.803514,599617465603990291,324.00
2025-06-12 13:32:39.803514,599617465603990291,204.00
2025-06-12 13:32:39.803514,599617465603990291,68.00
2025-06-12 13:32:39.803514,599617465603990291,-51.00
2025-06-12 13:32:39.803514,599617465603990291,-138.00
2025-06-12 13:32:39.803514,599617465603990291,-202.00
2025-06-12 13:32:39.803514,599617465603990291,-241.00
2025-06-12 13:32:39.803514,599617465603990291,-263.00
2025-06-12 13:32:39.803514,599617465603990291,-270.00
2025-06-12 13:32:39.803514,599617465603990291,-268.00
2025-06-12 13:32:39.803514,599617465603990291,-265.00
2025-06-12 13:32:39.803514,599617465603990291,-263.00
2025-06-12 13:32:39.803514,599617465603990291,-251.00
2025-06-12 13:32:39.803514,599617465603990291,-236.00
2025-06-12 13:32:39.803514,599617465603990291,-229.00
2025-06-12 13:32:39.803514,599617465603990291,-226.00
2025-06-12 13:32:39.803514,599617465603990291,-216.00
2025-06-12 13:32:39.803514,599617465603990291,-207.00
2025-06-12 13:32:39.803514,599617465603990291,-199.00
2025-06-12 13:32:39.803514,599617465603990291,-197.00
2025-06-12 13:32:39.803514,599617465603990291,-197.00
2025-06-12 13:32:39.803514,599617465603990291,-194.00
2025-06-12 13:32:39.803514,599617465603990291,-185.00
2025-06-12 13:32:39.803514,599617465603990291,-180.00
2025-06-12 13:32:39.803514,599617465603990291,-177.00
2025-06-12 13:32:39.803514,599617465603990291,-180.00
2025-06-12 13:32:39.803514,599617465603990291,-180.00
2025-06-12 13:32:39.803514,599617465603990291,-177.00
2025-06-12 13:32:39.803514,599617465603990291,-177.00
2025-06-12 13:32:39.803514,599617465603990291,-182.00
2025-06-12 13:32:39.803514,599617465603990291,-182.00
2025-06-12 13:32:39.803514,599617465603990291,-177.00
2025-06-12 13:32:39.803514,599617465603990291,-177.00
2025-06-12 13:32:39.803514,599617465603990291,-170.00
2025-06-12 13:32:40.373307,599617466164717850,-168.00
2025-06-12 13:32:40.373307,599617466164717850,-175.00
2025-06-12 13:32:40.373307,599617466164717850,-173.00
2025-06-12 13:32:40.373307,599617466164717850,-160.00
2025-06-12 13:32:40.373307,599617466164717850,-155.00
2025-06-12 13:32:40.373307,599617466164717850,-160.00
2025-06-12 13:32:40.373307,599617466164717850,-158.00
2025-06-12 13:32:40.373307,599617466164717850,-155.00
2025-06-12 13:32:40.373307,599617466164717850,-155.00
2025-06-12 13:32:40.373307,599617466164717850,-153.00
2025-06-12 13:32:40.373307,599617466164717850,-146.00
2025-06-12 13:32:40.373307,599617466164717850,-148.00
2025-06-12 13:32:40.373307,599617466164717850,-153.00
2025-06-12 13:32:40.373307,599617466164717850,-151.00
2025-06-12 13:32:40.373307,599617466164717850,-146.00
2025-06-12 13:32:40.373307,599617466164717850,-146.00
2025-06-12 13:32:40.373307,599617466164717850,-151.00
2025-06-12 13:32:40.373307,599617466164717850,-155.00
2025-06-12 13:32:40.373307,599617466164717850,-158.00
2025-06-12 13:32:40.373307,599617466164717850,-148.00
2025-06-12 13:32:40.373307,599617466164717850,-129.00
2025-06-12 13:32:40.373307,599617466164717850,-116.00
2025-06-12 13:32:40.373307,599617466164717850,-114.00
2025-06-12 13:32:40.373307,599617466164717850,-124.00
2025-06-12 13:32:40.373307,599617466164717850,-136.00
2025-06-12 13:32:40.373307,599617466164717850,-136.00
2025-06-12 13:32:40.373307,599617466164717850,-136.00
2025-06-12 13:32:40.373307,599617466164717850,-136.00
2025-06-12 13:32:40.373307,599617466164717850,-131.00
2025-06-12 13:32:40.373307,599617466164717850,-126.00
2025-06-12 13:32:40.373307,599617466164717850,-121.00
2025-06-12 13:32:40.373307,599617466164717850,-121.00
2025-06-12 13:32:40.373307,599617466164717850,-116.00
2025-06-12 13:32:40.373307,599617466164717850,-131.00
2025-06-12 13:32:40.373307,599617466164717850,-197.00
2025-06-12 13:32:40.373307,599617466164717850,-212.00
2025-06-12 13:32:40.373307,599617466164717850,153.00
2025-06-12 13:32:40.373307,599617466164717850,935.00
2025-06-12 13:32:40.373307,599617466164717850,1296.00
2025-06-12 13:32:40.373307,599617466164717850,411.00
2025-06-12 13:32:40.373307,599617466164717850,-740.00
2025-06-12 13:32:40.373307,599617466164717850,-699.00
2025-06-12 13:32:40.373307,599617466164717850,-151.00
2025-06-12 13:32:40.373307,599617466164717850,-119.00
2025-06-12 13:32:40.373307,599617466164717850,-151.00
2025-06-12 13:32:40.373307,599617466164717850,0.00
2025-06-12 13:32:40.373307,599617466164717850,9.00
2025-06-12 13:32:40.373307,599617466164717850,-46.00
2025-06-12 13:32:40.373307,599617466164717850,0.00
2025-06-12 13:32:40.373307,599617466164717850,29.00
2025-06-12 13:32:40.373307,599617466164717850,14.00
2025-06-12 13:32:40.373307,599617466164717850,29.00
2025-06-12 13:32:40.373307,599617466164717850,51.00
2025-06-12 13:32:40.373307,599617466164717850,58.00
2025-06-12 13:32:40.373307,599617466164717850,68.00
2025-06-12 13:32:40.373307,599617466164717850,87.00
2025-06-12 13:32:40.373307,599617466164717850,107.00
2025-06-12 13:32:40.373307,599617466164717850,126.00
2025-06-12 13:32:40.373307,599617466164717850,151.00
2025-06-12 13:32:40.373307,599617466164717850,180.00
2025-06-12 13:32:40.373307,599617466164717850,214.00
2025-06-12 13:32:40.373307,599617466164717850,253.00
2025-06-12 13:32:40.373307,599617466164717850,297.00
2025-06-12 13:32:40.373307,599617466164717850,338.00
2025-06-12 13:32:40.373307,599617466164717850,377.00
2025-06-12 13:32:40.373307,599617466164717850,409.00
2025-06-12 13:32:40.373307,599617466164717850,426.00
2025-06-12 13:32:40.373307,599617466164717850,424.00
2025-06-12 13:32:40.373307,599617466164717850,385.00
2025-06-12 13:32:40.373307,599617466164717850,290.00
2025-06-12 13:32:40.373307,599617466164717850,155.00
2025-06-12 13:32:40.373307,599617466164717850,17.00
2025-06-12 13:32:40.373307,599617466164717850,-97.00
2025-06-12 13:32:40.916181,599617466725475926,-185.00
2025-06-12 13:32:40.916181,599617466725475926,-246.00
2025-06-12 13:32:40.916181,599617466725475926,-277.00
2025-06-12 13:32:40.916181,599617466725475926,-292.00
2025-06-12 13:32:40.916181,599617466725475926,-297.00
2025-06-12 13:32:40.916181,599617466725475926,-297.00
2025-06-12 13:32:40.916181,599617466725475926,-290.00
2025-06-12 13:32:40.916181,599617466725475926,-280.00
2025-06-12 13:32:40.916181,599617466725475926,-270.00
2025-06-12 13:32:40.916181,599617466725475926,-263.00
2025-06-12 13:32:40.916181,599617466725475926,-251.00
2025-06-12 13:32:40.916181,599617466725475926,-236.00
2025-06-12 13:32:40.916181,599617466725475926,-224.00
2025-06-12 13:32:40.916181,599617466725475926,-214.00
2025-06-12 13:32:40.916181,599617466725475926,-207.00
2025-06-12 13:32:40.916181,599617466725475926,-199.00
2025-06-12 13:32:40.916181,599617466725475926,-192.00
2025-06-12 13:32:40.916181,599617466725475926,-187.00
2025-06-12 13:32:40.916181,599617466725475926,-180.00
2025-06-12 13:32:40.916181,599617466725475926,-173.00
2025-06-12 13:32:40.916181,599617466725475926,-170.00
2025-06-12 13:32:40.916181,599617466725475926,-168.00
2025-06-12 13:32:40.916181,599617466725475926,-163.00
2025-06-12 13:32:40.916181,599617466725475926,-160.00
2025-06-12 13:32:40.916181,599617466725475926,-160.00
2025-06-12 13:32:40.916181,599617466725475926,-158.00
2025-06-12 13:32:40.916181,599617466725475926,-155.00
2025-06-12 13:32:40.916181,599617466725475926,-153.00
2025-06-12 13:32:40.916181,599617466725475926,-151.00
2025-06-12 13:32:40.916181,599617466725475926,-146.00
2025-06-12 13:32:40.916181,599617466725475926,-141.00
2025-06-12 13:32:40.916181,599617466725475926,-138.00
2025-06-12 13:32:40.916181,599617466725475926,-136.00
2025-06-12 13:32:40.916181,599617466725475926,-134.00
2025-06-12 13:32:40.916181,599617466725475926,-131.00
2025-06-12 13:32:40.916181,599617466725475926,-126.00
2025-06-12 13:32:40.916181,599617466725475926,-121.00
2025-06-12 13:32:40.916181,599617466725475926,-119.00
2025-06-12 13:32:40.916181,599617466725475926,-116.00
2025-06-12 13:32:40.916181,599617466725475926,-114.00
2025-06-12 13:32:40.916181,599617466725475926,-112.00
2025-06-12 13:32:40.916181,599617466725475926,-107.00
2025-06-12 13:32:40.916181,599617466725475926,-102.00
2025-06-12 13:32:40.916181,599617466725475926,-102.00
2025-06-12 13:32:40.916181,599617466725475926,-99.00
2025-06-12 13:32:40.916181,599617466725475926,-97.00
2025-06-12 13:32:40.916181,599617466725475926,-92.00
2025-06-12 13:32:40.916181,599617466725475926,-90.00
2025-06-12 13:32:40.916181,599617466725475926,-90.00
2025-06-12 13:32:40.916181,599617466725475926,-90.00
2025-06-12 13:32:40.916181,599617466725475926,-92.00
2025-06-12 13:32:40.916181,599617466725475926,-95.00
2025-06-12 13:32:40.916181,599617466725475926,-92.00
2025-06-12 13:32:40.916181,599617466725475926,-77.00
2025-06-12 13:32:40.916181,599617466725475926,-63.00
2025-06-12 13:32:40.916181,599617466725475926,-53.00
2025-06-12 13:32:40.916181,599617466725475926,-46.00
2025-06-12 13:32:40.916181,599617466725475926,-48.00
2025-06-12 13:32:40.916181,599617466725475926,-58.00
2025-06-12 13:32:40.916181,599617466725475926,-65.00
2025-06-12 13:32:40.916181,599617466725475926,-65.00
2025-06-12 13:32:40.916181,599617466725475926,-58.00
2025-06-12 13:32:40.916181,599617466725475926,-56.00
2025-06-12 13:32:40.916181,599617466725475926,-51.00
2025-06-12 13:32:40.916181,599617466725475926,-48.00
2025-06-12 13:32:40.916181,599617466725475926,-41.00
2025-06-12 13:32:40.916181,599617466725475926,-36.00
2025-06-12 13:32:40.916181,599617466725475926,-53.00
2025-06-12 13:32:40.916181,599617466725475926,-124.00
2025-06-12 13:32:40.916181,599617466725475926,-114.00
2025-06-12 13:32:40.916181,599617466725475926,299.00
2025-06-12 13:32:40.916181,599617466725475926,1072.00
2025-06-12 13:32:40.916181,599617466725475926,1306.00
2025-06-12 13:32:41.485420,599617467286172968,331.00
2025-06-12 13:32:41.485420,599617467286172968,-714.00
2025-06-12 13:32:41.485420,599617467286172968,-555.00
2025-06-12 13:32:41.485420,599617467286172968,-51.00
2025-06-12 13:32:41.485420,599617467286172968,-51.00
2025-06-12 13:32:41.485420,599617467286172968,-48.00
2025-06-12 13:32:41.485420,599617467286172968,90.00
2025-06-12 13:32:41.485420,599617467286172968,73.00
2025-06-12 13:32:41.485420,599617467286172968,34.00
2025-06-12 13:32:41.485420,599617467286172968,82.00
2025-06-12 13:32:41.485420,599617467286172968,97.00
2025-06-12 13:32:41.485420,599617467286172968,85.00
2025-06-12 13:32:41.485420,599617467286172968,102.00
2025-06-12 13:32:41.485420,599617467286172968,121.00
2025-06-12 13:32:41.485420,599617467286172968,126.00
2025-06-12 13:32:41.485420,599617467286172968,143.00
2025-06-12 13:32:41.485420,599617467286172968,163.00
2025-06-12 13:32:41.485420,599617467286172968,177.00
2025-06-12 13:32:41.485420,599617467286172968,194.00
2025-06-12 13:32:41.485420,599617467286172968,224.00
2025-06-12 13:32:41.485420,599617467286172968,253.00
2025-06-12 13:32:41.485420,599617467286172968,287.00
2025-06-12 13:32:41.485420,599617467286172968,324.00
2025-06-12 13:32:41.485420,599617467286172968,365.00
2025-06-12 13:32:41.485420,599617467286172968,407.00
2025-06-12 13:32:41.485420,599617467286172968,443.00
2025-06-12 13:32:41.485420,599617467286172968,477.00
2025-06-12 13:32:41.485420,599617467286172968,499.00
2025-06-12 13:32:41.485420,599617467286172968,494.00
2025-06-12 13:32:41.485420,599617467286172968,453.00
2025-06-12 13:32:41.485420,599617467286172968,363.00
2025-06-12 13:32:41.485420,599617467286172968,231.00
2025-06-12 13:32:41.485420,599617467286172968,90.00
2025-06-12 13:32:41.485420,599617467286172968,-29.00
2025-06-12 13:32:41.485420,599617467286172968,-116.00
2025-06-12 13:32:41.485420,599617467286172968,-177.00
2025-06-12 13:32:41.485420,599617467286172968,-216.00
2025-06-12 13:32:41.485420,599617467286172968,-238.00
2025-06-12 13:32:41.485420,599617467286172968,-246.00
2025-06-12 13:32:41.485420,599617467286172968,-238.00
2025-06-12 13:32:41.485420,599617467286172968,-233.00
2025-06-12 13:32:41.485420,599617467286172968,-229.00
2025-06-12 13:32:41.485420,599617467286172968,-219.00
2025-06-12 13:32:41.485420,599617467286172968,-209.00
2025-06-12 13:32:41.485420,599617467286172968,-199.00
2025-06-12 13:32:41.485420,599617467286172968,-192.00
2025-06-12 13:32:41.485420,599617467286172968,-182.00
2025-06-12 13:32:41.485420,599617467286172968,-175.00
2025-06-12 13:32:41.485420,599617467286172968,-168.00
2025-06-12 13:32:41.485420,599617467286172968,-160.00
2025-06-12 13:32:41.485420,599617467286172968,-158.00
2025-06-12 13:32:41.485420,599617467286172968,-151.00
2025-06-12 13:32:41.485420,599617467286172968,-143.00
2025-06-12 13:32:41.485420,599617467286172968,-138.00
2025-06-12 13:32:41.485420,599617467286172968,-134.00
2025-06-12 13:32:41.485420,599617467286172968,-129.00
2025-06-12 13:32:41.485420,599617467286172968,-126.00
2025-06-12 13:32:41.485420,599617467286172968,-121.00
2025-06-12 13:32:41.485420,599617467286172968,-119.00
2025-06-12 13:32:41.485420,599617467286172968,-116.00
2025-06-12 13:32:41.485420,599617467286172968,-114.00
2025-06-12 13:32:41.485420,599617467286172968,-112.00
2025-06-12 13:32:41.485420,599617467286172968,-107.00
2025-06-12 13:32:41.485420,599617467286172968,-104.00
2025-06-12 13:32:41.485420,599617467286172968,-102.00
2025-06-12 13:32:41.485420,599617467286172968,-102.00
2025-06-12 13:32:41.485420,599617467286172968,-99.00
2025-06-12 13:32:41.485420,599617467286172968,-97.00
2025-06-12 13:32:41.485420,599617467286172968,-92.00
2025-06-12 13:32:41.485420,599617467286172968,-90.00
2025-06-12 13:32:41.485420,599617467286172968,-90.00
2025-06-12 13:32:41.485420,599617467286172968,-87.00
2025-06-12 13:32:41.485420,599617467286172968,-82.00
2025-06-12 13:32:42.023343,599617467846900527,-80.00
2025-06-12 13:32:42.023343,599617467846900527,-77.00
2025-06-12 13:32:42.023343,599617467846900527,-75.00
2025-06-12 13:32:42.023343,599617467846900527,-70.00
2025-06-12 13:32:42.023343,599617467846900527,-70.00
2025-06-12 13:32:42.023343,599617467846900527,-65.00
2025-06-12 13:32:42.023343,599617467846900527,-63.00
2025-06-12 13:32:42.023343,599617467846900527,-65.00
2025-06-12 13:32:42.023343,599617467846900527,-65.00
2025-06-12 13:32:42.023343,599617467846900527,-68.00
2025-06-12 13:32:42.023343,599617467846900527,-70.00
2025-06-12 13:32:42.023343,599617467846900527,-68.00
2025-06-12 13:32:42.023343,599617467846900527,-56.00
2025-06-12 13:32:42.023343,599617467846900527,-43.00
2025-06-12 13:32:42.023343,599617467846900527,-34.00
2025-06-12 13:32:42.023343,599617467846900527,-26.00
2025-06-12 13:32:42.023343,599617467846900527,-34.00
2025-06-12 13:32:42.023343,599617467846900527,-48.00
2025-06-12 13:32:42.023343,599617467846900527,-53.00
2025-06-12 13:32:42.023343,599617467846900527,-56.00
2025-06-12 13:32:42.023343,599617467846900527,-56.00
2025-06-12 13:32:42.023343,599617467846900527,-56.00
2025-06-12 13:32:42.023343,599617467846900527,-51.00
2025-06-12 13:32:42.023343,599617467846900527,-46.00
2025-06-12 13:32:42.023343,599617467846900527,-46.00
2025-06-12 13:32:42.023343,599617467846900527,-46.00
2025-06-12 13:32:42.023343,599617467846900527,-65.00
2025-06-12 13:32:42.023343,599617467846900527,-134.00
2025-06-12 13:32:42.023343,599617467846900527,-126.00
2025-06-12 13:32:42.023343,599617467846900527,275.00
2025-06-12 13:32:42.023343,599617467846900527,1026.00
2025-06-12 13:32:42.023343,599617467846900527,1257.00
2025-06-12 13:32:42.023343,599617467846900527,304.00
2025-06-12 13:32:42.023343,599617467846900527,-726.00
2025-06-12 13:32:42.023343,599617467846900527,-589.00
2025-06-12 13:32:42.023343,599617467846900527,-92.00
2025-06-12 13:32:42.023343,599617467846900527,-82.00
2025-06-12 13:32:42.023343,599617467846900527,-77.00
2025-06-12 13:32:42.023343,599617467846900527,60.00
2025-06-12 13:32:42.023343,599617467846900527,43.00
2025-06-12 13:32:42.023343,599617467846900527,2.00
2025-06-12 13:32:42.023343,599617467846900527,51.00
2025-06-12 13:32:42.023343,599617467846900527,68.00
2025-06-12 13:32:42.023343,599617467846900527,53.00
2025-06-12 13:32:42.023343,599617467846900527,70.00
2025-06-12 13:32:42.023343,599617467846900527,87.00
2025-06-12 13:32:42.023343,599617467846900527,95.00
2025-06-12 13:32:42.023343,599617467846900527,112.00
2025-06-12 13:32:42.023343,599617467846900527,131.00
2025-06-12 13:32:42.023343,599617467846900527,143.00
2025-06-12 13:32:42.023343,599617467846900527,160.00
2025-06-12 13:32:42.023343,599617467846900527,187.00
2025-06-12 13:32:42.023343,599617467846900527,214.00
2025-06-12 13:32:42.023343,599617467846900527,246.00
2025-06-12 13:32:42.023343,599617467846900527,287.00
2025-06-12 13:32:42.023343,599617467846900527,329.00
2025-06-12 13:32:42.023343,599617467846900527,372.00
2025-06-12 13:32:42.023343,599617467846900527,411.00
2025-06-12 13:32:42.023343,599617467846900527,441.00
2025-06-12 13:32:42.023343,599617467846900527,460.00
2025-06-12 13:32:42.023343,599617467846900527,458.00
2025-06-12 13:32:42.023343,599617467846900527,416.00
2025-06-12 13:32:42.023343,599617467846900527,324.00
2025-06-12 13:32:42.023343,599617467846900527,194.00
2025-06-12 13:32:42.023343,599617467846900527,56.00
2025-06-12 13:32:42.023343,599617467846900527,-63.00
2025-06-12 13:32:42.023343,599617467846900527,-148.00
2025-06-12 13:32:42.023343,599617467846900527,-209.00
2025-06-12 13:32:42.023343,599617467846900527,-246.00
2025-06-12 13:32:42.023343,599617467846900527,-265.00
2025-06-12 13:32:42.023343,599617467846900527,-270.00
2025-06-12 13:32:42.023343,599617467846900527,-265.00
2025-06-12 13:32:42.023343,599617467846900527,-258.00
2025-06-12 13:32:42.564693,599617468407628086,-253.00
2025-06-12 13:32:42.564693,599617468407628086,-246.00
2025-06-12 13:32:42.564693,599617468407628086,-236.00
2025-06-12 13:32:42.564693,599617468407628086,-226.00
2025-06-12 13:32:42.564693,599617468407628086,-216.00
2025-06-12 13:32:42.564693,599617468407628086,-204.00
2025-06-12 13:32:42.564693,599617468407628086,-194.00
2025-06-12 13:32:42.564693,599617468407628086,-185.00
2025-06-12 13:32:42.564693,599617468407628086,-180.00
2025-06-12 13:32:42.564693,599617468407628086,-170.00
2025-06-12 13:32:42.564693,599617468407628086,-160.00
2025-06-12 13:32:42.564693,599617468407628086,-155.00
2025-06-12 13:32:42.564693,599617468407628086,-148.00
2025-06-12 13:32:42.564693,599617468407628086,-141.00
2025-06-12 13:32:42.564693,599617468407628086,-136.00
2025-06-12 13:32:42.564693,599617468407628086,-134.00
2025-06-12 13:32:42.564693,599617468407628086,-129.00
2025-06-12 13:32:42.564693,599617468407628086,-121.00
2025-06-12 13:32:42.564693,599617468407628086,-116.00
2025-06-12 13:32:42.564693,599617468407628086,-116.00
2025-06-12 13:32:42.564693,599617468407628086,-114.00
2025-06-12 13:32:42.564693,599617468407628086,-109.00
2025-06-12 13:32:42.564693,599617468407628086,-107.00
2025-06-12 13:32:42.564693,599617468407628086,-107.00
2025-06-12 13:32:42.564693,599617468407628086,-107.00
2025-06-12 13:32:42.564693,599617468407628086,-102.00
2025-06-12 13:32:42.564693,599617468407628086,-97.00
2025-06-12 13:32:42.564693,599617468407628086,-97.00
2025-06-12 13:32:42.564693,599617468407628086,-97.00
2025-06-12 13:32:42.564693,599617468407628086,-92.00
2025-06-12 13:32:42.564693,599617468407628086,-90.00
2025-06-12 13:32:42.564693,599617468407628086,-90.00
2025-06-12 13:32:42.564693,599617468407628086,-85.00
2025-06-12 13:32:42.564693,599617468407628086,-82.00
2025-06-12 13:32:42.564693,599617468407628086,-77.00
2025-06-12 13:32:42.564693,599617468407628086,-75.00
2025-06-12 13:32:42.564693,599617468407628086,-73.00
2025-06-12 13:32:42.564693,599617468407628086,-68.00
2025-06-12 13:32:42.564693,599617468407628086,-65.00
2025-06-12 13:32:42.564693,599617468407628086,-63.00
2025-06-12 13:32:42.564693,599617468407628086,-63.00
2025-06-12 13:32:42.564693,599617468407628086,-65.00
2025-06-12 13:32:42.564693,599617468407628086,-68.00
2025-06-12 13:32:42.564693,599617468407628086,-65.00
2025-06-12 13:32:42.564693,599617468407628086,-65.00
2025-06-12 13:32:42.564693,599617468407628086,-65.00
2025-06-12 13:32:42.564693,599617468407628086,-70.00
2025-06-12 13:32:42.564693,599617468407628086,-75.00
2025-06-12 13:32:42.564693,599617468407628086,-77.00
2025-06-12 13:32:42.564693,599617468407628086,-70.00
2025-06-12 13:32:42.564693,599617468407628086,-53.00
2025-06-12 13:32:42.564693,599617468407628086,-41.00
2025-06-12 13:32:42.564693,599617468407628086,-34.00
2025-06-12 13:32:42.564693,599617468407628086,-36.00
2025-06-12 13:32:42.564693,599617468407628086,-56.00
2025-06-12 13:32:42.564693,599617468407628086,-68.00
2025-06-12 13:32:42.564693,599617468407628086,-68.00
2025-06-12 13:32:42.564693,599617468407628086,-65.00
2025-06-12 13:32:42.564693,599617468407628086,-63.00
2025-06-12 13:32:42.564693,599617468407628086,-63.00
2025-06-12 13:32:42.564693,599617468407628086,-58.00
2025-06-12 13:32:42.564693,599617468407628086,-56.00
2025-06-12 13:32:42.564693,599617468407628086,-58.00
2025-06-12 13:32:42.564693,599617468407628086,-75.00
2025-06-12 13:32:42.564693,599617468407628086,-141.00
2025-06-12 13:32:42.564693,599617468407628086,-153.00
2025-06-12 13:32:42.564693,599617468407628086,202.00
2025-06-12 13:32:42.564693,599617468407628086,940.00
2025-06-12 13:32:42.564693,599617468407628086,1252.00
2025-06-12 13:32:42.564693,599617468407628086,409.00
2025-06-12 13:32:42.564693,599617468407628086,-653.00
2025-06-12 13:32:42.564693,599617468407628086,-619.00
2025-06-12 13:32:42.564693,599617468407628086,-131.00
2025-06-12 13:32:43.162283,599617468968330215,-90.00
2025-06-12 13:32:43.162283,599617468968330215,-95.00
2025-06-12 13:32:43.162283,599617468968330215,41.00
2025-06-12 13:32:43.162283,599617468968330215,38.00
2025-06-12 13:32:43.162283,599617468968330215,-7.00
2025-06-12 13:32:43.162283,599617468968330215,34.00
2025-06-12 13:32:43.162283,599617468968330215,53.00
2025-06-12 13:32:43.162283,599617468968330215,41.00
2025-06-12 13:32:43.162283,599617468968330215,58.00
2025-06-12 13:32:43.162283,599617468968330215,75.00
2025-06-12 13:32:43.162283,599617468968330215,80.00
2025-06-12 13:32:43.162283,599617468968330215,95.00
2025-06-12 13:32:43.162283,599617468968330215,112.00
2025-06-12 13:32:43.162283,599617468968330215,124.00
2025-06-12 13:32:43.162283,599617468968330215,141.00
2025-06-12 13:32:43.162283,599617468968330215,168.00
2025-06-12 13:32:43.162283,599617468968330215,192.00
2025-06-12 13:32:43.162283,599617468968330215,224.00
2025-06-12 13:32:43.162283,599617468968330215,263.00
2025-06-12 13:32:43.162283,599617468968330215,304.00
2025-06-12 13:32:43.162283,599617468968330215,343.00
2025-06-12 13:32:43.162283,599617468968330215,385.00
2025-06-12 13:32:43.162283,599617468968330215,416.00
2025-06-12 13:32:43.162283,599617468968330215,441.00
2025-06-12 13:32:43.162283,599617468968330215,446.00
2025-06-12 13:32:43.162283,599617468968330215,414.00
2025-06-12 13:32:43.162283,599617468968330215,338.00
2025-06-12 13:32:43.162283,599617468968330215,216.00
2025-06-12 13:32:43.162283,599617468968330215,77.00
2025-06-12 13:32:43.162283,599617468968330215,-48.00
2025-06-12 13:32:43.162283,599617468968330215,-143.00
2025-06-12 13:32:43.162283,599617468968330215,-209.00
2025-06-12 13:32:43.162283,599617468968330215,-251.00
2025-06-12 13:32:43.162283,599617468968330215,-268.00
2025-06-12 13:32:43.162283,599617468968330215,-275.00
2025-06-12 13:32:43.162283,599617468968330215,-280.00
2025-06-12 13:32:43.162283,599617468968330215,-275.00
2025-06-12 13:32:43.162283,599617468968330215,-265.00
2025-06-12 13:32:43.162283,599617468968330215,-258.00
2025-06-12 13:32:43.162283,599617468968330215,-251.00
2025-06-12 13:32:43.162283,599617468968330215,-241.00
2025-06-12 13:32:43.162283,599617468968330215,-233.00
2025-06-12 13:32:43.162283,599617468968330215,-224.00
2025-06-12 13:32:43.162283,599617468968330215,-216.00
2025-06-12 13:32:43.162283,599617468968330215,-209.00
2025-06-12 13:32:43.162283,599617468968330215,-199.00
2025-06-12 13:32:43.162283,599617468968330215,-192.00
2025-06-12 13:32:43.162283,599617468968330215,-187.00
2025-06-12 13:32:43.162283,599617468968330215,-180.00
2025-06-12 13:32:43.162283,599617468968330215,-170.00
2025-06-12 13:32:43.162283,599617468968330215,-165.00
2025-06-12 13:32:43.162283,599617468968330215,-163.00
2025-06-12 13:32:43.162283,599617468968330215,-160.00
2025-06-12 13:32:43.162283,599617468968330215,-153.00
2025-06-12 13:32:43.162283,599617468968330215,-148.00
2025-06-12 13:32:43.162283,599617468968330215,-143.00
2025-06-12 13:32:43.162283,599617468968330215,-141.00
2025-06-12 13:32:43.162283,599617468968330215,-138.00
2025-06-12 13:32:43.162283,599617468968330215,-141.00
2025-06-12 13:32:43.162283,599617468968330215,-138.00
2025-06-12 13:32:43.162283,599617468968330215,-136.00
2025-06-12 13:32:43.162283,599617468968330215,-131.00
2025-06-12 13:32:43.162283,599617468968330215,-129.00
2025-06-12 13:32:43.162283,599617468968330215,-126.00
2025-06-12 13:32:43.162283,599617468968330215,-124.00
2025-06-12 13:32:43.162283,599617468968330215,-121.00
2025-06-12 13:32:43.162283,599617468968330215,-116.00
2025-06-12 13:32:43.162283,599617468968330215,-114.00
2025-06-12 13:32:43.162283,599617468968330215,-109.00
2025-06-12 13:32:43.162283,599617468968330215,-107.00
2025-06-12 13:32:43.162283,599617468968330215,-107.00
2025-06-12 13:32:43.162283,599617468968330215,-104.00
2025-06-12 13:32:43.162283,599617468968330215,-99.00
2025-06-12 13:32:43.733610,599617469529052688,-95.00
2025-06-12 13:32:43.733610,599617469529052688,-92.00
2025-06-12 13:32:43.733610,599617469529052688,-90.00
2025-06-12 13:32:43.733610,599617469529052688,-87.00
2025-06-12 13:32:43.733610,599617469529052688,-87.00
2025-06-12 13:32:43.733610,599617469529052688,-85.00
2025-06-12 13:32:43.733610,599617469529052688,-85.00
2025-06-12 13:32:43.733610,599617469529052688,-80.00
2025-06-12 13:32:43.733610,599617469529052688,-77.00
2025-06-12 13:32:43.733610,599617469529052688,-75.00
2025-06-12 13:32:43.733610,599617469529052688,-73.00
2025-06-12 13:32:43.733610,599617469529052688,-75.00
2025-06-12 13:32:43.733610,599617469529052688,-80.00
2025-06-12 13:32:43.733610,599617469529052688,-82.00
2025-06-12 13:32:43.733610,599617469529052688,-75.00
2025-06-12 13:32:43.733610,599617469529052688,-58.00
2025-06-12 13:32:43.733610,599617469529052688,-48.00
2025-06-12 13:32:43.733610,599617469529052688,-38.00
2025-06-12 13:32:43.733610,599617469529052688,-36.00
2025-06-12 13:32:43.733610,599617469529052688,-46.00
2025-06-12 13:32:43.733610,599617469529052688,-58.00
2025-06-12 13:32:43.733610,599617469529052688,-65.00
2025-06-12 13:32:43.733610,599617469529052688,-63.00
2025-06-12 13:32:43.733610,599617469529052688,-63.00
2025-06-12 13:32:43.733610,599617469529052688,-60.00
2025-06-12 13:32:43.733610,599617469529052688,-56.00
2025-06-12 13:32:43.733610,599617469529052688,-51.00
2025-06-12 13:32:43.733610,599617469529052688,-51.00
2025-06-12 13:32:43.733610,599617469529052688,-60.00
2025-06-12 13:32:43.733610,599617469529052688,-119.00
2025-06-12 13:32:43.733610,599617469529052688,-173.00
2025-06-12 13:32:43.733610,599617469529052688,68.00
2025-06-12 13:32:43.733610,599617469529052688,750.00
2025-06-12 13:32:43.733610,599617469529052688,1257.00
2025-06-12 13:32:43.733610,599617469529052688,692.00
2025-06-12 13:32:43.733610,599617469529052688,-443.00
2025-06-12 13:32:43.733610,599617469529052688,-697.00
2025-06-12 13:32:43.733610,599617469529052688,-229.00
2025-06-12 13:32:43.733610,599617469529052688,-77.00
2025-06-12 13:32:43.733610,599617469529052688,-107.00
2025-06-12 13:32:43.733610,599617469529052688,12.00
2025-06-12 13:32:43.733610,599617469529052688,46.00
2025-06-12 13:32:43.733610,599617469529052688,-7.00
2025-06-12 13:32:43.733610,599617469529052688,19.00
2025-06-12 13:32:43.733610,599617469529052688,53.00
2025-06-12 13:32:43.733610,599617469529052688,41.00
2025-06-12 13:32:43.733610,599617469529052688,48.00
2025-06-12 13:32:43.733610,599617469529052688,68.00
2025-06-12 13:32:43.733610,599617469529052688,77.00
2025-06-12 13:32:43.733610,599617469529052688,87.00
2025-06-12 13:32:43.733610,599617469529052688,107.00
2025-06-12 13:32:43.733610,599617469529052688,119.00
2025-06-12 13:32:43.733610,599617469529052688,136.00
2025-06-12 13:32:43.733610,599617469529052688,160.00
2025-06-12 13:32:43.733610,599617469529052688,187.00
2025-06-12 13:32:43.733610,599617469529052688,216.00
2025-06-12 13:32:43.733610,599617469529052688,253.00
2025-06-12 13:32:43.733610,599617469529052688,292.00
2025-06-12 13:32:43.733610,599617469529052688,333.00
2025-06-12 13:32:43.733610,599617469529052688,375.00
2025-06-12 13:32:43.733610,599617469529052688,409.00
2025-06-12 13:32:43.733610,599617469529052688,438.00
2025-06-12 13:32:43.733610,599617469529052688,453.00
2025-06-12 13:32:43.733610,599617469529052688,436.00
2025-06-12 13:32:43.733610,599617469529052688,372.00
2025-06-12 13:32:43.733610,599617469529052688,260.00
2025-06-12 13:32:43.733610,599617469529052688,126.00
2025-06-12 13:32:43.733610,599617469529052688,-2.00
2025-06-12 13:32:43.733610,599617469529052688,-107.00
2025-06-12 13:32:43.733610,599617469529052688,-182.00
2025-06-12 13:32:43.733610,599617469529052688,-231.00
2025-06-12 13:32:43.733610,599617469529052688,-258.00
2025-06-12 13:32:43.733610,599617469529052688,-268.00
2025-06-12 13:32:44.275023,599617470089780247,-268.00
2025-06-12 13:32:44.275023,599617470089780247,-260.00
2025-06-12 13:32:44.275023,599617470089780247,-255.00
2025-06-12 13:32:44.275023,599617470089780247,-248.00
2025-06-12 13:32:44.275023,599617470089780247,-241.00
2025-06-12 13:32:44.275023,599617470089780247,-231.00
2025-06-12 13:32:44.275023,599617470089780247,-219.00
2025-06-12 13:32:44.275023,599617470089780247,-207.00
2025-06-12 13:32:44.275023,599617470089780247,-202.00
2025-06-12 13:32:44.275023,599617470089780247,-197.00
2025-06-12 13:32:44.275023,599617470089780247,-187.00
2025-06-12 13:32:44.275023,599617470089780247,-177.00
2025-06-12 13:32:44.275023,599617470089780247,-170.00
2025-06-12 13:32:44.275023,599617470089780247,-163.00
2025-06-12 13:32:44.275023,599617470089780247,-155.00
2025-06-12 13:32:44.275023,599617470089780247,-148.00
2025-06-12 13:32:44.275023,599617470089780247,-141.00
2025-06-12 13:32:44.275023,599617470089780247,-138.00
2025-06-12 13:32:44.275023,599617470089780247,-131.00
2025-06-12 13:32:44.275023,599617470089780247,-129.00
2025-06-12 13:32:44.275023,599617470089780247,-124.00
2025-06-12 13:32:44.275023,599617470089780247,-119.00
2025-06-12 13:32:44.275023,599617470089780247,-116.00
2025-06-12 13:32:44.275023,599617470089780247,-114.00
2025-06-12 13:32:44.275023,599617470089780247,-112.00
2025-06-12 13:32:44.275023,599617470089780247,-109.00
2025-06-12 13:32:44.275023,599617470089780247,-107.00
2025-06-12 13:32:44.275023,599617470089780247,-107.00
2025-06-12 13:32:44.275023,599617470089780247,-104.00
2025-06-12 13:32:44.275023,599617470089780247,-104.00
2025-06-12 13:32:44.275023,599617470089780247,-104.00
2025-06-12 13:32:44.275023,599617470089780247,-99.00
2025-06-12 13:32:44.275023,599617470089780247,-97.00
2025-06-12 13:32:44.275023,599617470089780247,-95.00
2025-06-12 13:32:44.275023,599617470089780247,-90.00
2025-06-12 13:32:44.275023,599617470089780247,-90.00
2025-06-12 13:32:44.275023,599617470089780247,-92.00
2025-06-12 13:32:44.275023,599617470089780247,-90.00
2025-06-12 13:32:44.275023,599617470089780247,-85.00
2025-06-12 13:32:44.275023,599617470089780247,-82.00
2025-06-12 13:32:44.275023,599617470089780247,-82.00
2025-06-12 13:32:44.275023,599617470089780247,-80.00
2025-06-12 13:32:44.275023,599617470089780247,-80.00
2025-06-12 13:32:44.275023,599617470089780247,-77.00
2025-06-12 13:32:44.275023,599617470089780247,-75.00
2025-06-12 13:32:44.275023,599617470089780247,-73.00
2025-06-12 13:32:44.275023,599617470089780247,-73.00
2025-06-12 13:32:44.275023,599617470089780247,-70.00
2025-06-12 13:32:44.275023,599617470089780247,-70.00
2025-06-12 13:32:44.275023,599617470089780247,-68.00
2025-06-12 13:32:44.275023,599617470089780247,-65.00
2025-06-12 13:32:44.275023,599617470089780247,-63.00
2025-06-12 13:32:44.275023,599617470089780247,-63.00
2025-06-12 13:32:44.275023,599617470089780247,-68.00
2025-06-12 13:32:44.275023,599617470089780247,-70.00
2025-06-12 13:32:44.275023,599617470089780247,-75.00
2025-06-12 13:32:44.275023,599617470089780247,-70.00
2025-06-12 13:32:44.275023,599617470089780247,-56.00
2025-06-12 13:32:44.275023,599617470089780247,-38.00
2025-06-12 13:32:44.275023,599617470089780247,-26.00
2025-06-12 13:32:44.275023,599617470089780247,-24.00
2025-06-12 13:32:44.275023,599617470089780247,-34.00
2025-06-12 13:32:44.275023,599617470089780247,-48.00
2025-06-12 13:32:44.275023,599617470089780247,-60.00
2025-06-12 13:32:44.275023,599617470089780247,-63.00
2025-06-12 13:32:44.275023,599617470089780247,-53.00
2025-06-12 13:32:44.275023,599617470089780247,-51.00
2025-06-12 13:32:44.275023,599617470089780247,-53.00
2025-06-12 13:32:44.275023,599617470089780247,-51.00
2025-06-12 13:32:44.275023,599617470089780247,-43.00
2025-06-12 13:32:44.275023,599617470089780247,-56.00
2025-06-12 13:32:44.275023,599617470089780247,-114.00
2025-06-12 13:32:44.275023,599617470089780247,-168.00
2025-06-12 13:32:44.872221,599617470650507806,51.00
2025-06-12 13:32:44.872221,599617470650507806,706.00
2025-06-12 13:32:44.872221,599617470650507806,1252.00
2025-06-12 13:32:44.872221,599617470650507806,760.00
2025-06-12 13:32:44.872221,599617470650507806,-380.00
2025-06-12 13:32:44.872221,599617470650507806,-701.00
2025-06-12 13:32:44.872221,599617470650507806,-248.00
2025-06-12 13:32:44.872221,599617470650507806,-70.00
2025-06-12 13:32:44.872221,599617470650507806,-107.00
2025-06-12 13:32:44.872221,599617470650507806,9.00
2025-06-12 13:32:44.872221,599617470650507806,58.00
2025-06-12 13:32:44.872221,599617470650507806,0.00
2025-06-12 13:32:44.872221,599617470650507806,19.00
2025-06-12 13:32:44.872221,599617470650507806,58.00
2025-06-12 13:32:44.872221,599617470650507806,51.00
2025-06-12 13:32:44.872221,599617470650507806,53.00
2025-06-12 13:32:44.872221,599617470650507806,70.00
2025-06-12 13:32:44.872221,599617470650507806,80.00
2025-06-12 13:32:44.872221,599617470650507806,92.00
2025-06-12 13:32:44.872221,599617470650507806,109.00
2025-06-12 13:32:44.872221,599617470650507806,124.00
2025-06-12 13:32:44.872221,599617470650507806,141.00
2025-06-12 13:32:44.872221,599617470650507806,165.00
2025-06-12 13:32:44.872221,599617470650507806,192.00
2025-06-12 13:32:44.872221,599617470650507806,219.00
2025-06-12 13:32:44.872221,599617470650507806,251.00
2025-06-12 13:32:44.872221,599617470650507806,294.00
2025-06-12 13:32:44.872221,599617470650507806,338.00
2025-06-12 13:32:44.872221,599617470650507806,375.00
2025-06-12 13:32:44.872221,599617470650507806,409.00
2025-06-12 13:32:44.872221,599617470650507806,438.00
2025-06-12 13:32:44.872221,599617470650507806,455.00
2025-06-12 13:32:44.872221,599617470650507806,443.00
2025-06-12 13:32:44.872221,599617470650507806,392.00
2025-06-12 13:32:44.872221,599617470650507806,290.00
2025-06-12 13:32:44.872221,599617470650507806,155.00
2025-06-12 13:32:44.872221,599617470650507806,24.00
2025-06-12 13:32:44.872221,599617470650507806,-82.00
2025-06-12 13:32:44.872221,599617470650507806,-165.00
2025-06-12 13:32:44.872221,599617470650507806,-221.00
2025-06-12 13:32:44.872221,599617470650507806,-255.00
2025-06-12 13:32:44.872221,599617470650507806,-270.00
2025-06-12 13:32:44.872221,599617470650507806,-270.00
2025-06-12 13:32:44.872221,599617470650507806,-265.00
2025-06-12 13:32:44.872221,599617470650507806,-263.00
2025-06-12 13:32:44.872221,599617470650507806,-253.00
2025-06-12 13:32:44.872221,599617470650507806,-238.00
2025-06-12 13:32:44.872221,599617470650507806,-226.00
2025-06-12 13:32:44.872221,599617470650507806,-221.00
2025-06-12 13:32:44.872221,599617470650507806,-219.00
2025-06-12 13:32:44.872221,599617470650507806,-212.00
2025-06-12 13:32:44.872221,599617470650507806,-202.00
2025-06-12 13:32:44.872221,599617470650507806,-194.00
2025-06-12 13:32:44.872221,599617470650507806,-185.00
2025-06-12 13:32:44.872221,599617470650507806,-175.00
2025-06-12 13:32:44.872221,599617470650507806,-170.00
2025-06-12 13:32:44.872221,599617470650507806,-168.00
2025-06-12 13:32:44.872221,599617470650507806,-158.00
2025-06-12 13:32:44.872221,599617470650507806,-143.00
2025-06-12 13:32:44.872221,599617470650507806,-138.00
2025-06-12 13:32:44.872221,599617470650507806,-146.00
2025-06-12 13:32:44.872221,599617470650507806,-151.00
2025-06-12 13:32:44.872221,599617470650507806,-141.00
2025-06-12 13:32:44.872221,599617470650507806,-129.00
2025-06-12 13:32:44.872221,599617470650507806,-131.00
2025-06-12 13:32:44.872221,599617470650507806,-129.00
2025-06-12 13:32:44.872221,599617470650507806,-116.00
2025-06-12 13:32:44.872221,599617470650507806,-116.00
2025-06-12 13:32:44.872221,599617470650507806,-124.00
2025-06-12 13:32:44.872221,599617470650507806,-119.00
2025-06-12 13:32:44.872221,599617470650507806,-116.00
2025-06-12 13:32:44.872221,599617470650507806,-119.00
2025-06-12 13:32:44.872221,599617470650507806,-109.00
2025-06-12 13:32:45.384100,599617471211235365,-104.00
2025-06-12 13:32:45.384100,599617471211235365,-107.00
2025-06-12 13:32:45.384100,599617471211235365,-109.00
2025-06-12 13:32:45.384100,599617471211235365,-112.00
2025-06-12 13:32:45.384100,599617471211235365,-104.00
2025-06-12 13:32:45.384100,599617471211235365,-97.00
2025-06-12 13:32:45.384100,599617471211235365,-95.00
2025-06-12 13:32:45.384100,599617471211235365,-95.00
2025-06-12 13:32:45.384100,599617471211235365,-90.00
2025-06-12 13:32:45.384100,599617471211235365,-92.00
2025-06-12 13:32:45.384100,599617471211235365,-95.00
2025-06-12 13:32:45.384100,599617471211235365,-85.00
2025-06-12 13:32:45.384100,599617471211235365,-85.00
2025-06-12 13:32:45.384100,599617471211235365,-90.00
2025-06-12 13:32:45.384100,599617471211235365,-85.00
2025-06-12 13:32:45.384100,599617471211235365,-77.00
2025-06-12 13:32:45.384100,599617471211235365,-77.00
2025-06-12 13:32:45.384100,599617471211235365,-77.00
2025-06-12 13:32:45.384100,599617471211235365,-75.00
2025-06-12 13:32:45.384100,599617471211235365,-82.00
2025-06-12 13:32:45.384100,599617471211235365,-95.00
2025-06-12 13:32:45.384100,599617471211235365,-90.00
2025-06-12 13:32:45.384100,599617471211235365,-70.00
2025-06-12 13:32:45.384100,599617471211235365,-60.00
2025-06-12 13:32:45.384100,599617471211235365,-43.00
2025-06-12 13:32:45.384100,599617471211235365,-38.00
2025-06-12 13:32:45.384100,599617471211235365,-51.00
2025-06-12 13:32:45.384100,599617471211235365,-68.00
2025-06-12 13:32:45.384100,599617471211235365,-80.00
2025-06-12 13:32:45.384100,599617471211235365,-80.00
2025-06-12 13:32:45.384100,599617471211235365,-68.00
2025-06-12 13:32:45.384100,599617471211235365,-73.00
2025-06-12 13:32:45.384100,599617471211235365,-77.00
2025-06-12 13:32:45.384100,599617471211235365,-65.00
2025-06-12 13:32:45.384100,599617471211235365,-60.00
2025-06-12 13:32:45.384100,599617471211235365,-77.00
2025-06-12 13:32:45.384100,599617471211235365,-124.00
2025-06-12 13:32:45.384100,599617471211235365,-187.00
2025-06-12 13:32:45.384100,599617471211235365,-36.00
2025-06-12 13:32:45.384100,599617471211235365,584.00
2025-06-12 13:32:45.384100,599617471211235365,1223.00
2025-06-12 13:32:45.384100,599617471211235365,887.00
2025-06-12 13:32:45.384100,599617471211235365,-280.00
2025-06-12 13:32:45.384100,599617471211235365,-779.00
2025-06-12 13:32:45.384100,599617471211235365,-350.00
2025-06-12 13:32:45.384100,599617471211235365,-99.00
2025-06-12 13:32:45.384100,599617471211235365,-155.00
2025-06-12 13:32:45.384100,599617471211235365,-53.00
2025-06-12 13:32:45.384100,599617471211235365,36.00
2025-06-12 13:32:45.384100,599617471211235365,-9.00
2025-06-12 13:32:45.384100,599617471211235365,-2.00
2025-06-12 13:32:45.384100,599617471211235365,36.00
2025-06-12 13:32:45.384100,599617471211235365,29.00
2025-06-12 13:32:45.384100,599617471211235365,31.00
2025-06-12 13:32:45.384100,599617471211235365,58.00
2025-06-12 13:32:45.384100,599617471211235365,73.00
2025-06-12 13:32:45.384100,599617471211235365,82.00
2025-06-12 13:32:45.384100,599617471211235365,95.00
2025-06-12 13:32:45.384100,599617471211235365,109.00
2025-06-12 13:32:45.384100,599617471211235365,131.00
2025-06-12 13:32:45.384100,599617471211235365,165.00
2025-06-12 13:32:45.384100,599617471211235365,192.00
2025-06-12 13:32:45.384100,599617471211235365,216.00
2025-06-12 13:32:45.384100,599617471211235365,248.00
2025-06-12 13:32:45.384100,599617471211235365,287.00
2025-06-12 13:32:45.384100,599617471211235365,333.00
2025-06-12 13:32:45.384100,599617471211235365,377.00
2025-06-12 13:32:45.384100,599617471211235365,414.00
2025-06-12 13:32:45.384100,599617471211235365,443.00
2025-06-12 13:32:45.384100,599617471211235365,463.00
2025-06-12 13:32:45.384100,599617471211235365,455.00
2025-06-12 13:32:45.384100,599617471211235365,399.00
2025-06-12 13:32:45.384100,599617471211235365,287.00
2025-06-12 13:32:45.954113,599617471771932406,148.00
2025-06-12 13:32:45.954113,599617471771932406,14.00
2025-06-12 13:32:45.954113,599617471771932406,-90.00
2025-06-12 13:32:45.954113,599617471771932406,-168.00
2025-06-12 13:32:45.954113,599617471771932406,-231.00
2025-06-12 13:32:45.954113,599617471771932406,-265.00
2025-06-12 13:32:45.954113,599617471771932406,-272.00
2025-06-12 13:32:45.954113,599617471771932406,-275.00
2025-06-12 13:32:45.954113,599617471771932406,-275.00
2025-06-12 13:32:45.954113,599617471771932406,-268.00
2025-06-12 13:32:45.954113,599617471771932406,-258.00
2025-06-12 13:32:45.954113,599617471771932406,-253.00
2025-06-12 13:32:45.954113,599617471771932406,-246.00
2025-06-12 13:32:45.954113,599617471771932406,-236.00
2025-06-12 13:32:45.954113,599617471771932406,-233.00
2025-06-12 13:32:45.954113,599617471771932406,-229.00
2025-06-12 13:32:45.954113,599617471771932406,-219.00
2025-06-12 13:32:45.954113,599617471771932406,-207.00
2025-06-12 13:32:45.954113,599617471771932406,-197.00
2025-06-12 13:32:45.954113,599617471771932406,-192.00
2025-06-12 13:32:45.954113,599617471771932406,-192.00
2025-06-12 13:32:45.954113,599617471771932406,-182.00
2025-06-12 13:32:45.954113,599617471771932406,-168.00
2025-06-12 13:32:45.954113,599617471771932406,-160.00
2025-06-12 13:32:45.954113,599617471771932406,-158.00
2025-06-12 13:32:45.954113,599617471771932406,-155.00
2025-06-12 13:32:45.954113,599617471771932406,-155.00
2025-06-12 13:32:45.954113,599617471771932406,-148.00
2025-06-12 13:32:45.954113,599617471771932406,-138.00
2025-06-12 13:32:45.954113,599617471771932406,-136.00
2025-06-12 13:32:45.954113,599617471771932406,-136.00
2025-06-12 13:32:45.954113,599617471771932406,-134.00
2025-06-12 13:32:45.954113,599617471771932406,-134.00
2025-06-12 13:32:45.954113,599617471771932406,-134.00
2025-06-12 13:32:45.954113,599617471771932406,-131.00
2025-06-12 13:32:45.954113,599617471771932406,-129.00
2025-06-12 13:32:45.954113,599617471771932406,-129.00
2025-06-12 13:32:45.954113,599617471771932406,-129.00
2025-06-12 13:32:45.954113,599617471771932406,-121.00
2025-06-12 13:32:45.954113,599617471771932406,-119.00
2025-06-12 13:32:45.954113,599617471771932406,-119.00
2025-06-12 13:32:45.954113,599617471771932406,-116.00
2025-06-12 13:32:45.954113,599617471771932406,-116.00
2025-06-12 13:32:45.954113,599617471771932406,-121.00
2025-06-12 13:32:45.954113,599617471771932406,-112.00
2025-06-12 13:32:45.954113,599617471771932406,-99.00
2025-06-12 13:32:45.954113,599617471771932406,-104.00
2025-06-12 13:32:45.954113,599617471771932406,-109.00
2025-06-12 13:32:45.954113,599617471771932406,-104.00
2025-06-12 13:32:45.954113,599617471771932406,-102.00
2025-06-12 13:32:45.954113,599617471771932406,-99.00
2025-06-12 13:32:45.954113,599617471771932406,-95.00
2025-06-12 13:32:45.954113,599617471771932406,-95.00
2025-06-12 13:32:45.954113,599617471771932406,-102.00
2025-06-12 13:32:45.954113,599617471771932406,-109.00
2025-06-12 13:32:45.954113,599617471771932406,-104.00
2025-06-12 13:32:45.954113,599617471771932406,-90.00
2025-06-12 13:32:45.954113,599617471771932406,-77.00
2025-06-12 13:32:45.954113,599617471771932406,-70.00
2025-06-12 13:32:45.954113,599617471771932406,-58.00
2025-06-12 13:32:45.954113,599617471771932406,-58.00
2025-06-12 13:32:45.954113,599617471771932406,-73.00
2025-06-12 13:32:45.954113,599617471771932406,-85.00
2025-06-12 13:32:45.954113,599617471771932406,-87.00
2025-06-12 13:32:45.954113,599617471771932406,-82.00
2025-06-12 13:32:45.954113,599617471771932406,-77.00
2025-06-12 13:32:45.954113,599617471771932406,-75.00
2025-06-12 13:32:45.954113,599617471771932406,-77.00
2025-06-12 13:32:45.954113,599617471771932406,-75.00
2025-06-12 13:32:45.954113,599617471771932406,-75.00
2025-06-12 13:32:45.954113,599617471771932406,-92.00
2025-06-12 13:32:45.954113,599617471771932406,-165.00
2025-06-12 13:32:45.954113,599617471771932406,-182.00
2025-06-12 13:32:46.524966,599617472332665053,180.00
2025-06-12 13:32:46.524966,599617472332665053,943.00
2025-06-12 13:32:46.524966,599617472332665053,1299.00
2025-06-12 13:32:46.524966,599617472332665053,467.00
2025-06-12 13:32:46.524966,599617472332665053,-638.00
2025-06-12 13:32:46.524966,599617472332665053,-650.00
2025-06-12 13:32:46.524966,599617472332665053,-158.00
2025-06-12 13:32:46.524966,599617472332665053,-104.00
2025-06-12 13:32:46.524966,599617472332665053,-124.00
2025-06-12 13:32:46.524966,599617472332665053,14.00
2025-06-12 13:32:46.524966,599617472332665053,26.00
2025-06-12 13:32:46.524966,599617472332665053,-24.00
2025-06-12 13:32:46.524966,599617472332665053,14.00
2025-06-12 13:32:46.524966,599617472332665053,38.00
2025-06-12 13:32:46.524966,599617472332665053,26.00
2025-06-12 13:32:46.524966,599617472332665053,41.00
2025-06-12 13:32:46.524966,599617472332665053,58.00
2025-06-12 13:32:46.524966,599617472332665053,60.00
2025-06-12 13:32:46.524966,599617472332665053,77.00
2025-06-12 13:32:46.524966,599617472332665053,99.00
2025-06-12 13:32:46.524966,599617472332665053,114.00
2025-06-12 13:32:46.524966,599617472332665053,131.00
2025-06-12 13:32:46.524966,599617472332665053,153.00
2025-06-12 13:32:46.524966,599617472332665053,180.00
2025-06-12 13:32:46.524966,599617472332665053,214.00
2025-06-12 13:32:46.524966,599617472332665053,253.00
2025-06-12 13:32:46.524966,599617472332665053,294.00
2025-06-12 13:32:46.524966,599617472332665053,341.00
2025-06-12 13:32:46.524966,599617472332665053,382.00
2025-06-12 13:32:46.524966,599617472332665053,414.00
2025-06-12 13:32:46.524966,599617472332665053,433.00
2025-06-12 13:32:46.524966,599617472332665053,443.00
2025-06-12 13:32:46.524966,599617472332665053,414.00
2025-06-12 13:32:46.524966,599617472332665053,333.00
2025-06-12 13:32:46.524966,599617472332665053,207.00
2025-06-12 13:32:46.524966,599617472332665053,68.00
2025-06-12 13:32:46.524966,599617472332665053,-60.00
2025-06-12 13:32:46.524966,599617472332665053,-158.00
2025-06-12 13:32:46.524966,599617472332665053,-226.00
2025-06-12 13:32:46.524966,599617472332665053,-265.00
2025-06-12 13:32:46.524966,599617472332665053,-287.00
2025-06-12 13:32:46.524966,599617472332665053,-297.00
2025-06-12 13:32:46.524966,599617472332665053,-297.00
2025-06-12 13:32:46.524966,599617472332665053,-290.00
2025-06-12 13:32:46.524966,599617472332665053,-280.00
2025-06-12 13:32:46.524966,599617472332665053,-275.00
2025-06-12 13:32:46.524966,599617472332665053,-265.00
2025-06-12 13:32:46.524966,599617472332665053,-255.00
2025-06-12 13:32:46.524966,599617472332665053,-251.00
2025-06-12 13:32:46.524966,599617472332665053,-243.00
2025-06-12 13:32:46.524966,599617472332665053,-233.00
2025-06-12 13:32:46.524966,599617472332665053,-224.00
2025-06-12 13:32:46.524966,599617472332665053,-216.00
2025-06-12 13:32:46.524966,599617472332665053,-209.00
2025-06-12 13:32:46.524966,599617472332665053,-199.00
2025-06-12 13:32:46.524966,599617472332665053,-190.00
2025-06-12 13:32:46.524966,599617472332665053,-182.00
2025-06-12 13:32:46.524966,599617472332665053,-173.00
2025-06-12 13:32:46.524966,599617472332665053,-163.00
2025-06-12 13:32:46.524966,599617472332665053,-158.00
2025-06-12 13:32:46.524966,599617472332665053,-153.00
2025-06-12 13:32:46.524966,599617472332665053,-153.00
2025-06-12 13:32:46.524966,599617472332665053,-151.00
2025-06-12 13:32:46.524966,599617472332665053,-141.00
2025-06-12 13:32:46.524966,599617472332665053,-138.00
2025-06-12 13:32:46.524966,599617472332665053,-138.00
2025-06-12 13:32:46.524966,599617472332665053,-136.00
2025-06-12 13:32:46.524966,599617472332665053,-131.00
2025-06-12 13:32:46.524966,599617472332665053,-131.00
2025-06-12 13:32:46.524966,599617472332665053,-131.00
2025-06-12 13:32:46.524966,599617472332665053,-129.00
2025-06-12 13:32:46.524966,599617472332665053,-126.00
2025-06-12 13:32:46.524966,599617472332665053,-124.00
2025-06-12 13:32:47.125992,599617472893418044,-119.00
2025-06-12 13:32:47.125992,599617472893418044,-116.00
2025-06-12 13:32:47.125992,599617472893418044,-116.00
2025-06-12 13:32:47.125992,599617472893418044,-116.00
2025-06-12 13:32:47.125992,599617472893418044,-116.00
2025-06-12 13:32:47.125992,599617472893418044,-112.00
2025-06-12 13:32:47.125992,599617472893418044,-104.00
2025-06-12 13:32:47.125992,599617472893418044,-104.00
2025-06-12 13:32:47.125992,599617472893418044,-102.00
2025-06-12 13:32:47.125992,599617472893418044,-97.00
2025-06-12 13:32:47.125992,599617472893418044,-97.00
2025-06-12 13:32:47.125992,599617472893418044,-97.00
2025-06-12 13:32:47.125992,599617472893418044,-95.00
2025-06-12 13:32:47.125992,599617472893418044,-90.00
2025-06-12 13:32:47.125992,599617472893418044,-87.00
2025-06-12 13:32:47.125992,599617472893418044,-87.00
2025-06-12 13:32:47.125992,599617472893418044,-85.00
2025-06-12 13:32:47.125992,599617472893418044,-87.00
2025-06-12 13:32:47.125992,599617472893418044,-87.00
2025-06-12 13:32:47.125992,599617472893418044,-80.00
2025-06-12 13:32:47.125992,599617472893418044,-75.00
2025-06-12 13:32:47.125992,599617472893418044,-75.00
2025-06-12 13:32:47.125992,599617472893418044,-77.00
2025-06-12 13:32:47.125992,599617472893418044,-75.00
2025-06-12 13:32:47.125992,599617472893418044,-73.00
2025-06-12 13:32:47.125992,599617472893418044,-75.00
2025-06-12 13:32:47.125992,599617472893418044,-75.00
2025-06-12 13:32:47.125992,599617472893418044,-70.00
2025-06-12 13:32:47.125992,599617472893418044,-75.00
2025-06-12 13:32:47.125992,599617472893418044,-80.00
2025-06-12 13:32:47.125992,599617472893418044,-80.00
2025-06-12 13:32:47.125992,599617472893418044,-70.00
2025-06-12 13:32:47.125992,599617472893418044,-58.00
2025-06-12 13:32:47.125992,599617472893418044,-48.00
2025-06-12 13:32:47.125992,599617472893418044,-38.00
2025-06-12 13:32:47.125992,599617472893418044,-36.00
2025-06-12 13:32:47.125992,599617472893418044,-48.00
2025-06-12 13:32:47.125992,599617472893418044,-63.00
2025-06-12 13:32:47.125992,599617472893418044,-70.00
2025-06-12 13:32:47.125992,599617472893418044,-68.00
2025-06-12 13:32:47.125992,599617472893418044,-65.00
2025-06-12 13:32:47.125992,599617472893418044,-65.00
2025-06-12 13:32:47.125992,599617472893418044,-60.00
2025-06-12 13:32:47.125992,599617472893418044,-56.00
2025-06-12 13:32:47.125992,599617472893418044,-56.00
2025-06-12 13:32:47.125992,599617472893418044,-70.00
2025-06-12 13:32:47.125992,599617472893418044,-138.00
2025-06-12 13:32:47.125992,599617472893418044,-194.00
2025-06-12 13:32:47.125992,599617472893418044,80.00
2025-06-12 13:32:47.125992,599617472893418044,826.00
2025-06-12 13:32:47.125992,599617472893418044,1367.00
2025-06-12 13:32:47.125992,599617472893418044,743.00
2025-06-12 13:32:47.125992,599617472893418044,-465.00
2025-06-12 13:32:47.125992,599617472893418044,-699.00
2025-06-12 13:32:47.125992,599617472893418044,-197.00
2025-06-12 13:32:47.125992,599617472893418044,-73.00
2025-06-12 13:32:47.125992,599617472893418044,-121.00
2025-06-12 13:32:47.125992,599617472893418044,2.00
2025-06-12 13:32:47.125992,599617472893418044,34.00
2025-06-12 13:32:47.125992,599617472893418044,-21.00
2025-06-12 13:32:47.125992,599617472893418044,9.00
2025-06-12 13:32:47.125992,599617472893418044,43.00
2025-06-12 13:32:47.125992,599617472893418044,31.00
2025-06-12 13:32:47.125992,599617472893418044,41.00
2025-06-12 13:32:47.125992,599617472893418044,63.00
2025-06-12 13:32:47.125992,599617472893418044,68.00
2025-06-12 13:32:47.125992,599617472893418044,77.00
2025-06-12 13:32:47.125992,599617472893418044,97.00
2025-06-12 13:32:47.125992,599617472893418044,112.00
2025-06-12 13:32:47.125992,599617472893418044,129.00
2025-06-12 13:32:47.125992,599617472893418044,153.00
2025-06-12 13:32:47.125992,599617472893418044,175.00
2025-06-12 13:32:47.125992,599617472893418044,204.00
2025-06-12 13:32:47.634318,599617473454145603,243.00
2025-06-12 13:32:47.634318,599617473454145603,285.00
2025-06-12 13:32:47.634318,599617473454145603,331.00
2025-06-12 13:32:47.634318,599617473454145603,375.00
2025-06-12 13:32:47.634318,599617473454145603,411.00
2025-06-12 13:32:47.634318,599617473454145603,438.00
2025-06-12 13:32:47.634318,599617473454145603,450.00
2025-06-12 13:32:47.634318,599617473454145603,441.00
2025-06-12 13:32:47.634318,599617473454145603,389.00
2025-06-12 13:32:47.634318,599617473454145603,285.00
2025-06-12 13:32:47.634318,599617473454145603,146.00
2025-06-12 13:32:47.634318,599617473454145603,9.00
2025-06-12 13:32:47.634318,599617473454145603,-99.00
2025-06-12 13:32:47.634318,599617473454145603,-177.00
2025-06-12 13:32:47.634318,599617473454145603,-231.00
2025-06-12 13:32:47.634318,599617473454145603,-268.00
2025-06-12 13:32:47.634318,599617473454145603,-287.00
2025-06-12 13:32:47.634318,599617473454145603,-290.00
2025-06-12 13:32:47.634318,599617473454145603,-285.00
2025-06-12 13:32:47.634318,599617473454145603,-277.00
2025-06-12 13:32:47.634318,599617473454145603,-268.00
2025-06-12 13:32:47.634318,599617473454145603,-263.00
2025-06-12 13:32:47.634318,599617473454145603,-253.00
2025-06-12 13:32:47.634318,599617473454145603,-238.00
2025-06-12 13:32:47.634318,599617473454145603,-229.00
2025-06-12 13:32:47.634318,599617473454145603,-221.00
2025-06-12 13:32:47.634318,599617473454145603,-209.00
2025-06-12 13:32:47.634318,599617473454145603,-204.00
2025-06-12 13:32:47.634318,599617473454145603,-199.00
2025-06-12 13:32:47.634318,599617473454145603,-192.00
2025-06-12 13:32:47.634318,599617473454145603,-185.00
2025-06-12 13:32:47.634318,599617473454145603,-177.00
2025-06-12 13:32:47.634318,599617473454145603,-168.00
2025-06-12 13:32:47.634318,599617473454145603,-163.00
2025-06-12 13:32:47.634318,599617473454145603,-160.00
2025-06-12 13:32:47.634318,599617473454145603,-155.00
2025-06-12 13:32:47.634318,599617473454145603,-151.00
2025-06-12 13:32:47.634318,599617473454145603,-146.00
2025-06-12 13:32:47.634318,599617473454145603,-141.00
2025-06-12 13:32:47.634318,599617473454145603,-141.00
2025-06-12 13:32:47.634318,599617473454145603,-141.00
2025-06-12 13:32:47.634318,599617473454145603,-134.00
2025-06-12 13:32:47.634318,599617473454145603,-124.00
2025-06-12 13:32:47.634318,599617473454145603,-124.00
2025-06-12 13:32:47.634318,599617473454145603,-126.00
2025-06-12 13:32:47.634318,599617473454145603,-119.00
2025-06-12 13:32:47.634318,599617473454145603,-116.00
2025-06-12 13:32:47.634318,599617473454145603,-116.00
2025-06-12 13:32:47.634318,599617473454145603,-116.00
2025-06-12 13:32:47.634318,599617473454145603,-114.00
2025-06-12 13:32:47.634318,599617473454145603,-112.00
2025-06-12 13:32:47.634318,599617473454145603,-109.00
2025-06-12 13:32:47.634318,599617473454145603,-107.00
2025-06-12 13:32:47.634318,599617473454145603,-107.00
2025-06-12 13:32:47.634318,599617473454145603,-107.00
2025-06-12 13:32:47.634318,599617473454145603,-104.00
2025-06-12 13:32:47.634318,599617473454145603,-97.00
2025-06-12 13:32:47.634318,599617473454145603,-95.00
2025-06-12 13:32:47.634318,599617473454145603,-95.00
2025-06-12 13:32:47.634318,599617473454145603,-95.00
2025-06-12 13:32:47.634318,599617473454145603,-92.00
2025-06-12 13:32:47.634318,599617473454145603,-90.00
2025-06-12 13:32:47.634318,599617473454145603,-87.00
2025-06-12 13:32:47.634318,599617473454145603,-85.00
2025-06-12 13:32:47.634318,599617473454145603,-90.00
2025-06-12 13:32:47.634318,599617473454145603,-87.00
2025-06-12 13:32:47.634318,599617473454145603,-80.00
2025-06-12 13:32:47.634318,599617473454145603,-77.00
2025-06-12 13:32:47.634318,599617473454145603,-73.00
2025-06-12 13:32:47.634318,599617473454145603,-73.00
2025-06-12 13:32:47.634318,599617473454145603,-77.00
2025-06-12 13:32:47.634318,599617473454145603,-80.00
2025-06-12 13:32:47.634318,599617473454145603,-75.00
2025-06-12 13:32:48.203527,599617474014873162,-70.00
2025-06-12 13:32:48.203527,599617474014873162,-70.00
2025-06-12 13:32:48.203527,599617474014873162,-73.00
2025-06-12 13:32:48.203527,599617474014873162,-70.00
2025-06-12 13:32:48.203527,599617474014873162,-65.00
2025-06-12 13:32:48.203527,599617474014873162,-68.00
2025-06-12 13:32:48.203527,599617474014873162,-75.00
2025-06-12 13:32:48.203527,599617474014873162,-80.00
2025-06-12 13:32:48.203527,599617474014873162,-65.00
2025-06-12 13:32:48.203527,599617474014873162,-51.00
2025-06-12 13:32:48.203527,599617474014873162,-43.00
2025-06-12 13:32:48.203527,599617474014873162,-36.00
2025-06-12 13:32:48.203527,599617474014873162,-38.00
2025-06-12 13:32:48.203527,599617474014873162,-48.00
2025-06-12 13:32:48.203527,599617474014873162,-56.00
2025-06-12 13:32:48.203527,599617474014873162,-63.00
2025-06-12 13:32:48.203527,599617474014873162,-60.00
2025-06-12 13:32:48.203527,599617474014873162,-56.00
2025-06-12 13:32:48.203527,599617474014873162,-56.00
2025-06-12 13:32:48.203527,599617474014873162,-58.00
2025-06-12 13:32:48.203527,599617474014873162,-56.00
2025-06-12 13:32:48.203527,599617474014873162,-58.00
2025-06-12 13:32:48.203527,599617474014873162,-63.00
2025-06-12 13:32:48.203527,599617474014873162,-112.00
2025-06-12 13:32:48.203527,599617474014873162,-199.00
2025-06-12 13:32:48.203527,599617474014873162,-51.00
2025-06-12 13:32:48.203527,599617474014873162,602.00
2025-06-12 13:32:48.203527,599617474014873162,1311.00
2025-06-12 13:32:48.203527,599617474014873162,1033.00
2025-06-12 13:32:48.203527,599617474014873162,-170.00
2025-06-12 13:32:48.203527,599617474014873162,-755.00
2025-06-12 13:32:48.203527,599617474014873162,-329.00
2025-06-12 13:32:48.203527,599617474014873162,-53.00
2025-06-12 13:32:48.203527,599617474014873162,-121.00
2025-06-12 13:32:48.203527,599617474014873162,-31.00
2025-06-12 13:32:48.203527,599617474014873162,56.00
2025-06-12 13:32:48.203527,599617474014873162,2.00
2025-06-12 13:32:48.203527,599617474014873162,2.00
2025-06-12 13:32:48.203527,599617474014873162,48.00
2025-06-12 13:32:48.203527,599617474014873162,46.00
2025-06-12 13:32:48.203527,599617474014873162,48.00
2025-06-12 13:32:48.203527,599617474014873162,70.00
2025-06-12 13:32:48.203527,599617474014873162,80.00
2025-06-12 13:32:48.203527,599617474014873162,87.00
2025-06-12 13:32:48.203527,599617474014873162,102.00
2025-06-12 13:32:48.203527,599617474014873162,116.00
2025-06-12 13:32:48.203527,599617474014873162,136.00
2025-06-12 13:32:48.203527,599617474014873162,158.00
2025-06-12 13:32:48.203527,599617474014873162,177.00
2025-06-12 13:32:48.203527,599617474014873162,212.00
2025-06-12 13:32:48.203527,599617474014873162,251.00
2025-06-12 13:32:48.203527,599617474014873162,285.00
2025-06-12 13:32:48.203527,599617474014873162,329.00
2025-06-12 13:32:48.203527,599617474014873162,375.00
2025-06-12 13:32:48.203527,599617474014873162,409.00
2025-06-12 13:32:48.203527,599617474014873162,441.00
2025-06-12 13:32:48.203527,599617474014873162,463.00
2025-06-12 13:32:48.203527,599617474014873162,465.00
2025-06-12 13:32:48.203527,599617474014873162,421.00
2025-06-12 13:32:48.203527,599617474014873162,321.00
2025-06-12 13:32:48.203527,599617474014873162,187.00
2025-06-12 13:32:48.203527,599617474014873162,51.00
2025-06-12 13:32:48.203527,599617474014873162,-70.00
2025-06-12 13:32:48.203527,599617474014873162,-163.00
2025-06-12 13:32:48.203527,599617474014873162,-226.00
2025-06-12 13:32:48.203527,599617474014873162,-263.00
2025-06-12 13:32:48.203527,599617474014873162,-282.00
2025-06-12 13:32:48.203527,599617474014873162,-292.00
2025-06-12 13:32:48.203527,599617474014873162,-294.00
2025-06-12 13:32:48.203527,599617474014873162,-287.00
2025-06-12 13:32:48.203527,599617474014873162,-277.00
2025-06-12 13:32:48.203527,599617474014873162,-265.00
2025-06-12 13:32:48.203527,599617474014873162,-251.00
2025-06-12 13:32:48.747050,599617474575600721,-246.00
2025-06-12 13:32:48.747050,599617474575600721,-246.00
2025-06-12 13:32:48.747050,599617474575600721,-238.00
2025-06-12 13:32:48.747050,599617474575600721,-226.00
2025-06-12 13:32:48.747050,599617474575600721,-221.00
2025-06-12 13:32:48.747050,599617474575600721,-216.00
2025-06-12 13:32:48.747050,599617474575600721,-204.00
2025-06-12 13:32:48.747050,599617474575600721,-192.00
2025-06-12 13:32:48.747050,599617474575600721,-187.00
2025-06-12 13:32:48.747050,599617474575600721,-185.00
2025-06-12 13:32:48.747050,599617474575600721,-175.00
2025-06-12 13:32:48.747050,599617474575600721,-165.00
2025-06-12 13:32:48.747050,599617474575600721,-163.00
2025-06-12 13:32:48.747050,599617474575600721,-165.00
2025-06-12 13:32:48.747050,599617474575600721,-155.00
2025-06-12 13:32:48.747050,599617474575600721,-148.00
2025-06-12 13:32:48.747050,599617474575600721,-148.00
2025-06-12 13:32:48.747050,599617474575600721,-146.00
2025-06-12 13:32:48.747050,599617474575600721,-141.00
2025-06-12 13:32:48.747050,599617474575600721,-141.00
2025-06-12 13:32:48.747050,599617474575600721,-138.00
2025-06-12 13:32:48.747050,599617474575600721,-129.00
2025-06-12 13:32:48.747050,599617474575600721,-131.00
2025-06-12 13:32:48.747050,599617474575600721,-134.00
2025-06-12 13:32:48.747050,599617474575600721,-124.00
2025-06-12 13:32:48.747050,599617474575600721,-121.00
2025-06-12 13:32:48.747050,599617474575600721,-126.00
2025-06-12 13:32:48.747050,599617474575600721,-121.00
2025-06-12 13:32:48.747050,599617474575600721,-114.00
2025-06-12 13:32:48.747050,599617474575600721,-114.00
2025-06-12 13:32:48.747050,599617474575600721,-116.00
2025-06-12 13:32:48.747050,599617474575600721,-112.00
2025-06-12 13:32:48.747050,599617474575600721,-107.00
2025-06-12 13:32:48.747050,599617474575600721,-109.00
2025-06-12 13:32:48.747050,599617474575600721,-109.00
2025-06-12 13:32:48.747050,599617474575600721,-107.00
2025-06-12 13:32:48.747050,599617474575600721,-102.00
2025-06-12 13:32:48.747050,599617474575600721,-99.00
2025-06-12 13:32:48.747050,599617474575600721,-97.00
2025-06-12 13:32:48.747050,599617474575600721,-97.00
2025-06-12 13:32:48.747050,599617474575600721,-102.00
2025-06-12 13:32:48.747050,599617474575600721,-99.00
2025-06-12 13:32:48.747050,599617474575600721,-95.00
2025-06-12 13:32:48.747050,599617474575600721,-92.00
2025-06-12 13:32:48.747050,599617474575600721,-90.00
2025-06-12 13:32:48.747050,599617474575600721,-92.00
2025-06-12 13:32:48.747050,599617474575600721,-95.00
2025-06-12 13:32:48.747050,599617474575600721,-87.00
2025-06-12 13:32:48.747050,599617474575600721,-82.00
2025-06-12 13:32:48.747050,599617474575600721,-85.00
2025-06-12 13:32:48.747050,599617474575600721,-87.00
2025-06-12 13:32:48.747050,599617474575600721,-87.00
2025-06-12 13:32:48.747050,599617474575600721,-90.00
2025-06-12 13:32:48.747050,599617474575600721,-85.00
2025-06-12 13:32:48.747050,599617474575600721,-70.00
2025-06-12 13:32:48.747050,599617474575600721,-58.00
2025-06-12 13:32:48.747050,599617474575600721,-51.00
2025-06-12 13:32:48.747050,599617474575600721,-48.00
2025-06-12 13:32:48.747050,599617474575600721,-60.00
2025-06-12 13:32:48.747050,599617474575600721,-75.00
2025-06-12 13:32:48.747050,599617474575600721,-85.00
2025-06-12 13:32:48.747050,599617474575600721,-82.00
2025-06-12 13:32:48.747050,599617474575600721,-75.00
2025-06-12 13:32:48.747050,599617474575600721,-73.00
2025-06-12 13:32:48.747050,599617474575600721,-73.00
2025-06-12 13:32:48.747050,599617474575600721,-68.00
2025-06-12 13:32:48.747050,599617474575600721,-60.00
2025-06-12 13:32:48.747050,599617474575600721,-73.00
2025-06-12 13:32:48.747050,599617474575600721,-129.00
2025-06-12 13:32:48.747050,599617474575600721,-207.00
2025-06-12 13:32:48.747050,599617474575600721,-41.00
2025-06-12 13:32:48.747050,599617474575600721,619.00
2025-06-12 13:32:48.747050,599617474575600721,1306.00
2025-06-12 13:32:49.312050,599617475136328280,977.00
2025-06-12 13:32:49.312050,599617475136328280,-241.00
2025-06-12 13:32:49.312050,599617475136328280,-782.00
2025-06-12 13:32:49.312050,599617475136328280,-333.00
2025-06-12 13:32:49.312050,599617475136328280,-65.00
2025-06-12 13:32:49.312050,599617475136328280,-131.00
2025-06-12 13:32:49.312050,599617475136328280,-31.00
2025-06-12 13:32:49.312050,599617475136328280,51.00
2025-06-12 13:32:49.312050,599617475136328280,-7.00
2025-06-12 13:32:49.312050,599617475136328280,0.00
2025-06-12 13:32:49.312050,599617475136328280,43.00
2025-06-12 13:32:49.312050,599617475136328280,38.00
2025-06-12 13:32:49.312050,599617475136328280,38.00
2025-06-12 13:32:49.312050,599617475136328280,58.00
2025-06-12 13:32:49.312050,599617475136328280,70.00
2025-06-12 13:32:49.312050,599617475136328280,77.00
2025-06-12 13:32:49.312050,599617475136328280,95.00
2025-06-12 13:32:49.312050,599617475136328280,112.00
2025-06-12 13:32:49.312050,599617475136328280,129.00
2025-06-12 13:32:49.312050,599617475136328280,151.00
2025-06-12 13:32:49.312050,599617475136328280,175.00
2025-06-12 13:32:49.312050,599617475136328280,204.00
2025-06-12 13:32:49.312050,599617475136328280,241.00
2025-06-12 13:32:49.312050,599617475136328280,285.00
2025-06-12 13:32:49.312050,599617475136328280,326.00
2025-06-12 13:32:49.312050,599617475136328280,368.00
2025-06-12 13:32:49.312050,599617475136328280,414.00
2025-06-12 13:32:49.312050,599617475136328280,448.00
2025-06-12 13:32:49.312050,599617475136328280,463.00
2025-06-12 13:32:49.312050,599617475136328280,455.00
2025-06-12 13:32:49.312050,599617475136328280,407.00
2025-06-12 13:32:49.312050,599617475136328280,307.00
2025-06-12 13:32:49.312050,599617475136328280,170.00
2025-06-12 13:32:49.312050,599617475136328280,29.00
2025-06-12 13:32:49.312050,599617475136328280,-92.00
2025-06-12 13:32:49.312050,599617475136328280,-180.00
2025-06-12 13:32:49.312050,599617475136328280,-241.00
2025-06-12 13:32:49.312050,599617475136328280,-275.00
2025-06-12 13:32:49.312050,599617475136328280,-292.00
2025-06-12 13:32:49.312050,599617475136328280,-302.00
2025-06-12 13:32:49.312050,599617475136328280,-302.00
2025-06-12 13:32:49.312050,599617475136328280,-290.00
2025-06-12 13:32:49.312050,599617475136328280,-277.00
2025-06-12 13:32:49.312050,599617475136328280,-275.00
2025-06-12 13:32:49.312050,599617475136328280,-268.00
2025-06-12 13:32:49.312050,599617475136328280,-253.00
2025-06-12 13:32:49.312050,599617475136328280,-243.00
2025-06-12 13:32:49.312050,599617475136328280,-236.00
2025-06-12 13:32:49.312050,599617475136328280,-233.00
2025-06-12 13:32:49.312050,599617475136328280,-226.00
2025-06-12 13:32:49.312050,599617475136328280,-219.00
2025-06-12 13:32:49.312050,599617475136328280,-209.00
2025-06-12 13:32:49.312050,599617475136328280,-194.00
2025-06-12 13:32:49.312050,599617475136328280,-187.00
2025-06-12 13:32:49.312050,599617475136328280,-187.00
2025-06-12 13:32:49.312050,599617475136328280,-182.00
2025-06-12 13:32:49.312050,599617475136328280,-173.00
2025-06-12 13:32:49.312050,599617475136328280,-168.00
2025-06-12 13:32:49.312050,599617475136328280,-160.00
2025-06-12 13:32:49.312050,599617475136328280,-153.00
2025-06-12 13:32:49.312050,599617475136328280,-151.00
2025-06-12 13:32:49.312050,599617475136328280,-143.00
2025-06-12 13:32:49.312050,599617475136328280,-138.00
2025-06-12 13:32:49.312050,599617475136328280,-136.00
2025-06-12 13:32:49.312050,599617475136328280,-136.00
2025-06-12 13:32:49.312050,599617475136328280,-134.00
2025-06-12 13:32:49.312050,599617475136328280,-131.00
2025-06-12 13:32:49.312050,599617475136328280,-126.00
2025-06-12 13:32:49.312050,599617475136328280,-124.00
2025-06-12 13:32:49.312050,599617475136328280,-121.00
2025-06-12 13:32:49.312050,599617475136328280,-121.00
2025-06-12 13:32:49.312050,599617475136328280,-119.00
2025-06-12 13:32:49.312050,599617475136328280,-114.00
2025-06-12 13:32:49.912156,599617475697055841,-112.00
2025-06-12 13:32:49.912156,599617475697055841,-114.00
2025-06-12 13:32:49.912156,599617475697055841,-112.00
2025-06-12 13:32:49.912156,599617475697055841,-109.00
2025-06-12 13:32:49.912156,599617475697055841,-107.00
2025-06-12 13:32:49.912156,599617475697055841,-104.00
2025-06-12 13:32:49.912156,599617475697055841,-99.00
2025-06-12 13:32:49.912156,599617475697055841,-92.00
2025-06-12 13:32:49.912156,599617475697055841,-95.00
2025-06-12 13:32:49.912156,599617475697055841,-97.00
2025-06-12 13:32:49.912156,599617475697055841,-92.00
2025-06-12 13:32:49.912156,599617475697055841,-85.00
2025-06-12 13:32:49.912156,599617475697055841,-82.00
2025-06-12 13:32:49.912156,599617475697055841,-85.00
2025-06-12 13:32:49.912156,599617475697055841,-87.00
