Timestamp,Device Timestamp (ns),ECG Value (uV)
2025-06-12 13:21:48.820937,599616814629384652,375.00
2025-06-12 13:21:48.820937,599616814629384652,399.00
2025-06-12 13:21:48.820937,599616814629384652,416.00
2025-06-12 13:21:48.820937,599616814629384652,399.00
2025-06-12 13:21:48.820937,599616814629384652,341.00
2025-06-12 13:21:48.820937,599616814629384652,248.00
2025-06-12 13:21:48.820937,599616814629384652,124.00
2025-06-12 13:21:48.820937,599616814629384652,-9.00
2025-06-12 13:21:48.820937,599616814629384652,-121.00
2025-06-12 13:21:48.820937,599616814629384652,-192.00
2025-06-12 13:21:48.820937,599616814629384652,-241.00
2025-06-12 13:21:48.820937,599616814629384652,-272.00
2025-06-12 13:21:48.820937,599616814629384652,-282.00
2025-06-12 13:21:48.820937,599616814629384652,-275.00
2025-06-12 13:21:48.820937,599616814629384652,-270.00
2025-06-12 13:21:48.820937,599616814629384652,-263.00
2025-06-12 13:21:48.820937,599616814629384652,-255.00
2025-06-12 13:21:48.820937,599616814629384652,-248.00
2025-06-12 13:21:48.820937,599616814629384652,-236.00
2025-06-12 13:21:48.820937,599616814629384652,-221.00
2025-06-12 13:21:48.820937,599616814629384652,-214.00
2025-06-12 13:21:48.820937,599616814629384652,-209.00
2025-06-12 13:21:48.820937,599616814629384652,-199.00
2025-06-12 13:21:48.820937,599616814629384652,-192.00
2025-06-12 13:21:48.820937,599616814629384652,-187.00
2025-06-12 13:21:48.820937,599616814629384652,-175.00
2025-06-12 13:21:48.820937,599616814629384652,-168.00
2025-06-12 13:21:48.820937,599616814629384652,-163.00
2025-06-12 13:21:48.820937,599616814629384652,-158.00
2025-06-12 13:21:48.820937,599616814629384652,-153.00
2025-06-12 13:21:48.820937,599616814629384652,-148.00
2025-06-12 13:21:48.820937,599616814629384652,-143.00
2025-06-12 13:21:48.820937,599616814629384652,-138.00
2025-06-12 13:21:48.820937,599616814629384652,-138.00
2025-06-12 13:21:48.820937,599616814629384652,-138.00
2025-06-12 13:21:48.820937,599616814629384652,-136.00
2025-06-12 13:21:48.820937,599616814629384652,-134.00
2025-06-12 13:21:48.820937,599616814629384652,-131.00
2025-06-12 13:21:48.820937,599616814629384652,-126.00
2025-06-12 13:21:48.820937,599616814629384652,-124.00
2025-06-12 13:21:48.820937,599616814629384652,-124.00
2025-06-12 13:21:48.820937,599616814629384652,-121.00
2025-06-12 13:21:48.820937,599616814629384652,-116.00
2025-06-12 13:21:48.820937,599616814629384652,-114.00
2025-06-12 13:21:48.820937,599616814629384652,-112.00
2025-06-12 13:21:48.820937,599616814629384652,-116.00
2025-06-12 13:21:48.820937,599616814629384652,-119.00
2025-06-12 13:21:48.820937,599616814629384652,-112.00
2025-06-12 13:21:48.820937,599616814629384652,-109.00
2025-06-12 13:21:48.820937,599616814629384652,-114.00
2025-06-12 13:21:48.820937,599616814629384652,-109.00
2025-06-12 13:21:48.820937,599616814629384652,-102.00
2025-06-12 13:21:48.820937,599616814629384652,-102.00
2025-06-12 13:21:48.820937,599616814629384652,-99.00
2025-06-12 13:21:48.820937,599616814629384652,-95.00
2025-06-12 13:21:48.820937,599616814629384652,-95.00
2025-06-12 13:21:48.820937,599616814629384652,-95.00
2025-06-12 13:21:48.820937,599616814629384652,-95.00
2025-06-12 13:21:48.820937,599616814629384652,-87.00
2025-06-12 13:21:48.820937,599616814629384652,-80.00
2025-06-12 13:21:48.820937,599616814629384652,-80.00
2025-06-12 13:21:48.820937,599616814629384652,-60.00
2025-06-12 13:21:48.820937,599616814629384652,-46.00
2025-06-12 13:21:48.820937,599616814629384652,-60.00
2025-06-12 13:21:48.820937,599616814629384652,-90.00
2025-06-12 13:21:48.820937,599616814629384652,-95.00
2025-06-12 13:21:48.820937,599616814629384652,-85.00
2025-06-12 13:21:48.820937,599616814629384652,-87.00
2025-06-12 13:21:48.820937,599616814629384652,-92.00
2025-06-12 13:21:48.820937,599616814629384652,-82.00
2025-06-12 13:21:48.820937,599616814629384652,-77.00
2025-06-12 13:21:48.820937,599616814629384652,-80.00
2025-06-12 13:21:48.820937,599616814629384652,-87.00
2025-06-12 13:21:49.362856,599616815190051175,-136.00
2025-06-12 13:21:49.362856,599616815190051175,-204.00
2025-06-12 13:21:49.362856,599616815190051175,-31.00
2025-06-12 13:21:49.362856,599616815190051175,602.00
2025-06-12 13:21:49.362856,599616815190051175,1179.00
2025-06-12 13:21:49.362856,599616815190051175,738.00
2025-06-12 13:21:49.362856,599616815190051175,-426.00
2025-06-12 13:21:49.362856,599616815190051175,-804.00
2025-06-12 13:21:49.362856,599616815190051175,-304.00
2025-06-12 13:21:49.362856,599616815190051175,-77.00
2025-06-12 13:21:49.362856,599616815190051175,-138.00
2025-06-12 13:21:49.362856,599616815190051175,-26.00
2025-06-12 13:21:49.362856,599616815190051175,38.00
2025-06-12 13:21:49.362856,599616815190051175,-21.00
2025-06-12 13:21:49.362856,599616815190051175,2.00
2025-06-12 13:21:49.362856,599616815190051175,43.00
2025-06-12 13:21:49.362856,599616815190051175,29.00
2025-06-12 13:21:49.362856,599616815190051175,34.00
2025-06-12 13:21:49.362856,599616815190051175,60.00
2025-06-12 13:21:49.362856,599616815190051175,65.00
2025-06-12 13:21:49.362856,599616815190051175,73.00
2025-06-12 13:21:49.362856,599616815190051175,95.00
2025-06-12 13:21:49.362856,599616815190051175,112.00
2025-06-12 13:21:49.362856,599616815190051175,126.00
2025-06-12 13:21:49.362856,599616815190051175,151.00
2025-06-12 13:21:49.362856,599616815190051175,180.00
2025-06-12 13:21:49.362856,599616815190051175,209.00
2025-06-12 13:21:49.362856,599616815190051175,241.00
2025-06-12 13:21:49.362856,599616815190051175,277.00
2025-06-12 13:21:49.362856,599616815190051175,321.00
2025-06-12 13:21:49.362856,599616815190051175,358.00
2025-06-12 13:21:49.362856,599616815190051175,387.00
2025-06-12 13:21:49.362856,599616815190051175,404.00
2025-06-12 13:21:49.362856,599616815190051175,411.00
2025-06-12 13:21:49.362856,599616815190051175,392.00
2025-06-12 13:21:49.362856,599616815190051175,331.00
2025-06-12 13:21:49.362856,599616815190051175,221.00
2025-06-12 13:21:49.362856,599616815190051175,85.00
2025-06-12 13:21:49.362856,599616815190051175,-41.00
2025-06-12 13:21:49.362856,599616815190051175,-136.00
2025-06-12 13:21:49.362856,599616815190051175,-202.00
2025-06-12 13:21:49.362856,599616815190051175,-246.00
2025-06-12 13:21:49.362856,599616815190051175,-270.00
2025-06-12 13:21:49.362856,599616815190051175,-277.00
2025-06-12 13:21:49.362856,599616815190051175,-275.00
2025-06-12 13:21:49.362856,599616815190051175,-270.00
2025-06-12 13:21:49.362856,599616815190051175,-260.00
2025-06-12 13:21:49.362856,599616815190051175,-251.00
2025-06-12 13:21:49.362856,599616815190051175,-241.00
2025-06-12 13:21:49.362856,599616815190051175,-233.00
2025-06-12 13:21:49.362856,599616815190051175,-219.00
2025-06-12 13:21:49.362856,599616815190051175,-212.00
2025-06-12 13:21:49.362856,599616815190051175,-209.00
2025-06-12 13:21:49.362856,599616815190051175,-199.00
2025-06-12 13:21:49.362856,599616815190051175,-185.00
2025-06-12 13:21:49.362856,599616815190051175,-182.00
2025-06-12 13:21:49.362856,599616815190051175,-177.00
2025-06-12 13:21:49.362856,599616815190051175,-168.00
2025-06-12 13:21:49.362856,599616815190051175,-158.00
2025-06-12 13:21:49.362856,599616815190051175,-153.00
2025-06-12 13:21:49.362856,599616815190051175,-148.00
2025-06-12 13:21:49.362856,599616815190051175,-146.00
2025-06-12 13:21:49.362856,599616815190051175,-141.00
2025-06-12 13:21:49.362856,599616815190051175,-138.00
2025-06-12 13:21:49.362856,599616815190051175,-138.00
2025-06-12 13:21:49.362856,599616815190051175,-138.00
2025-06-12 13:21:49.362856,599616815190051175,-134.00
2025-06-12 13:21:49.362856,599616815190051175,-131.00
2025-06-12 13:21:49.362856,599616815190051175,-131.00
2025-06-12 13:21:49.362856,599616815190051175,-129.00
2025-06-12 13:21:49.362856,599616815190051175,-126.00
2025-06-12 13:21:49.362856,599616815190051175,-126.00
2025-06-12 13:21:49.362856,599616815190051175,-126.00
2025-06-12 13:21:49.932082,599616815750717698,-124.00
2025-06-12 13:21:49.932082,599616815750717698,-121.00
2025-06-12 13:21:49.932082,599616815750717698,-121.00
2025-06-12 13:21:49.932082,599616815750717698,-121.00
2025-06-12 13:21:49.932082,599616815750717698,-119.00
2025-06-12 13:21:49.932082,599616815750717698,-114.00
2025-06-12 13:21:49.932082,599616815750717698,-112.00
2025-06-12 13:21:49.932082,599616815750717698,-112.00
2025-06-12 13:21:49.932082,599616815750717698,-109.00
2025-06-12 13:21:49.932082,599616815750717698,-112.00
2025-06-12 13:21:49.932082,599616815750717698,-112.00
2025-06-12 13:21:49.932082,599616815750717698,-107.00
2025-06-12 13:21:49.932082,599616815750717698,-102.00
2025-06-12 13:21:49.932082,599616815750717698,-102.00
2025-06-12 13:21:49.932082,599616815750717698,-99.00
2025-06-12 13:21:49.932082,599616815750717698,-97.00
2025-06-12 13:21:49.932082,599616815750717698,-95.00
2025-06-12 13:21:49.932082,599616815750717698,-95.00
2025-06-12 13:21:49.932082,599616815750717698,-95.00
2025-06-12 13:21:49.932082,599616815750717698,-90.00
2025-06-12 13:21:49.932082,599616815750717698,-70.00
2025-06-12 13:21:49.932082,599616815750717698,-46.00
2025-06-12 13:21:49.932082,599616815750717698,-53.00
2025-06-12 13:21:49.932082,599616815750717698,-85.00
2025-06-12 13:21:49.932082,599616815750717698,-102.00
2025-06-12 13:21:49.932082,599616815750717698,-97.00
2025-06-12 13:21:49.932082,599616815750717698,-92.00
2025-06-12 13:21:49.932082,599616815750717698,-97.00
2025-06-12 13:21:49.932082,599616815750717698,-97.00
2025-06-12 13:21:49.932082,599616815750717698,-90.00
2025-06-12 13:21:49.932082,599616815750717698,-90.00
2025-06-12 13:21:49.932082,599616815750717698,-92.00
2025-06-12 13:21:49.932082,599616815750717698,-112.00
2025-06-12 13:21:49.932082,599616815750717698,-192.00
2025-06-12 13:21:49.932082,599616815750717698,-175.00
2025-06-12 13:21:49.932082,599616815750717698,270.00
2025-06-12 13:21:49.932082,599616815750717698,1013.00
2025-06-12 13:21:49.932082,599616815750717698,1108.00
2025-06-12 13:21:49.932082,599616815750717698,75.00
2025-06-12 13:21:49.932082,599616815750717698,-809.00
2025-06-12 13:21:49.932082,599616815750717698,-536.00
2025-06-12 13:21:49.932082,599616815750717698,-92.00
2025-06-12 13:21:49.932082,599616815750717698,-126.00
2025-06-12 13:21:49.932082,599616815750717698,-97.00
2025-06-12 13:21:49.932082,599616815750717698,29.00
2025-06-12 13:21:49.932082,599616815750717698,-4.00
2025-06-12 13:21:49.932082,599616815750717698,-31.00
2025-06-12 13:21:49.932082,599616815750717698,17.00
2025-06-12 13:21:49.932082,599616815750717698,21.00
2025-06-12 13:21:49.932082,599616815750717698,14.00
2025-06-12 13:21:49.932082,599616815750717698,36.00
2025-06-12 13:21:49.932082,599616815750717698,51.00
2025-06-12 13:21:49.932082,599616815750717698,56.00
2025-06-12 13:21:49.932082,599616815750717698,73.00
2025-06-12 13:21:49.932082,599616815750717698,90.00
2025-06-12 13:21:49.932082,599616815750717698,104.00
2025-06-12 13:21:49.932082,599616815750717698,124.00
2025-06-12 13:21:49.932082,599616815750717698,151.00
2025-06-12 13:21:49.932082,599616815750717698,175.00
2025-06-12 13:21:49.932082,599616815750717698,204.00
2025-06-12 13:21:49.932082,599616815750717698,241.00
2025-06-12 13:21:49.932082,599616815750717698,280.00
2025-06-12 13:21:49.932082,599616815750717698,319.00
2025-06-12 13:21:49.932082,599616815750717698,353.00
2025-06-12 13:21:49.932082,599616815750717698,380.00
2025-06-12 13:21:49.932082,599616815750717698,392.00
2025-06-12 13:21:49.932082,599616815750717698,385.00
2025-06-12 13:21:49.932082,599616815750717698,350.00
2025-06-12 13:21:49.932082,599616815750717698,265.00
2025-06-12 13:21:49.932082,599616815750717698,138.00
2025-06-12 13:21:49.932082,599616815750717698,2.00
2025-06-12 13:21:49.932082,599616815750717698,-109.00
2025-06-12 13:21:49.932082,599616815750717698,-190.00
2025-06-12 13:21:50.535936,599616816311384223,-241.00
2025-06-12 13:21:50.535936,599616816311384223,-275.00
2025-06-12 13:21:50.535936,599616816311384223,-290.00
2025-06-12 13:21:50.535936,599616816311384223,-292.00
2025-06-12 13:21:50.535936,599616816311384223,-290.00
2025-06-12 13:21:50.535936,599616816311384223,-282.00
2025-06-12 13:21:50.535936,599616816311384223,-272.00
2025-06-12 13:21:50.535936,599616816311384223,-260.00
2025-06-12 13:21:50.535936,599616816311384223,-251.00
2025-06-12 13:21:50.535936,599616816311384223,-238.00
2025-06-12 13:21:50.535936,599616816311384223,-226.00
2025-06-12 13:21:50.535936,599616816311384223,-219.00
2025-06-12 13:21:50.535936,599616816311384223,-214.00
2025-06-12 13:21:50.535936,599616816311384223,-207.00
2025-06-12 13:21:50.535936,599616816311384223,-197.00
2025-06-12 13:21:50.535936,599616816311384223,-190.00
2025-06-12 13:21:50.535936,599616816311384223,-182.00
2025-06-12 13:21:50.535936,599616816311384223,-175.00
2025-06-12 13:21:50.535936,599616816311384223,-173.00
2025-06-12 13:21:50.535936,599616816311384223,-168.00
2025-06-12 13:21:50.535936,599616816311384223,-163.00
2025-06-12 13:21:50.535936,599616816311384223,-160.00
2025-06-12 13:21:50.535936,599616816311384223,-155.00
2025-06-12 13:21:50.535936,599616816311384223,-153.00
2025-06-12 13:21:50.535936,599616816311384223,-146.00
2025-06-12 13:21:50.535936,599616816311384223,-141.00
2025-06-12 13:21:50.535936,599616816311384223,-143.00
2025-06-12 13:21:50.535936,599616816311384223,-146.00
2025-06-12 13:21:50.535936,599616816311384223,-143.00
2025-06-12 13:21:50.535936,599616816311384223,-138.00
2025-06-12 13:21:50.535936,599616816311384223,-136.00
2025-06-12 13:21:50.535936,599616816311384223,-134.00
2025-06-12 13:21:50.535936,599616816311384223,-136.00
2025-06-12 13:21:50.535936,599616816311384223,-131.00
2025-06-12 13:21:50.535936,599616816311384223,-124.00
2025-06-12 13:21:50.535936,599616816311384223,-126.00
2025-06-12 13:21:50.535936,599616816311384223,-126.00
2025-06-12 13:21:50.535936,599616816311384223,-126.00
2025-06-12 13:21:50.535936,599616816311384223,-124.00
2025-06-12 13:21:50.535936,599616816311384223,-124.00
2025-06-12 13:21:50.535936,599616816311384223,-121.00
2025-06-12 13:21:50.535936,599616816311384223,-116.00
2025-06-12 13:21:50.535936,599616816311384223,-112.00
2025-06-12 13:21:50.535936,599616816311384223,-109.00
2025-06-12 13:21:50.535936,599616816311384223,-107.00
2025-06-12 13:21:50.535936,599616816311384223,-104.00
2025-06-12 13:21:50.535936,599616816311384223,-107.00
2025-06-12 13:21:50.535936,599616816311384223,-112.00
2025-06-12 13:21:50.535936,599616816311384223,-109.00
2025-06-12 13:21:50.535936,599616816311384223,-99.00
2025-06-12 13:21:50.535936,599616816311384223,-85.00
2025-06-12 13:21:50.535936,599616816311384223,-63.00
2025-06-12 13:21:50.535936,599616816311384223,-58.00
2025-06-12 13:21:50.535936,599616816311384223,-85.00
2025-06-12 13:21:50.535936,599616816311384223,-109.00
2025-06-12 13:21:50.535936,599616816311384223,-104.00
2025-06-12 13:21:50.535936,599616816311384223,-99.00
2025-06-12 13:21:50.535936,599616816311384223,-102.00
2025-06-12 13:21:50.535936,599616816311384223,-97.00
2025-06-12 13:21:50.535936,599616816311384223,-92.00
2025-06-12 13:21:50.535936,599616816311384223,-95.00
2025-06-12 13:21:50.535936,599616816311384223,-95.00
2025-06-12 13:21:50.535936,599616816311384223,-99.00
2025-06-12 13:21:50.535936,599616816311384223,-163.00
2025-06-12 13:21:50.535936,599616816311384223,-221.00
2025-06-12 13:21:50.535936,599616816311384223,41.00
2025-06-12 13:21:50.535936,599616816311384223,750.00
2025-06-12 13:21:50.535936,599616816311384223,1204.00
2025-06-12 13:21:50.535936,599616816311384223,524.00
2025-06-12 13:21:50.535936,599616816311384223,-616.00
2025-06-12 13:21:50.535936,599616816311384223,-733.00
2025-06-12 13:21:50.535936,599616816311384223,-204.00
2025-06-12 13:21:50.535936,599616816311384223,-97.00
2025-06-12 13:21:51.075085,599616816872020228,-136.00
2025-06-12 13:21:51.075085,599616816872020228,-2.00
2025-06-12 13:21:51.075085,599616816872020228,12.00
2025-06-12 13:21:51.075085,599616816872020228,-41.00
2025-06-12 13:21:51.075085,599616816872020228,0.00
2025-06-12 13:21:51.075085,599616816872020228,29.00
2025-06-12 13:21:51.075085,599616816872020228,17.00
2025-06-12 13:21:51.075085,599616816872020228,29.00
2025-06-12 13:21:51.075085,599616816872020228,48.00
2025-06-12 13:21:51.075085,599616816872020228,51.00
2025-06-12 13:21:51.075085,599616816872020228,60.00
2025-06-12 13:21:51.075085,599616816872020228,80.00
2025-06-12 13:21:51.075085,599616816872020228,99.00
2025-06-12 13:21:51.075085,599616816872020228,119.00
2025-06-12 13:21:51.075085,599616816872020228,141.00
2025-06-12 13:21:51.075085,599616816872020228,165.00
2025-06-12 13:21:51.075085,599616816872020228,197.00
2025-06-12 13:21:51.075085,599616816872020228,236.00
2025-06-12 13:21:51.075085,599616816872020228,275.00
2025-06-12 13:21:51.075085,599616816872020228,309.00
2025-06-12 13:21:51.075085,599616816872020228,348.00
2025-06-12 13:21:51.075085,599616816872020228,380.00
2025-06-12 13:21:51.075085,599616816872020228,394.00
2025-06-12 13:21:51.075085,599616816872020228,397.00
2025-06-12 13:21:51.075085,599616816872020228,370.00
2025-06-12 13:21:51.075085,599616816872020228,299.00
2025-06-12 13:21:51.075085,599616816872020228,182.00
2025-06-12 13:21:51.075085,599616816872020228,46.00
2025-06-12 13:21:51.075085,599616816872020228,-70.00
2025-06-12 13:21:51.075085,599616816872020228,-163.00
2025-06-12 13:21:51.075085,599616816872020228,-226.00
2025-06-12 13:21:51.075085,599616816872020228,-265.00
2025-06-12 13:21:51.075085,599616816872020228,-282.00
2025-06-12 13:21:51.075085,599616816872020228,-290.00
2025-06-12 13:21:51.075085,599616816872020228,-287.00
2025-06-12 13:21:51.075085,599616816872020228,-277.00
2025-06-12 13:21:51.075085,599616816872020228,-268.00
2025-06-12 13:21:51.075085,599616816872020228,-258.00
2025-06-12 13:21:51.075085,599616816872020228,-251.00
2025-06-12 13:21:51.075085,599616816872020228,-241.00
2025-06-12 13:21:51.075085,599616816872020228,-229.00
2025-06-12 13:21:51.075085,599616816872020228,-221.00
2025-06-12 13:21:51.075085,599616816872020228,-216.00
2025-06-12 13:21:51.075085,599616816872020228,-207.00
2025-06-12 13:21:51.075085,599616816872020228,-192.00
2025-06-12 13:21:51.075085,599616816872020228,-185.00
2025-06-12 13:21:51.075085,599616816872020228,-180.00
2025-06-12 13:21:51.075085,599616816872020228,-177.00
2025-06-12 13:21:51.075085,599616816872020228,-173.00
2025-06-12 13:21:51.075085,599616816872020228,-165.00
2025-06-12 13:21:51.075085,599616816872020228,-163.00
2025-06-12 13:21:51.075085,599616816872020228,-158.00
2025-06-12 13:21:51.075085,599616816872020228,-151.00
2025-06-12 13:21:51.075085,599616816872020228,-146.00
2025-06-12 13:21:51.075085,599616816872020228,-141.00
2025-06-12 13:21:51.075085,599616816872020228,-143.00
2025-06-12 13:21:51.075085,599616816872020228,-143.00
2025-06-12 13:21:51.075085,599616816872020228,-143.00
2025-06-12 13:21:51.075085,599616816872020228,-141.00
2025-06-12 13:21:51.075085,599616816872020228,-136.00
2025-06-12 13:21:51.075085,599616816872020228,-129.00
2025-06-12 13:21:51.075085,599616816872020228,-131.00
2025-06-12 13:21:51.075085,599616816872020228,-138.00
2025-06-12 13:21:51.075085,599616816872020228,-136.00
2025-06-12 13:21:51.075085,599616816872020228,-119.00
2025-06-12 13:21:51.075085,599616816872020228,-116.00
2025-06-12 13:21:51.075085,599616816872020228,-129.00
2025-06-12 13:21:51.075085,599616816872020228,-126.00
2025-06-12 13:21:51.075085,599616816872020228,-119.00
2025-06-12 13:21:51.075085,599616816872020228,-119.00
2025-06-12 13:21:51.075085,599616816872020228,-119.00
2025-06-12 13:21:51.075085,599616816872020228,-116.00
2025-06-12 13:21:51.075085,599616816872020228,-109.00
2025-06-12 13:21:51.671349,599616817432717270,-107.00
2025-06-12 13:21:51.671349,599616817432717270,-97.00
2025-06-12 13:21:51.671349,599616817432717270,-82.00
2025-06-12 13:21:51.671349,599616817432717270,-70.00
2025-06-12 13:21:51.671349,599616817432717270,-70.00
2025-06-12 13:21:51.671349,599616817432717270,-90.00
2025-06-12 13:21:51.671349,599616817432717270,-109.00
2025-06-12 13:21:51.671349,599616817432717270,-109.00
2025-06-12 13:21:51.671349,599616817432717270,-99.00
2025-06-12 13:21:51.671349,599616817432717270,-97.00
2025-06-12 13:21:51.671349,599616817432717270,-99.00
2025-06-12 13:21:51.671349,599616817432717270,-95.00
2025-06-12 13:21:51.671349,599616817432717270,-92.00
2025-06-12 13:21:51.671349,599616817432717270,-90.00
2025-06-12 13:21:51.671349,599616817432717270,-99.00
2025-06-12 13:21:51.671349,599616817432717270,-148.00
2025-06-12 13:21:51.671349,599616817432717270,-212.00
2025-06-12 13:21:51.671349,599616817432717270,-29.00
2025-06-12 13:21:51.671349,599616817432717270,609.00
2025-06-12 13:21:51.671349,599616817432717270,1177.00
2025-06-12 13:21:51.671349,599616817432717270,704.00
2025-06-12 13:21:51.671349,599616817432717270,-470.00
2025-06-12 13:21:51.671349,599616817432717270,-816.00
2025-06-12 13:21:51.671349,599616817432717270,-307.00
2025-06-12 13:21:51.671349,599616817432717270,-90.00
2025-06-12 13:21:51.671349,599616817432717270,-138.00
2025-06-12 13:21:51.671349,599616817432717270,-21.00
2025-06-12 13:21:51.671349,599616817432717270,34.00
2025-06-12 13:21:51.671349,599616817432717270,-24.00
2025-06-12 13:21:51.671349,599616817432717270,-4.00
2025-06-12 13:21:51.671349,599616817432717270,31.00
2025-06-12 13:21:51.671349,599616817432717270,24.00
2025-06-12 13:21:51.671349,599616817432717270,29.00
2025-06-12 13:21:51.671349,599616817432717270,48.00
2025-06-12 13:21:51.671349,599616817432717270,56.00
2025-06-12 13:21:51.671349,599616817432717270,68.00
2025-06-12 13:21:51.671349,599616817432717270,85.00
2025-06-12 13:21:51.671349,599616817432717270,104.00
2025-06-12 13:21:51.671349,599616817432717270,121.00
2025-06-12 13:21:51.671349,599616817432717270,143.00
2025-06-12 13:21:51.671349,599616817432717270,173.00
2025-06-12 13:21:51.671349,599616817432717270,202.00
2025-06-12 13:21:51.671349,599616817432717270,231.00
2025-06-12 13:21:51.671349,599616817432717270,270.00
2025-06-12 13:21:51.671349,599616817432717270,316.00
2025-06-12 13:21:51.671349,599616817432717270,355.00
2025-06-12 13:21:51.671349,599616817432717270,380.00
2025-06-12 13:21:51.671349,599616817432717270,392.00
2025-06-12 13:21:51.671349,599616817432717270,397.00
2025-06-12 13:21:51.671349,599616817432717270,372.00
2025-06-12 13:21:51.671349,599616817432717270,294.00
2025-06-12 13:21:51.671349,599616817432717270,177.00
2025-06-12 13:21:51.671349,599616817432717270,43.00
2025-06-12 13:21:51.671349,599616817432717270,-80.00
2025-06-12 13:21:51.671349,599616817432717270,-168.00
2025-06-12 13:21:51.671349,599616817432717270,-224.00
2025-06-12 13:21:51.671349,599616817432717270,-265.00
2025-06-12 13:21:51.671349,599616817432717270,-285.00
2025-06-12 13:21:51.671349,599616817432717270,-287.00
2025-06-12 13:21:51.671349,599616817432717270,-282.00
2025-06-12 13:21:51.671349,599616817432717270,-275.00
2025-06-12 13:21:51.671349,599616817432717270,-265.00
2025-06-12 13:21:51.671349,599616817432717270,-258.00
2025-06-12 13:21:51.671349,599616817432717270,-251.00
2025-06-12 13:21:51.671349,599616817432717270,-243.00
2025-06-12 13:21:51.671349,599616817432717270,-236.00
2025-06-12 13:21:51.671349,599616817432717270,-231.00
2025-06-12 13:21:51.671349,599616817432717270,-214.00
2025-06-12 13:21:51.671349,599616817432717270,-202.00
2025-06-12 13:21:51.671349,599616817432717270,-199.00
2025-06-12 13:21:51.671349,599616817432717270,-192.00
2025-06-12 13:21:51.671349,599616817432717270,-185.00
2025-06-12 13:21:51.671349,599616817432717270,-180.00
2025-06-12 13:21:52.183787,599616817993353274,-173.00
2025-06-12 13:21:52.183787,599616817993353274,-163.00
2025-06-12 13:21:52.183787,599616817993353274,-158.00
2025-06-12 13:21:52.183787,599616817993353274,-155.00
2025-06-12 13:21:52.183787,599616817993353274,-151.00
2025-06-12 13:21:52.183787,599616817993353274,-146.00
2025-06-12 13:21:52.183787,599616817993353274,-141.00
2025-06-12 13:21:52.183787,599616817993353274,-143.00
2025-06-12 13:21:52.183787,599616817993353274,-146.00
2025-06-12 13:21:52.183787,599616817993353274,-143.00
2025-06-12 13:21:52.183787,599616817993353274,-138.00
2025-06-12 13:21:52.183787,599616817993353274,-136.00
2025-06-12 13:21:52.183787,599616817993353274,-134.00
2025-06-12 13:21:52.183787,599616817993353274,-131.00
2025-06-12 13:21:52.183787,599616817993353274,-129.00
2025-06-12 13:21:52.183787,599616817993353274,-126.00
2025-06-12 13:21:52.183787,599616817993353274,-126.00
2025-06-12 13:21:52.183787,599616817993353274,-124.00
2025-06-12 13:21:52.183787,599616817993353274,-124.00
2025-06-12 13:21:52.183787,599616817993353274,-121.00
2025-06-12 13:21:52.183787,599616817993353274,-119.00
2025-06-12 13:21:52.183787,599616817993353274,-116.00
2025-06-12 13:21:52.183787,599616817993353274,-116.00
2025-06-12 13:21:52.183787,599616817993353274,-116.00
2025-06-12 13:21:52.183787,599616817993353274,-114.00
2025-06-12 13:21:52.183787,599616817993353274,-112.00
2025-06-12 13:21:52.183787,599616817993353274,-102.00
2025-06-12 13:21:52.183787,599616817993353274,-87.00
2025-06-12 13:21:52.183787,599616817993353274,-73.00
2025-06-12 13:21:52.183787,599616817993353274,-75.00
2025-06-12 13:21:52.183787,599616817993353274,-97.00
2025-06-12 13:21:52.183787,599616817993353274,-112.00
2025-06-12 13:21:52.183787,599616817993353274,-112.00
2025-06-12 13:21:52.183787,599616817993353274,-107.00
2025-06-12 13:21:52.183787,599616817993353274,-99.00
2025-06-12 13:21:52.183787,599616817993353274,-97.00
2025-06-12 13:21:52.183787,599616817993353274,-97.00
2025-06-12 13:21:52.183787,599616817993353274,-92.00
2025-06-12 13:21:52.183787,599616817993353274,-92.00
2025-06-12 13:21:52.183787,599616817993353274,-119.00
2025-06-12 13:21:52.183787,599616817993353274,-204.00
2025-06-12 13:21:52.183787,599616817993353274,-185.00
2025-06-12 13:21:52.183787,599616817993353274,270.00
2025-06-12 13:21:52.183787,599616817993353274,1013.00
2025-06-12 13:21:52.183787,599616817993353274,1084.00
2025-06-12 13:21:52.183787,599616817993353274,38.00
2025-06-12 13:21:52.183787,599616817993353274,-833.00
2025-06-12 13:21:52.183787,599616817993353274,-553.00
2025-06-12 13:21:52.183787,599616817993353274,-109.00
2025-06-12 13:21:52.183787,599616817993353274,-134.00
2025-06-12 13:21:52.183787,599616817993353274,-95.00
2025-06-12 13:21:52.183787,599616817993353274,29.00
2025-06-12 13:21:52.183787,599616817993353274,-7.00
2025-06-12 13:21:52.183787,599616817993353274,-34.00
2025-06-12 13:21:52.183787,599616817993353274,17.00
2025-06-12 13:21:52.183787,599616817993353274,24.00
2025-06-12 13:21:52.183787,599616817993353274,12.00
2025-06-12 13:21:52.183787,599616817993353274,34.00
2025-06-12 13:21:52.183787,599616817993353274,48.00
2025-06-12 13:21:52.183787,599616817993353274,51.00
2025-06-12 13:21:52.183787,599616817993353274,68.00
2025-06-12 13:21:52.183787,599616817993353274,90.00
2025-06-12 13:21:52.183787,599616817993353274,102.00
2025-06-12 13:21:52.183787,599616817993353274,119.00
2025-06-12 13:21:52.183787,599616817993353274,148.00
2025-06-12 13:21:52.183787,599616817993353274,177.00
2025-06-12 13:21:52.183787,599616817993353274,209.00
2025-06-12 13:21:52.183787,599616817993353274,246.00
2025-06-12 13:21:52.183787,599616817993353274,285.00
2025-06-12 13:21:52.183787,599616817993353274,324.00
2025-06-12 13:21:52.183787,599616817993353274,355.00
2025-06-12 13:21:52.183787,599616817993353274,380.00
2025-06-12 13:21:52.183787,599616817993353274,387.00
2025-06-12 13:21:52.721525,599616818554019797,375.00
2025-06-12 13:21:52.721525,599616818554019797,329.00
2025-06-12 13:21:52.721525,599616818554019797,229.00
2025-06-12 13:21:52.721525,599616818554019797,95.00
2025-06-12 13:21:52.721525,599616818554019797,-36.00
2025-06-12 13:21:52.721525,599616818554019797,-141.00
2025-06-12 13:21:52.721525,599616818554019797,-214.00
2025-06-12 13:21:52.721525,599616818554019797,-258.00
2025-06-12 13:21:52.721525,599616818554019797,-285.00
2025-06-12 13:21:52.721525,599616818554019797,-297.00
2025-06-12 13:21:52.721525,599616818554019797,-292.00
2025-06-12 13:21:52.721525,599616818554019797,-282.00
2025-06-12 13:21:52.721525,599616818554019797,-280.00
2025-06-12 13:21:52.721525,599616818554019797,-270.00
2025-06-12 13:21:52.721525,599616818554019797,-255.00
2025-06-12 13:21:52.721525,599616818554019797,-248.00
2025-06-12 13:21:52.721525,599616818554019797,-243.00
2025-06-12 13:21:52.721525,599616818554019797,-236.00
2025-06-12 13:21:52.721525,599616818554019797,-224.00
2025-06-12 13:21:52.721525,599616818554019797,-212.00
2025-06-12 13:21:52.721525,599616818554019797,-207.00
2025-06-12 13:21:52.721525,599616818554019797,-204.00
2025-06-12 13:21:52.721525,599616818554019797,-192.00
2025-06-12 13:21:52.721525,599616818554019797,-180.00
2025-06-12 13:21:52.721525,599616818554019797,-180.00
2025-06-12 13:21:52.721525,599616818554019797,-180.00
2025-06-12 13:21:52.721525,599616818554019797,-170.00
2025-06-12 13:21:52.721525,599616818554019797,-160.00
2025-06-12 13:21:52.721525,599616818554019797,-158.00
2025-06-12 13:21:52.721525,599616818554019797,-158.00
2025-06-12 13:21:52.721525,599616818554019797,-160.00
2025-06-12 13:21:52.721525,599616818554019797,-155.00
2025-06-12 13:21:52.721525,599616818554019797,-151.00
2025-06-12 13:21:52.721525,599616818554019797,-151.00
2025-06-12 13:21:52.721525,599616818554019797,-148.00
2025-06-12 13:21:52.721525,599616818554019797,-148.00
2025-06-12 13:21:52.721525,599616818554019797,-151.00
2025-06-12 13:21:52.721525,599616818554019797,-146.00
2025-06-12 13:21:52.721525,599616818554019797,-141.00
2025-06-12 13:21:52.721525,599616818554019797,-136.00
2025-06-12 13:21:52.721525,599616818554019797,-134.00
2025-06-12 13:21:52.721525,599616818554019797,-134.00
2025-06-12 13:21:52.721525,599616818554019797,-131.00
2025-06-12 13:21:52.721525,599616818554019797,-131.00
2025-06-12 13:21:52.721525,599616818554019797,-131.00
2025-06-12 13:21:52.721525,599616818554019797,-134.00
2025-06-12 13:21:52.721525,599616818554019797,-129.00
2025-06-12 13:21:52.721525,599616818554019797,-124.00
2025-06-12 13:21:52.721525,599616818554019797,-121.00
2025-06-12 13:21:52.721525,599616818554019797,-121.00
2025-06-12 13:21:52.721525,599616818554019797,-116.00
2025-06-12 13:21:52.721525,599616818554019797,-99.00
2025-06-12 13:21:52.721525,599616818554019797,-85.00
2025-06-12 13:21:52.721525,599616818554019797,-92.00
2025-06-12 13:21:52.721525,599616818554019797,-104.00
2025-06-12 13:21:52.721525,599616818554019797,-112.00
2025-06-12 13:21:52.721525,599616818554019797,-116.00
2025-06-12 13:21:52.721525,599616818554019797,-114.00
2025-06-12 13:21:52.721525,599616818554019797,-107.00
2025-06-12 13:21:52.721525,599616818554019797,-107.00
2025-06-12 13:21:52.721525,599616818554019797,-107.00
2025-06-12 13:21:52.721525,599616818554019797,-97.00
2025-06-12 13:21:52.721525,599616818554019797,-97.00
2025-06-12 13:21:52.721525,599616818554019797,-141.00
2025-06-12 13:21:52.721525,599616818554019797,-224.00
2025-06-12 13:21:52.721525,599616818554019797,-151.00
2025-06-12 13:21:52.721525,599616818554019797,368.00
2025-06-12 13:21:52.721525,599616818554019797,1065.00
2025-06-12 13:21:52.721525,599616818554019797,972.00
2025-06-12 13:21:52.721525,599616818554019797,-136.00
2025-06-12 13:21:52.721525,599616818554019797,-853.00
2025-06-12 13:21:52.721525,599616818554019797,-467.00
2025-06-12 13:21:52.721525,599616818554019797,-90.00
2025-06-12 13:21:53.293121,599616819114686320,-148.00
2025-06-12 13:21:53.293121,599616819114686320,-85.00
2025-06-12 13:21:53.293121,599616819114686320,29.00
2025-06-12 13:21:53.293121,599616819114686320,-19.00
2025-06-12 13:21:53.293121,599616819114686320,-34.00
2025-06-12 13:21:53.293121,599616819114686320,19.00
2025-06-12 13:21:53.293121,599616819114686320,26.00
2025-06-12 13:21:53.293121,599616819114686320,17.00
2025-06-12 13:21:53.293121,599616819114686320,34.00
2025-06-12 13:21:53.293121,599616819114686320,53.00
2025-06-12 13:21:53.293121,599616819114686320,63.00
2025-06-12 13:21:53.293121,599616819114686320,75.00
2025-06-12 13:21:53.293121,599616819114686320,92.00
2025-06-12 13:21:53.293121,599616819114686320,109.00
2025-06-12 13:21:53.293121,599616819114686320,134.00
2025-06-12 13:21:53.293121,599616819114686320,163.00
2025-06-12 13:21:53.293121,599616819114686320,192.00
2025-06-12 13:21:53.293121,599616819114686320,226.00
2025-06-12 13:21:53.293121,599616819114686320,263.00
2025-06-12 13:21:53.293121,599616819114686320,299.00
2025-06-12 13:21:53.293121,599616819114686320,338.00
2025-06-12 13:21:53.293121,599616819114686320,375.00
2025-06-12 13:21:53.293121,599616819114686320,392.00
2025-06-12 13:21:53.293121,599616819114686320,389.00
2025-06-12 13:21:53.293121,599616819114686320,380.00
2025-06-12 13:21:53.293121,599616819114686320,324.00
2025-06-12 13:21:53.293121,599616819114686320,207.00
2025-06-12 13:21:53.293121,599616819114686320,65.00
2025-06-12 13:21:53.293121,599616819114686320,-63.00
2025-06-12 13:21:53.293121,599616819114686320,-158.00
2025-06-12 13:21:53.293121,599616819114686320,-221.00
2025-06-12 13:21:53.293121,599616819114686320,-263.00
2025-06-12 13:21:53.293121,599616819114686320,-290.00
2025-06-12 13:21:53.293121,599616819114686320,-297.00
2025-06-12 13:21:53.293121,599616819114686320,-285.00
2025-06-12 13:21:53.293121,599616819114686320,-272.00
2025-06-12 13:21:53.293121,599616819114686320,-272.00
2025-06-12 13:21:53.293121,599616819114686320,-268.00
2025-06-12 13:21:53.293121,599616819114686320,-253.00
2025-06-12 13:21:53.293121,599616819114686320,-248.00
2025-06-12 13:21:53.293121,599616819114686320,-241.00
2025-06-12 13:21:53.293121,599616819114686320,-226.00
2025-06-12 13:21:53.293121,599616819114686320,-219.00
2025-06-12 13:21:53.293121,599616819114686320,-216.00
2025-06-12 13:21:53.293121,599616819114686320,-209.00
2025-06-12 13:21:53.293121,599616819114686320,-199.00
2025-06-12 13:21:53.293121,599616819114686320,-190.00
2025-06-12 13:21:53.293121,599616819114686320,-177.00
2025-06-12 13:21:53.293121,599616819114686320,-175.00
2025-06-12 13:21:53.293121,599616819114686320,-175.00
2025-06-12 13:21:53.293121,599616819114686320,-165.00
2025-06-12 13:21:53.293121,599616819114686320,-158.00
2025-06-12 13:21:53.293121,599616819114686320,-160.00
2025-06-12 13:21:53.293121,599616819114686320,-160.00
2025-06-12 13:21:53.293121,599616819114686320,-155.00
2025-06-12 13:21:53.293121,599616819114686320,-151.00
2025-06-12 13:21:53.293121,599616819114686320,-151.00
2025-06-12 13:21:53.293121,599616819114686320,-148.00
2025-06-12 13:21:53.293121,599616819114686320,-143.00
2025-06-12 13:21:53.293121,599616819114686320,-146.00
2025-06-12 13:21:53.293121,599616819114686320,-146.00
2025-06-12 13:21:53.293121,599616819114686320,-141.00
2025-06-12 13:21:53.293121,599616819114686320,-138.00
2025-06-12 13:21:53.293121,599616819114686320,-136.00
2025-06-12 13:21:53.293121,599616819114686320,-138.00
2025-06-12 13:21:53.293121,599616819114686320,-141.00
2025-06-12 13:21:53.293121,599616819114686320,-141.00
2025-06-12 13:21:53.293121,599616819114686320,-136.00
2025-06-12 13:21:53.293121,599616819114686320,-134.00
2025-06-12 13:21:53.293121,599616819114686320,-126.00
2025-06-12 13:21:53.293121,599616819114686320,-107.00
2025-06-12 13:21:53.293121,599616819114686320,-95.00
2025-06-12 13:21:53.293121,599616819114686320,-107.00
2025-06-12 13:21:53.893619,599616819675352845,-121.00
2025-06-12 13:21:53.893619,599616819675352845,-119.00
2025-06-12 13:21:53.893619,599616819675352845,-119.00
2025-06-12 13:21:53.893619,599616819675352845,-124.00
2025-06-12 13:21:53.893619,599616819675352845,-126.00
2025-06-12 13:21:53.893619,599616819675352845,-119.00
2025-06-12 13:21:53.893619,599616819675352845,-109.00
2025-06-12 13:21:53.893619,599616819675352845,-104.00
2025-06-12 13:21:53.893619,599616819675352845,-107.00
2025-06-12 13:21:53.893619,599616819675352845,-136.00
2025-06-12 13:21:53.893619,599616819675352845,-216.00
2025-06-12 13:21:53.893619,599616819675352845,-173.00
2025-06-12 13:21:53.893619,599616819675352845,309.00
2025-06-12 13:21:53.893619,599616819675352845,1033.00
2025-06-12 13:21:53.893619,599616819675352845,1033.00
2025-06-12 13:21:53.893619,599616819675352845,-46.00
2025-06-12 13:21:53.893619,599616819675352845,-867.00
2025-06-12 13:21:53.893619,599616819675352845,-553.00
2025-06-12 13:21:53.893619,599616819675352845,-126.00
2025-06-12 13:21:53.893619,599616819675352845,-155.00
2025-06-12 13:21:53.893619,599616819675352845,-104.00
2025-06-12 13:21:53.893619,599616819675352845,26.00
2025-06-12 13:21:53.893619,599616819675352845,-9.00
2025-06-12 13:21:53.893619,599616819675352845,-36.00
2025-06-12 13:21:53.893619,599616819675352845,12.00
2025-06-12 13:21:53.893619,599616819675352845,19.00
2025-06-12 13:21:53.893619,599616819675352845,9.00
2025-06-12 13:21:53.893619,599616819675352845,29.00
2025-06-12 13:21:53.893619,599616819675352845,41.00
2025-06-12 13:21:53.893619,599616819675352845,46.00
2025-06-12 13:21:53.893619,599616819675352845,68.00
2025-06-12 13:21:53.893619,599616819675352845,92.00
2025-06-12 13:21:53.893619,599616819675352845,99.00
2025-06-12 13:21:53.893619,599616819675352845,119.00
2025-06-12 13:21:53.893619,599616819675352845,151.00
2025-06-12 13:21:53.893619,599616819675352845,180.00
2025-06-12 13:21:53.893619,599616819675352845,214.00
2025-06-12 13:21:53.893619,599616819675352845,258.00
2025-06-12 13:21:53.893619,599616819675352845,299.00
2025-06-12 13:21:53.893619,599616819675352845,336.00
2025-06-12 13:21:53.893619,599616819675352845,363.00
2025-06-12 13:21:53.893619,599616819675352845,380.00
2025-06-12 13:21:53.893619,599616819675352845,387.00
2025-06-12 13:21:53.893619,599616819675352845,365.00
2025-06-12 13:21:53.893619,599616819675352845,292.00
2025-06-12 13:21:53.893619,599616819675352845,173.00
2025-06-12 13:21:53.893619,599616819675352845,31.00
2025-06-12 13:21:53.893619,599616819675352845,-95.00
2025-06-12 13:21:53.893619,599616819675352845,-187.00
2025-06-12 13:21:53.893619,599616819675352845,-248.00
2025-06-12 13:21:53.893619,599616819675352845,-285.00
2025-06-12 13:21:53.893619,599616819675352845,-297.00
2025-06-12 13:21:53.893619,599616819675352845,-299.00
2025-06-12 13:21:53.893619,599616819675352845,-299.00
2025-06-12 13:21:53.893619,599616819675352845,-294.00
2025-06-12 13:21:53.893619,599616819675352845,-285.00
2025-06-12 13:21:53.893619,599616819675352845,-270.00
2025-06-12 13:21:53.893619,599616819675352845,-263.00
2025-06-12 13:21:53.893619,599616819675352845,-260.00
2025-06-12 13:21:53.893619,599616819675352845,-248.00
2025-06-12 13:21:53.893619,599616819675352845,-241.00
2025-06-12 13:21:53.893619,599616819675352845,-231.00
2025-06-12 13:21:53.893619,599616819675352845,-221.00
2025-06-12 13:21:53.893619,599616819675352845,-209.00
2025-06-12 13:21:53.893619,599616819675352845,-202.00
2025-06-12 13:21:53.893619,599616819675352845,-197.00
2025-06-12 13:21:53.893619,599616819675352845,-187.00
2025-06-12 13:21:53.893619,599616819675352845,-180.00
2025-06-12 13:21:53.893619,599616819675352845,-177.00
2025-06-12 13:21:53.893619,599616819675352845,-170.00
2025-06-12 13:21:53.893619,599616819675352845,-163.00
2025-06-12 13:21:53.893619,599616819675352845,-160.00
2025-06-12 13:21:53.893619,599616819675352845,-151.00
2025-06-12 13:21:54.463716,599616820236019368,-146.00
2025-06-12 13:21:54.463716,599616820236019368,-153.00
2025-06-12 13:21:54.463716,599616820236019368,-155.00
2025-06-12 13:21:54.463716,599616820236019368,-151.00
2025-06-12 13:21:54.463716,599616820236019368,-148.00
2025-06-12 13:21:54.463716,599616820236019368,-148.00
2025-06-12 13:21:54.463716,599616820236019368,-151.00
2025-06-12 13:21:54.463716,599616820236019368,-143.00
2025-06-12 13:21:54.463716,599616820236019368,-134.00
2025-06-12 13:21:54.463716,599616820236019368,-136.00
2025-06-12 13:21:54.463716,599616820236019368,-138.00
2025-06-12 13:21:54.463716,599616820236019368,-131.00
2025-06-12 13:21:54.463716,599616820236019368,-129.00
2025-06-12 13:21:54.463716,599616820236019368,-134.00
2025-06-12 13:21:54.463716,599616820236019368,-136.00
2025-06-12 13:21:54.463716,599616820236019368,-131.00
2025-06-12 13:21:54.463716,599616820236019368,-131.00
2025-06-12 13:21:54.463716,599616820236019368,-131.00
2025-06-12 13:21:54.463716,599616820236019368,-129.00
2025-06-12 13:21:54.463716,599616820236019368,-114.00
2025-06-12 13:21:54.463716,599616820236019368,-102.00
2025-06-12 13:21:54.463716,599616820236019368,-97.00
2025-06-12 13:21:54.463716,599616820236019368,-92.00
2025-06-12 13:21:54.463716,599616820236019368,-95.00
2025-06-12 13:21:54.463716,599616820236019368,-107.00
2025-06-12 13:21:54.463716,599616820236019368,-114.00
2025-06-12 13:21:54.463716,599616820236019368,-112.00
2025-06-12 13:21:54.463716,599616820236019368,-107.00
2025-06-12 13:21:54.463716,599616820236019368,-104.00
2025-06-12 13:21:54.463716,599616820236019368,-102.00
2025-06-12 13:21:54.463716,599616820236019368,-99.00
2025-06-12 13:21:54.463716,599616820236019368,-87.00
2025-06-12 13:21:54.463716,599616820236019368,-90.00
2025-06-12 13:21:54.463716,599616820236019368,-141.00
2025-06-12 13:21:54.463716,599616820236019368,-224.00
2025-06-12 13:21:54.463716,599616820236019368,-126.00
2025-06-12 13:21:54.463716,599616820236019368,428.00
2025-06-12 13:21:54.463716,599616820236019368,1143.00
2025-06-12 13:21:54.463716,599616820236019368,991.00
2025-06-12 13:21:54.463716,599616820236019368,-180.00
2025-06-12 13:21:54.463716,599616820236019368,-865.00
2025-06-12 13:21:54.463716,599616820236019368,-441.00
2025-06-12 13:21:54.463716,599616820236019368,-82.00
2025-06-12 13:21:54.463716,599616820236019368,-151.00
2025-06-12 13:21:54.463716,599616820236019368,-77.00
2025-06-12 13:21:54.463716,599616820236019368,31.00
2025-06-12 13:21:54.463716,599616820236019368,-17.00
2025-06-12 13:21:54.463716,599616820236019368,-26.00
2025-06-12 13:21:54.463716,599616820236019368,19.00
2025-06-12 13:21:54.463716,599616820236019368,21.00
2025-06-12 13:21:54.463716,599616820236019368,17.00
2025-06-12 13:21:54.463716,599616820236019368,41.00
2025-06-12 13:21:54.463716,599616820236019368,53.00
2025-06-12 13:21:54.463716,599616820236019368,58.00
2025-06-12 13:21:54.463716,599616820236019368,70.00
2025-06-12 13:21:54.463716,599616820236019368,92.00
2025-06-12 13:21:54.463716,599616820236019368,116.00
2025-06-12 13:21:54.463716,599616820236019368,138.00
2025-06-12 13:21:54.463716,599616820236019368,160.00
2025-06-12 13:21:54.463716,599616820236019368,190.00
2025-06-12 13:21:54.463716,599616820236019368,224.00
2025-06-12 13:21:54.463716,599616820236019368,263.00
2025-06-12 13:21:54.463716,599616820236019368,309.00
2025-06-12 13:21:54.463716,599616820236019368,350.00
2025-06-12 13:21:54.463716,599616820236019368,377.00
2025-06-12 13:21:54.463716,599616820236019368,394.00
2025-06-12 13:21:54.463716,599616820236019368,402.00
2025-06-12 13:21:54.463716,599616820236019368,375.00
2025-06-12 13:21:54.463716,599616820236019368,302.00
2025-06-12 13:21:54.463716,599616820236019368,185.00
2025-06-12 13:21:54.463716,599616820236019368,46.00
2025-06-12 13:21:54.463716,599616820236019368,-80.00
2025-06-12 13:21:54.463716,599616820236019368,-173.00
2025-06-12 13:21:55.003059,599616820796655373,-236.00
2025-06-12 13:21:55.003059,599616820796655373,-272.00
2025-06-12 13:21:55.003059,599616820796655373,-292.00
2025-06-12 13:21:55.003059,599616820796655373,-299.00
2025-06-12 13:21:55.003059,599616820796655373,-292.00
2025-06-12 13:21:55.003059,599616820796655373,-285.00
2025-06-12 13:21:55.003059,599616820796655373,-282.00
2025-06-12 13:21:55.003059,599616820796655373,-272.00
2025-06-12 13:21:55.003059,599616820796655373,-251.00
2025-06-12 13:21:55.003059,599616820796655373,-238.00
2025-06-12 13:21:55.003059,599616820796655373,-243.00
2025-06-12 13:21:55.003059,599616820796655373,-236.00
2025-06-12 13:21:55.003059,599616820796655373,-219.00
2025-06-12 13:21:55.003059,599616820796655373,-216.00
2025-06-12 13:21:55.003059,599616820796655373,-214.00
2025-06-12 13:21:55.003059,599616820796655373,-194.00
2025-06-12 13:21:55.003059,599616820796655373,-185.00
2025-06-12 13:21:55.003059,599616820796655373,-182.00
2025-06-12 13:21:55.003059,599616820796655373,-175.00
2025-06-12 13:21:55.003059,599616820796655373,-168.00
2025-06-12 13:21:55.003059,599616820796655373,-165.00
2025-06-12 13:21:55.003059,599616820796655373,-163.00
2025-06-12 13:21:55.003059,599616820796655373,-163.00
2025-06-12 13:21:55.003059,599616820796655373,-163.00
2025-06-12 13:21:55.003059,599616820796655373,-153.00
2025-06-12 13:21:55.003059,599616820796655373,-146.00
2025-06-12 13:21:55.003059,599616820796655373,-146.00
2025-06-12 13:21:55.003059,599616820796655373,-143.00
2025-06-12 13:21:55.003059,599616820796655373,-146.00
2025-06-12 13:21:55.003059,599616820796655373,-148.00
2025-06-12 13:21:55.003059,599616820796655373,-148.00
2025-06-12 13:21:55.003059,599616820796655373,-141.00
2025-06-12 13:21:55.003059,599616820796655373,-134.00
2025-06-12 13:21:55.003059,599616820796655373,-131.00
2025-06-12 13:21:55.003059,599616820796655373,-136.00
2025-06-12 13:21:55.003059,599616820796655373,-131.00
2025-06-12 13:21:55.003059,599616820796655373,-129.00
2025-06-12 13:21:55.003059,599616820796655373,-134.00
2025-06-12 13:21:55.003059,599616820796655373,-134.00
2025-06-12 13:21:55.003059,599616820796655373,-124.00
2025-06-12 13:21:55.003059,599616820796655373,-116.00
2025-06-12 13:21:55.003059,599616820796655373,-112.00
2025-06-12 13:21:55.003059,599616820796655373,-112.00
2025-06-12 13:21:55.003059,599616820796655373,-119.00
2025-06-12 13:21:55.003059,599616820796655373,-121.00
2025-06-12 13:21:55.003059,599616820796655373,-121.00
2025-06-12 13:21:55.003059,599616820796655373,-121.00
2025-06-12 13:21:55.003059,599616820796655373,-119.00
2025-06-12 13:21:55.003059,599616820796655373,-104.00
2025-06-12 13:21:55.003059,599616820796655373,-90.00
2025-06-12 13:21:55.003059,599616820796655373,-90.00
2025-06-12 13:21:55.003059,599616820796655373,-87.00
2025-06-12 13:21:55.003059,599616820796655373,-85.00
2025-06-12 13:21:55.003059,599616820796655373,-90.00
2025-06-12 13:21:55.003059,599616820796655373,-97.00
2025-06-12 13:21:55.003059,599616820796655373,-102.00
2025-06-12 13:21:55.003059,599616820796655373,-99.00
2025-06-12 13:21:55.003059,599616820796655373,-92.00
2025-06-12 13:21:55.003059,599616820796655373,-99.00
2025-06-12 13:21:55.003059,599616820796655373,-102.00
2025-06-12 13:21:55.003059,599616820796655373,-82.00
2025-06-12 13:21:55.003059,599616820796655373,-73.00
2025-06-12 13:21:55.003059,599616820796655373,-104.00
2025-06-12 13:21:55.003059,599616820796655373,-182.00
2025-06-12 13:21:55.003059,599616820796655373,-207.00
2025-06-12 13:21:55.003059,599616820796655373,136.00
2025-06-12 13:21:55.003059,599616820796655373,887.00
2025-06-12 13:21:55.003059,599616820796655373,1233.00
2025-06-12 13:21:55.003059,599616820796655373,397.00
2025-06-12 13:21:55.003059,599616820796655373,-699.00
2025-06-12 13:21:55.003059,599616820796655373,-689.00
2025-06-12 13:21:55.003059,599616820796655373,-175.00
2025-06-12 13:21:55.003059,599616820796655373,-116.00
2025-06-12 13:21:55.544936,599616821357321896,-141.00
2025-06-12 13:21:55.544936,599616821357321896,2.00
2025-06-12 13:21:55.544936,599616821357321896,17.00
2025-06-12 13:21:55.544936,599616821357321896,-38.00
2025-06-12 13:21:55.544936,599616821357321896,2.00
2025-06-12 13:21:55.544936,599616821357321896,31.00
2025-06-12 13:21:55.544936,599616821357321896,17.00
2025-06-12 13:21:55.544936,599616821357321896,26.00
2025-06-12 13:21:55.544936,599616821357321896,51.00
2025-06-12 13:21:55.544936,599616821357321896,60.00
2025-06-12 13:21:55.544936,599616821357321896,75.00
2025-06-12 13:21:55.544936,599616821357321896,95.00
2025-06-12 13:21:55.544936,599616821357321896,109.00
2025-06-12 13:21:55.544936,599616821357321896,121.00
2025-06-12 13:21:55.544936,599616821357321896,143.00
2025-06-12 13:21:55.544936,599616821357321896,180.00
2025-06-12 13:21:55.544936,599616821357321896,214.00
2025-06-12 13:21:55.544936,599616821357321896,251.00
2025-06-12 13:21:55.544936,599616821357321896,292.00
2025-06-12 13:21:55.544936,599616821357321896,331.00
2025-06-12 13:21:55.544936,599616821357321896,365.00
2025-06-12 13:21:55.544936,599616821357321896,394.00
2025-06-12 13:21:55.544936,599616821357321896,407.00
2025-06-12 13:21:55.544936,599616821357321896,399.00
2025-06-12 13:21:55.544936,599616821357321896,358.00
2025-06-12 13:21:55.544936,599616821357321896,263.00
2025-06-12 13:21:55.544936,599616821357321896,131.00
2025-06-12 13:21:55.544936,599616821357321896,-9.00
2025-06-12 13:21:55.544936,599616821357321896,-126.00
2025-06-12 13:21:55.544936,599616821357321896,-199.00
2025-06-12 13:21:55.544936,599616821357321896,-246.00
2025-06-12 13:21:55.544936,599616821357321896,-282.00
2025-06-12 13:21:55.544936,599616821357321896,-297.00
2025-06-12 13:21:55.544936,599616821357321896,-294.00
2025-06-12 13:21:55.544936,599616821357321896,-287.00
2025-06-12 13:21:55.544936,599616821357321896,-277.00
2025-06-12 13:21:55.544936,599616821357321896,-263.00
2025-06-12 13:21:55.544936,599616821357321896,-248.00
2025-06-12 13:21:55.544936,599616821357321896,-243.00
2025-06-12 13:21:55.544936,599616821357321896,-248.00
2025-06-12 13:21:55.544936,599616821357321896,-243.00
2025-06-12 13:21:55.544936,599616821357321896,-226.00
2025-06-12 13:21:55.544936,599616821357321896,-212.00
2025-06-12 13:21:55.544936,599616821357321896,-207.00
2025-06-12 13:21:55.544936,599616821357321896,-202.00
2025-06-12 13:21:55.544936,599616821357321896,-197.00
2025-06-12 13:21:55.544936,599616821357321896,-190.00
2025-06-12 13:21:55.544936,599616821357321896,-182.00
2025-06-12 13:21:55.544936,599616821357321896,-170.00
2025-06-12 13:21:55.544936,599616821357321896,-163.00
2025-06-12 13:21:55.544936,599616821357321896,-160.00
2025-06-12 13:21:55.544936,599616821357321896,-158.00
2025-06-12 13:21:55.544936,599616821357321896,-155.00
2025-06-12 13:21:55.544936,599616821357321896,-151.00
2025-06-12 13:21:55.544936,599616821357321896,-148.00
2025-06-12 13:21:55.544936,599616821357321896,-151.00
2025-06-12 13:21:55.544936,599616821357321896,-148.00
2025-06-12 13:21:55.544936,599616821357321896,-146.00
2025-06-12 13:21:55.544936,599616821357321896,-143.00
2025-06-12 13:21:55.544936,599616821357321896,-138.00
2025-06-12 13:21:55.544936,599616821357321896,-136.00
2025-06-12 13:21:55.544936,599616821357321896,-138.00
2025-06-12 13:21:55.544936,599616821357321896,-138.00
2025-06-12 13:21:55.544936,599616821357321896,-141.00
2025-06-12 13:21:55.544936,599616821357321896,-138.00
2025-06-12 13:21:55.544936,599616821357321896,-131.00
2025-06-12 13:21:55.544936,599616821357321896,-131.00
2025-06-12 13:21:55.544936,599616821357321896,-129.00
2025-06-12 13:21:55.544936,599616821357321896,-124.00
2025-06-12 13:21:55.544936,599616821357321896,-124.00
2025-06-12 13:21:55.544936,599616821357321896,-126.00
2025-06-12 13:21:55.544936,599616821357321896,-124.00
2025-06-12 13:21:55.544936,599616821357321896,-119.00
2025-06-12 13:21:56.146957,599616821917988419,-116.00
2025-06-12 13:21:56.146957,599616821917988419,-116.00
2025-06-12 13:21:56.146957,599616821917988419,-114.00
2025-06-12 13:21:56.146957,599616821917988419,-116.00
2025-06-12 13:21:56.146957,599616821917988419,-124.00
2025-06-12 13:21:56.146957,599616821917988419,-126.00
2025-06-12 13:21:56.146957,599616821917988419,-119.00
2025-06-12 13:21:56.146957,599616821917988419,-107.00
2025-06-12 13:21:56.146957,599616821917988419,-95.00
2025-06-12 13:21:56.146957,599616821917988419,-82.00
2025-06-12 13:21:56.146957,599616821917988419,-80.00
2025-06-12 13:21:56.146957,599616821917988419,-87.00
2025-06-12 13:21:56.146957,599616821917988419,-97.00
2025-06-12 13:21:56.146957,599616821917988419,-104.00
2025-06-12 13:21:56.146957,599616821917988419,-107.00
2025-06-12 13:21:56.146957,599616821917988419,-107.00
2025-06-12 13:21:56.146957,599616821917988419,-102.00
2025-06-12 13:21:56.146957,599616821917988419,-97.00
2025-06-12 13:21:56.146957,599616821917988419,-90.00
2025-06-12 13:21:56.146957,599616821917988419,-85.00
2025-06-12 13:21:56.146957,599616821917988419,-92.00
2025-06-12 13:21:56.146957,599616821917988419,-136.00
2025-06-12 13:21:56.146957,599616821917988419,-229.00
2025-06-12 13:21:56.146957,599616821917988419,-153.00
2025-06-12 13:21:56.146957,599616821917988419,409.00
2025-06-12 13:21:56.146957,599616821917988419,1167.00
2025-06-12 13:21:56.146957,599616821917988419,1077.00
2025-06-12 13:21:56.146957,599616821917988419,-92.00
2025-06-12 13:21:56.146957,599616821917988419,-845.00
2025-06-12 13:21:56.146957,599616821917988419,-465.00
2025-06-12 13:21:56.146957,599616821917988419,-97.00
2025-06-12 13:21:56.146957,599616821917988419,-160.00
2025-06-12 13:21:56.146957,599616821917988419,-92.00
2025-06-12 13:21:56.146957,599616821917988419,21.00
2025-06-12 13:21:56.146957,599616821917988419,-26.00
2025-06-12 13:21:56.146957,599616821917988419,-36.00
2025-06-12 13:21:56.146957,599616821917988419,9.00
2025-06-12 13:21:56.146957,599616821917988419,4.00
2025-06-12 13:21:56.146957,599616821917988419,4.00
2025-06-12 13:21:56.146957,599616821917988419,34.00
2025-06-12 13:21:56.146957,599616821917988419,38.00
2025-06-12 13:21:56.146957,599616821917988419,41.00
2025-06-12 13:21:56.146957,599616821917988419,68.00
2025-06-12 13:21:56.146957,599616821917988419,85.00
2025-06-12 13:21:56.146957,599616821917988419,95.00
2025-06-12 13:21:56.146957,599616821917988419,121.00
2025-06-12 13:21:56.146957,599616821917988419,148.00
2025-06-12 13:21:56.146957,599616821917988419,177.00
2025-06-12 13:21:56.146957,599616821917988419,216.00
2025-06-12 13:21:56.146957,599616821917988419,258.00
2025-06-12 13:21:56.146957,599616821917988419,297.00
2025-06-12 13:21:56.146957,599616821917988419,343.00
2025-06-12 13:21:56.146957,599616821917988419,377.00
2025-06-12 13:21:56.146957,599616821917988419,394.00
2025-06-12 13:21:56.146957,599616821917988419,409.00
2025-06-12 13:21:56.146957,599616821917988419,404.00
2025-06-12 13:21:56.146957,599616821917988419,338.00
2025-06-12 13:21:56.146957,599616821917988419,212.00
2025-06-12 13:21:56.146957,599616821917988419,68.00
2025-06-12 13:21:56.146957,599616821917988419,-60.00
2025-06-12 13:21:56.146957,599616821917988419,-151.00
2025-06-12 13:21:56.146957,599616821917988419,-212.00
2025-06-12 13:21:56.146957,599616821917988419,-265.00
2025-06-12 13:21:56.146957,599616821917988419,-294.00
2025-06-12 13:21:56.146957,599616821917988419,-299.00
2025-06-12 13:21:56.146957,599616821917988419,-297.00
2025-06-12 13:21:56.146957,599616821917988419,-292.00
2025-06-12 13:21:56.146957,599616821917988419,-277.00
2025-06-12 13:21:56.146957,599616821917988419,-268.00
2025-06-12 13:21:56.146957,599616821917988419,-258.00
2025-06-12 13:21:56.146957,599616821917988419,-243.00
2025-06-12 13:21:56.146957,599616821917988419,-238.00
2025-06-12 13:21:56.146957,599616821917988419,-233.00
2025-06-12 13:21:56.651156,599616822478654942,-219.00
2025-06-12 13:21:56.651156,599616822478654942,-207.00
2025-06-12 13:21:56.651156,599616822478654942,-204.00
2025-06-12 13:21:56.651156,599616822478654942,-199.00
2025-06-12 13:21:56.651156,599616822478654942,-182.00
2025-06-12 13:21:56.651156,599616822478654942,-177.00
2025-06-12 13:21:56.651156,599616822478654942,-185.00
2025-06-12 13:21:56.651156,599616822478654942,-177.00
2025-06-12 13:21:56.651156,599616822478654942,-165.00
2025-06-12 13:21:56.651156,599616822478654942,-165.00
2025-06-12 13:21:56.651156,599616822478654942,-163.00
2025-06-12 13:21:56.651156,599616822478654942,-155.00
2025-06-12 13:21:56.651156,599616822478654942,-153.00
2025-06-12 13:21:56.651156,599616822478654942,-148.00
2025-06-12 13:21:56.651156,599616822478654942,-143.00
2025-06-12 13:21:56.651156,599616822478654942,-146.00
2025-06-12 13:21:56.651156,599616822478654942,-146.00
2025-06-12 13:21:56.651156,599616822478654942,-141.00
2025-06-12 13:21:56.651156,599616822478654942,-138.00
2025-06-12 13:21:56.651156,599616822478654942,-138.00
2025-06-12 13:21:56.651156,599616822478654942,-134.00
2025-06-12 13:21:56.651156,599616822478654942,-131.00
2025-06-12 13:21:56.651156,599616822478654942,-131.00
2025-06-12 13:21:56.651156,599616822478654942,-131.00
2025-06-12 13:21:56.651156,599616822478654942,-124.00
2025-06-12 13:21:56.651156,599616822478654942,-124.00
2025-06-12 13:21:56.651156,599616822478654942,-126.00
2025-06-12 13:21:56.651156,599616822478654942,-126.00
2025-06-12 13:21:56.651156,599616822478654942,-119.00
2025-06-12 13:21:56.651156,599616822478654942,-116.00
2025-06-12 13:21:56.651156,599616822478654942,-114.00
2025-06-12 13:21:56.651156,599616822478654942,-112.00
2025-06-12 13:21:56.651156,599616822478654942,-107.00
2025-06-12 13:21:56.651156,599616822478654942,-107.00
2025-06-12 13:21:56.651156,599616822478654942,-112.00
2025-06-12 13:21:56.651156,599616822478654942,-114.00
2025-06-12 13:21:56.651156,599616822478654942,-114.00
2025-06-12 13:21:56.651156,599616822478654942,-116.00
2025-06-12 13:21:56.651156,599616822478654942,-112.00
2025-06-12 13:21:56.651156,599616822478654942,-92.00
2025-06-12 13:21:56.651156,599616822478654942,-77.00
2025-06-12 13:21:56.651156,599616822478654942,-73.00
2025-06-12 13:21:56.651156,599616822478654942,-73.00
2025-06-12 13:21:56.651156,599616822478654942,-82.00
2025-06-12 13:21:56.651156,599616822478654942,-92.00
2025-06-12 13:21:56.651156,599616822478654942,-99.00
2025-06-12 13:21:56.651156,599616822478654942,-97.00
2025-06-12 13:21:56.651156,599616822478654942,-92.00
2025-06-12 13:21:56.651156,599616822478654942,-92.00
2025-06-12 13:21:56.651156,599616822478654942,-92.00
2025-06-12 13:21:56.651156,599616822478654942,-87.00
2025-06-12 13:21:56.651156,599616822478654942,-82.00
2025-06-12 13:21:56.651156,599616822478654942,-102.00
2025-06-12 13:21:56.651156,599616822478654942,-180.00
2025-06-12 13:21:56.651156,599616822478654942,-221.00
2025-06-12 13:21:56.651156,599616822478654942,99.00
2025-06-12 13:21:56.651156,599616822478654942,867.00
2025-06-12 13:21:56.651156,599616822478654942,1301.00
2025-06-12 13:21:56.651156,599616822478654942,516.00
2025-06-12 13:21:56.651156,599616822478654942,-662.00
2025-06-12 13:21:56.651156,599616822478654942,-726.00
2025-06-12 13:21:56.651156,599616822478654942,-180.00
2025-06-12 13:21:56.651156,599616822478654942,-104.00
2025-06-12 13:21:56.651156,599616822478654942,-146.00
2025-06-12 13:21:56.651156,599616822478654942,0.00
2025-06-12 13:21:56.651156,599616822478654942,14.00
2025-06-12 13:21:56.651156,599616822478654942,-43.00
2025-06-12 13:21:56.651156,599616822478654942,2.00
2025-06-12 13:21:56.651156,599616822478654942,36.00
2025-06-12 13:21:56.651156,599616822478654942,17.00
2025-06-12 13:21:56.651156,599616822478654942,19.00
2025-06-12 13:21:56.651156,599616822478654942,36.00
2025-06-12 13:21:56.651156,599616822478654942,48.00
2025-06-12 13:21:57.254329,599616823039321467,63.00
2025-06-12 13:21:57.254329,599616823039321467,77.00
2025-06-12 13:21:57.254329,599616823039321467,92.00
2025-06-12 13:21:57.254329,599616823039321467,112.00
2025-06-12 13:21:57.254329,599616823039321467,138.00
2025-06-12 13:21:57.254329,599616823039321467,165.00
2025-06-12 13:21:57.254329,599616823039321467,194.00
2025-06-12 13:21:57.254329,599616823039321467,231.00
2025-06-12 13:21:57.254329,599616823039321467,275.00
2025-06-12 13:21:57.254329,599616823039321467,319.00
2025-06-12 13:21:57.254329,599616823039321467,358.00
2025-06-12 13:21:57.254329,599616823039321467,387.00
2025-06-12 13:21:57.254329,599616823039321467,409.00
2025-06-12 13:21:57.254329,599616823039321467,407.00
2025-06-12 13:21:57.254329,599616823039321467,363.00
2025-06-12 13:21:57.254329,599616823039321467,272.00
2025-06-12 13:21:57.254329,599616823039321467,146.00
2025-06-12 13:21:57.254329,599616823039321467,12.00
2025-06-12 13:21:57.254329,599616823039321467,-102.00
2025-06-12 13:21:57.254329,599616823039321467,-192.00
2025-06-12 13:21:57.254329,599616823039321467,-246.00
2025-06-12 13:21:57.254329,599616823039321467,-270.00
2025-06-12 13:21:57.254329,599616823039321467,-290.00
2025-06-12 13:21:57.254329,599616823039321467,-299.00
2025-06-12 13:21:57.254329,599616823039321467,-292.00
2025-06-12 13:21:57.254329,599616823039321467,-277.00
2025-06-12 13:21:57.254329,599616823039321467,-268.00
2025-06-12 13:21:57.254329,599616823039321467,-260.00
2025-06-12 13:21:57.254329,599616823039321467,-251.00
2025-06-12 13:21:57.254329,599616823039321467,-241.00
2025-06-12 13:21:57.254329,599616823039321467,-231.00
2025-06-12 13:21:57.254329,599616823039321467,-221.00
2025-06-12 13:21:57.254329,599616823039321467,-214.00
2025-06-12 13:21:57.254329,599616823039321467,-207.00
2025-06-12 13:21:57.254329,599616823039321467,-199.00
2025-06-12 13:21:57.254329,599616823039321467,-192.00
2025-06-12 13:21:57.254329,599616823039321467,-187.00
2025-06-12 13:21:57.254329,599616823039321467,-180.00
2025-06-12 13:21:57.254329,599616823039321467,-173.00
2025-06-12 13:21:57.254329,599616823039321467,-168.00
2025-06-12 13:21:57.254329,599616823039321467,-163.00
2025-06-12 13:21:57.254329,599616823039321467,-158.00
2025-06-12 13:21:57.254329,599616823039321467,-158.00
2025-06-12 13:21:57.254329,599616823039321467,-155.00
2025-06-12 13:21:57.254329,599616823039321467,-148.00
2025-06-12 13:21:57.254329,599616823039321467,-146.00
2025-06-12 13:21:57.254329,599616823039321467,-143.00
2025-06-12 13:21:57.254329,599616823039321467,-138.00
2025-06-12 13:21:57.254329,599616823039321467,-134.00
2025-06-12 13:21:57.254329,599616823039321467,-136.00
2025-06-12 13:21:57.254329,599616823039321467,-138.00
2025-06-12 13:21:57.254329,599616823039321467,-136.00
2025-06-12 13:21:57.254329,599616823039321467,-134.00
2025-06-12 13:21:57.254329,599616823039321467,-134.00
2025-06-12 13:21:57.254329,599616823039321467,-131.00
2025-06-12 13:21:57.254329,599616823039321467,-124.00
2025-06-12 13:21:57.254329,599616823039321467,-121.00
2025-06-12 13:21:57.254329,599616823039321467,-124.00
2025-06-12 13:21:57.254329,599616823039321467,-124.00
2025-06-12 13:21:57.254329,599616823039321467,-121.00
2025-06-12 13:21:57.254329,599616823039321467,-119.00
2025-06-12 13:21:57.254329,599616823039321467,-119.00
2025-06-12 13:21:57.254329,599616823039321467,-119.00
2025-06-12 13:21:57.254329,599616823039321467,-114.00
2025-06-12 13:21:57.254329,599616823039321467,-112.00
2025-06-12 13:21:57.254329,599616823039321467,-112.00
2025-06-12 13:21:57.254329,599616823039321467,-109.00
2025-06-12 13:21:57.254329,599616823039321467,-107.00
2025-06-12 13:21:57.254329,599616823039321467,-109.00
2025-06-12 13:21:57.254329,599616823039321467,-114.00
2025-06-12 13:21:57.254329,599616823039321467,-114.00
2025-06-12 13:21:57.254329,599616823039321467,-112.00
2025-06-12 13:21:57.254329,599616823039321467,-104.00
2025-06-12 13:21:57.796534,599616823599987990,-87.00
2025-06-12 13:21:57.796534,599616823599987990,-75.00
2025-06-12 13:21:57.796534,599616823599987990,-73.00
2025-06-12 13:21:57.796534,599616823599987990,-85.00
2025-06-12 13:21:57.796534,599616823599987990,-92.00
2025-06-12 13:21:57.796534,599616823599987990,-95.00
2025-06-12 13:21:57.796534,599616823599987990,-97.00
2025-06-12 13:21:57.796534,599616823599987990,-97.00
2025-06-12 13:21:57.796534,599616823599987990,-92.00
2025-06-12 13:21:57.796534,599616823599987990,-87.00
2025-06-12 13:21:57.796534,599616823599987990,-82.00
2025-06-12 13:21:57.796534,599616823599987990,-82.00
2025-06-12 13:21:57.796534,599616823599987990,-92.00
2025-06-12 13:21:57.796534,599616823599987990,-146.00
2025-06-12 13:21:57.796534,599616823599987990,-221.00
2025-06-12 13:21:57.796534,599616823599987990,-29.00
2025-06-12 13:21:57.796534,599616823599987990,650.00
2025-06-12 13:21:57.796534,599616823599987990,1277.00
2025-06-12 13:21:57.796534,599616823599987990,804.00
2025-06-12 13:21:57.796534,599616823599987990,-436.00
2025-06-12 13:21:57.796534,599616823599987990,-801.00
2025-06-12 13:21:57.796534,599616823599987990,-263.00
2025-06-12 13:21:57.796534,599616823599987990,-65.00
2025-06-12 13:21:57.796534,599616823599987990,-153.00
2025-06-12 13:21:57.796534,599616823599987990,-36.00
2025-06-12 13:21:57.796534,599616823599987990,26.00
2025-06-12 13:21:57.796534,599616823599987990,-38.00
2025-06-12 13:21:57.796534,599616823599987990,-19.00
2025-06-12 13:21:57.796534,599616823599987990,24.00
2025-06-12 13:21:57.796534,599616823599987990,14.00
2025-06-12 13:21:57.796534,599616823599987990,17.00
2025-06-12 13:21:57.796534,599616823599987990,36.00
2025-06-12 13:21:57.796534,599616823599987990,41.00
2025-06-12 13:21:57.796534,599616823599987990,51.00
2025-06-12 13:21:57.796534,599616823599987990,73.00
2025-06-12 13:21:57.796534,599616823599987990,82.00
2025-06-12 13:21:57.796534,599616823599987990,99.00
2025-06-12 13:21:57.796534,599616823599987990,129.00
2025-06-12 13:21:57.796534,599616823599987990,158.00
2025-06-12 13:21:57.796534,599616823599987990,185.00
2025-06-12 13:21:57.796534,599616823599987990,221.00
2025-06-12 13:21:57.796534,599616823599987990,263.00
2025-06-12 13:21:57.796534,599616823599987990,304.00
2025-06-12 13:21:57.796534,599616823599987990,343.00
2025-06-12 13:21:57.796534,599616823599987990,377.00
2025-06-12 13:21:57.796534,599616823599987990,404.00
2025-06-12 13:21:57.796534,599616823599987990,409.00
2025-06-12 13:21:57.796534,599616823599987990,382.00
2025-06-12 13:21:57.796534,599616823599987990,316.00
2025-06-12 13:21:57.796534,599616823599987990,204.00
2025-06-12 13:21:57.796534,599616823599987990,63.00
2025-06-12 13:21:57.796534,599616823599987990,-65.00
2025-06-12 13:21:57.796534,599616823599987990,-160.00
2025-06-12 13:21:57.796534,599616823599987990,-226.00
2025-06-12 13:21:57.796534,599616823599987990,-272.00
2025-06-12 13:21:57.796534,599616823599987990,-297.00
2025-06-12 13:21:57.796534,599616823599987990,-297.00
2025-06-12 13:21:57.796534,599616823599987990,-290.00
2025-06-12 13:21:57.796534,599616823599987990,-287.00
2025-06-12 13:21:57.796534,599616823599987990,-285.00
2025-06-12 13:21:57.796534,599616823599987990,-275.00
2025-06-12 13:21:57.796534,599616823599987990,-258.00
2025-06-12 13:21:57.796534,599616823599987990,-243.00
2025-06-12 13:21:57.796534,599616823599987990,-236.00
2025-06-12 13:21:57.796534,599616823599987990,-236.00
2025-06-12 13:21:57.796534,599616823599987990,-226.00
2025-06-12 13:21:57.796534,599616823599987990,-214.00
2025-06-12 13:21:57.796534,599616823599987990,-204.00
2025-06-12 13:21:57.796534,599616823599987990,-204.00
2025-06-12 13:21:57.796534,599616823599987990,-202.00
2025-06-12 13:21:57.796534,599616823599987990,-190.00
2025-06-12 13:21:57.796534,599616823599987990,-180.00
2025-06-12 13:21:57.796534,599616823599987990,-175.00
2025-06-12 13:21:58.364020,599616824160654513,-173.00
2025-06-12 13:21:58.364020,599616824160654513,-170.00
2025-06-12 13:21:58.364020,599616824160654513,-165.00
2025-06-12 13:21:58.364020,599616824160654513,-165.00
2025-06-12 13:21:58.364020,599616824160654513,-163.00
2025-06-12 13:21:58.364020,599616824160654513,-158.00
2025-06-12 13:21:58.364020,599616824160654513,-155.00
2025-06-12 13:21:58.364020,599616824160654513,-148.00
2025-06-12 13:21:58.364020,599616824160654513,-146.00
2025-06-12 13:21:58.364020,599616824160654513,-146.00
2025-06-12 13:21:58.364020,599616824160654513,-143.00
2025-06-12 13:21:58.364020,599616824160654513,-138.00
2025-06-12 13:21:58.364020,599616824160654513,-138.00
2025-06-12 13:21:58.364020,599616824160654513,-136.00
2025-06-12 13:21:58.364020,599616824160654513,-138.00
2025-06-12 13:21:58.364020,599616824160654513,-138.00
2025-06-12 13:21:58.364020,599616824160654513,-129.00
2025-06-12 13:21:58.364020,599616824160654513,-124.00
2025-06-12 13:21:58.364020,599616824160654513,-129.00
2025-06-12 13:21:58.364020,599616824160654513,-131.00
2025-06-12 13:21:58.364020,599616824160654513,-129.00
2025-06-12 13:21:58.364020,599616824160654513,-124.00
2025-06-12 13:21:58.364020,599616824160654513,-124.00
2025-06-12 13:21:58.364020,599616824160654513,-119.00
2025-06-12 13:21:58.364020,599616824160654513,-114.00
2025-06-12 13:21:58.364020,599616824160654513,-116.00
2025-06-12 13:21:58.364020,599616824160654513,-116.00
2025-06-12 13:21:58.364020,599616824160654513,-112.00
2025-06-12 13:21:58.364020,599616824160654513,-112.00
2025-06-12 13:21:58.364020,599616824160654513,-119.00
2025-06-12 13:21:58.364020,599616824160654513,-121.00
2025-06-12 13:21:58.364020,599616824160654513,-114.00
2025-06-12 13:21:58.364020,599616824160654513,-114.00
2025-06-12 13:21:58.364020,599616824160654513,-124.00
2025-06-12 13:21:58.364020,599616824160654513,-112.00
2025-06-12 13:21:58.364020,599616824160654513,-87.00
2025-06-12 13:21:58.364020,599616824160654513,-80.00
2025-06-12 13:21:58.364020,599616824160654513,-75.00
2025-06-12 13:21:58.364020,599616824160654513,-80.00
2025-06-12 13:21:58.364020,599616824160654513,-99.00
2025-06-12 13:21:58.364020,599616824160654513,-109.00
2025-06-12 13:21:58.364020,599616824160654513,-99.00
2025-06-12 13:21:58.364020,599616824160654513,-99.00
2025-06-12 13:21:58.364020,599616824160654513,-99.00
2025-06-12 13:21:58.364020,599616824160654513,-95.00
2025-06-12 13:21:58.364020,599616824160654513,-90.00
2025-06-12 13:21:58.364020,599616824160654513,-87.00
2025-06-12 13:21:58.364020,599616824160654513,-95.00
2025-06-12 13:21:58.364020,599616824160654513,-143.00
2025-06-12 13:21:58.364020,599616824160654513,-219.00
2025-06-12 13:21:58.364020,599616824160654513,-102.00
2025-06-12 13:21:58.364020,599616824160654513,470.00
2025-06-12 13:21:58.364020,599616824160654513,1155.00
2025-06-12 13:21:58.364020,599616824160654513,952.00
2025-06-12 13:21:58.364020,599616824160654513,-199.00
2025-06-12 13:21:58.364020,599616824160654513,-823.00
2025-06-12 13:21:58.364020,599616824160654513,-411.00
2025-06-12 13:21:58.364020,599616824160654513,-99.00
2025-06-12 13:21:58.364020,599616824160654513,-168.00
2025-06-12 13:21:58.364020,599616824160654513,-85.00
2025-06-12 13:21:58.364020,599616824160654513,24.00
2025-06-12 13:21:58.364020,599616824160654513,-29.00
2025-06-12 13:21:58.364020,599616824160654513,-38.00
2025-06-12 13:21:58.364020,599616824160654513,21.00
2025-06-12 13:21:58.364020,599616824160654513,21.00
2025-06-12 13:21:58.364020,599616824160654513,7.00
2025-06-12 13:21:58.364020,599616824160654513,29.00
2025-06-12 13:21:58.364020,599616824160654513,46.00
2025-06-12 13:21:58.364020,599616824160654513,53.00
2025-06-12 13:21:58.364020,599616824160654513,73.00
2025-06-12 13:21:58.364020,599616824160654513,90.00
2025-06-12 13:21:58.364020,599616824160654513,97.00
2025-06-12 13:21:58.364020,599616824160654513,119.00
2025-06-12 13:21:59.041152,599616824721321036,153.00
2025-06-12 13:21:59.041152,599616824721321036,180.00
2025-06-12 13:21:59.041152,599616824721321036,212.00
2025-06-12 13:21:59.041152,599616824721321036,255.00
2025-06-12 13:21:59.041152,599616824721321036,299.00
2025-06-12 13:21:59.041152,599616824721321036,338.00
2025-06-12 13:21:59.041152,599616824721321036,372.00
2025-06-12 13:21:59.041152,599616824721321036,392.00
2025-06-12 13:21:59.041152,599616824721321036,409.00
2025-06-12 13:21:59.041152,599616824721321036,402.00
2025-06-12 13:21:59.041152,599616824721321036,341.00
2025-06-12 13:21:59.041152,599616824721321036,236.00
2025-06-12 13:21:59.041152,599616824721321036,107.00
2025-06-12 13:21:59.041152,599616824721321036,-24.00
2025-06-12 13:21:59.041152,599616824721321036,-134.00
2025-06-12 13:21:59.041152,599616824721321036,-214.00
2025-06-12 13:21:59.041152,599616824721321036,-268.00
2025-06-12 13:21:59.041152,599616824721321036,-287.00
2025-06-12 13:21:59.041152,599616824721321036,-292.00
2025-06-12 13:21:59.041152,599616824721321036,-302.00
2025-06-12 13:21:59.041152,599616824721321036,-299.00
2025-06-12 13:21:59.041152,599616824721321036,-282.00
2025-06-12 13:21:59.041152,599616824721321036,-270.00
2025-06-12 13:21:59.041152,599616824721321036,-265.00
2025-06-12 13:21:59.041152,599616824721321036,-255.00
2025-06-12 13:21:59.041152,599616824721321036,-246.00
2025-06-12 13:21:59.041152,599616824721321036,-236.00
2025-06-12 13:21:59.041152,599616824721321036,-226.00
2025-06-12 13:21:59.041152,599616824721321036,-216.00
2025-06-12 13:21:59.041152,599616824721321036,-212.00
2025-06-12 13:21:59.041152,599616824721321036,-204.00
2025-06-12 13:21:59.041152,599616824721321036,-197.00
2025-06-12 13:21:59.041152,599616824721321036,-192.00
2025-06-12 13:21:59.041152,599616824721321036,-185.00
2025-06-12 13:21:59.041152,599616824721321036,-175.00
2025-06-12 13:21:59.041152,599616824721321036,-173.00
2025-06-12 13:21:59.041152,599616824721321036,-168.00
2025-06-12 13:21:59.041152,599616824721321036,-163.00
2025-06-12 13:21:59.041152,599616824721321036,-163.00
2025-06-12 13:21:59.041152,599616824721321036,-160.00
2025-06-12 13:21:59.041152,599616824721321036,-155.00
2025-06-12 13:21:59.041152,599616824721321036,-153.00
2025-06-12 13:21:59.041152,599616824721321036,-155.00
2025-06-12 13:21:59.041152,599616824721321036,-153.00
2025-06-12 13:21:59.041152,599616824721321036,-148.00
2025-06-12 13:21:59.041152,599616824721321036,-146.00
2025-06-12 13:21:59.041152,599616824721321036,-148.00
2025-06-12 13:21:59.041152,599616824721321036,-146.00
2025-06-12 13:21:59.041152,599616824721321036,-141.00
2025-06-12 13:21:59.041152,599616824721321036,-143.00
2025-06-12 13:21:59.041152,599616824721321036,-141.00
2025-06-12 13:21:59.041152,599616824721321036,-134.00
2025-06-12 13:21:59.041152,599616824721321036,-131.00
2025-06-12 13:21:59.041152,599616824721321036,-131.00
2025-06-12 13:21:59.041152,599616824721321036,-131.00
2025-06-12 13:21:59.041152,599616824721321036,-126.00
2025-06-12 13:21:59.041152,599616824721321036,-121.00
2025-06-12 13:21:59.041152,599616824721321036,-121.00
2025-06-12 13:21:59.041152,599616824721321036,-121.00
2025-06-12 13:21:59.041152,599616824721321036,-119.00
2025-06-12 13:21:59.041152,599616824721321036,-116.00
2025-06-12 13:21:59.041152,599616824721321036,-114.00
2025-06-12 13:21:59.041152,599616824721321036,-114.00
2025-06-12 13:21:59.041152,599616824721321036,-109.00
2025-06-12 13:21:59.041152,599616824721321036,-109.00
2025-06-12 13:21:59.041152,599616824721321036,-109.00
2025-06-12 13:21:59.041152,599616824721321036,-104.00
2025-06-12 13:21:59.041152,599616824721321036,-102.00
2025-06-12 13:21:59.041152,599616824721321036,-107.00
2025-06-12 13:21:59.041152,599616824721321036,-109.00
2025-06-12 13:21:59.041152,599616824721321036,-107.00
2025-06-12 13:21:59.041152,599616824721321036,-104.00
2025-06-12 13:21:59.041152,599616824721321036,-97.00
2025-06-12 13:21:59.471036,599616825281987559,-87.00
2025-06-12 13:21:59.471036,599616825281987559,-73.00
2025-06-12 13:21:59.471036,599616825281987559,-65.00
2025-06-12 13:21:59.471036,599616825281987559,-75.00
2025-06-12 13:21:59.471036,599616825281987559,-85.00
2025-06-12 13:21:59.471036,599616825281987559,-90.00
2025-06-12 13:21:59.471036,599616825281987559,-92.00
2025-06-12 13:21:59.471036,599616825281987559,-90.00
2025-06-12 13:21:59.471036,599616825281987559,-82.00
2025-06-12 13:21:59.471036,599616825281987559,-77.00
2025-06-12 13:21:59.471036,599616825281987559,-80.00
2025-06-12 13:21:59.471036,599616825281987559,-80.00
2025-06-12 13:21:59.471036,599616825281987559,-87.00
2025-06-12 13:21:59.471036,599616825281987559,-148.00
2025-06-12 13:21:59.471036,599616825281987559,-209.00
2025-06-12 13:21:59.471036,599616825281987559,26.00
2025-06-12 13:21:59.471036,599616825281987559,731.00
2025-06-12 13:21:59.471036,599616825281987559,1274.00
2025-06-12 13:21:59.471036,599616825281987559,692.00
2025-06-12 13:21:59.471036,599616825281987559,-514.00
2025-06-12 13:21:59.471036,599616825281987559,-767.00
2025-06-12 13:21:59.471036,599616825281987559,-236.00
2025-06-12 13:21:59.471036,599616825281987559,-82.00
2025-06-12 13:21:59.471036,599616825281987559,-143.00
2025-06-12 13:21:59.471036,599616825281987559,-14.00
2025-06-12 13:21:59.471036,599616825281987559,26.00
2025-06-12 13:21:59.471036,599616825281987559,-36.00
2025-06-12 13:21:59.471036,599616825281987559,-12.00
2025-06-12 13:21:59.471036,599616825281987559,24.00
2025-06-12 13:21:59.471036,599616825281987559,17.00
2025-06-12 13:21:59.471036,599616825281987559,26.00
2025-06-12 13:21:59.471036,599616825281987559,43.00
2025-06-12 13:21:59.471036,599616825281987559,51.00
2025-06-12 13:21:59.471036,599616825281987559,63.00
2025-06-12 13:21:59.471036,599616825281987559,85.00
2025-06-12 13:21:59.471036,599616825281987559,97.00
2025-06-12 13:21:59.471036,599616825281987559,112.00
2025-06-12 13:21:59.471036,599616825281987559,134.00
2025-06-12 13:21:59.471036,599616825281987559,158.00
2025-06-12 13:21:59.471036,599616825281987559,190.00
2025-06-12 13:21:59.471036,599616825281987559,224.00
2025-06-12 13:21:59.471036,599616825281987559,265.00
2025-06-12 13:21:59.471036,599616825281987559,307.00
2025-06-12 13:21:59.471036,599616825281987559,346.00
2025-06-12 13:21:59.471036,599616825281987559,375.00
2025-06-12 13:21:59.471036,599616825281987559,397.00
2025-06-12 13:21:59.471036,599616825281987559,407.00
2025-06-12 13:21:59.471036,599616825281987559,392.00
2025-06-12 13:21:59.471036,599616825281987559,336.00
2025-06-12 13:21:59.471036,599616825281987559,229.00
2025-06-12 13:21:59.471036,599616825281987559,95.00
2025-06-12 13:21:59.471036,599616825281987559,-34.00
2025-06-12 13:21:59.471036,599616825281987559,-136.00
2025-06-12 13:21:59.471036,599616825281987559,-207.00
2025-06-12 13:21:59.471036,599616825281987559,-253.00
2025-06-12 13:21:59.471036,599616825281987559,-277.00
2025-06-12 13:21:59.471036,599616825281987559,-287.00
2025-06-12 13:21:59.471036,599616825281987559,-287.00
2025-06-12 13:21:59.471036,599616825281987559,-277.00
2025-06-12 13:21:59.471036,599616825281987559,-270.00
2025-06-12 13:21:59.471036,599616825281987559,-263.00
2025-06-12 13:21:59.471036,599616825281987559,-248.00
2025-06-12 13:21:59.471036,599616825281987559,-238.00
2025-06-12 13:21:59.471036,599616825281987559,-229.00
2025-06-12 13:21:59.471036,599616825281987559,-221.00
2025-06-12 13:21:59.471036,599616825281987559,-216.00
2025-06-12 13:21:59.471036,599616825281987559,-209.00
2025-06-12 13:21:59.471036,599616825281987559,-202.00
2025-06-12 13:21:59.471036,599616825281987559,-194.00
2025-06-12 13:21:59.471036,599616825281987559,-190.00
2025-06-12 13:21:59.471036,599616825281987559,-182.00
2025-06-12 13:21:59.471036,599616825281987559,-173.00
2025-06-12 13:21:59.471036,599616825281987559,-170.00
2025-06-12 13:22:00.029300,599616825842654082,-168.00
2025-06-12 13:22:00.029300,599616825842654082,-163.00
2025-06-12 13:22:00.029300,599616825842654082,-158.00
2025-06-12 13:22:00.029300,599616825842654082,-155.00
2025-06-12 13:22:00.029300,599616825842654082,-153.00
2025-06-12 13:22:00.029300,599616825842654082,-151.00
2025-06-12 13:22:00.029300,599616825842654082,-148.00
2025-06-12 13:22:00.029300,599616825842654082,-146.00
2025-06-12 13:22:00.029300,599616825842654082,-143.00
2025-06-12 13:22:00.029300,599616825842654082,-143.00
2025-06-12 13:22:00.029300,599616825842654082,-141.00
2025-06-12 13:22:00.029300,599616825842654082,-138.00
2025-06-12 13:22:00.029300,599616825842654082,-138.00
2025-06-12 13:22:00.029300,599616825842654082,-136.00
2025-06-12 13:22:00.029300,599616825842654082,-136.00
2025-06-12 13:22:00.029300,599616825842654082,-134.00
2025-06-12 13:22:00.029300,599616825842654082,-134.00
2025-06-12 13:22:00.029300,599616825842654082,-134.00
2025-06-12 13:22:00.029300,599616825842654082,-131.00
2025-06-12 13:22:00.029300,599616825842654082,-126.00
2025-06-12 13:22:00.029300,599616825842654082,-124.00
2025-06-12 13:22:00.029300,599616825842654082,-121.00
2025-06-12 13:22:00.029300,599616825842654082,-124.00
2025-06-12 13:22:00.029300,599616825842654082,-121.00
2025-06-12 13:22:00.029300,599616825842654082,-116.00
2025-06-12 13:22:00.029300,599616825842654082,-116.00
2025-06-12 13:22:00.029300,599616825842654082,-121.00
2025-06-12 13:22:00.029300,599616825842654082,-119.00
2025-06-12 13:22:00.029300,599616825842654082,-114.00
2025-06-12 13:22:00.029300,599616825842654082,-112.00
2025-06-12 13:22:00.029300,599616825842654082,-109.00
2025-06-12 13:22:00.029300,599616825842654082,-109.00
2025-06-12 13:22:00.029300,599616825842654082,-114.00
2025-06-12 13:22:00.029300,599616825842654082,-116.00
2025-06-12 13:22:00.029300,599616825842654082,-114.00
2025-06-12 13:22:00.029300,599616825842654082,-107.00
2025-06-12 13:22:00.029300,599616825842654082,-99.00
2025-06-12 13:22:00.029300,599616825842654082,-87.00
2025-06-12 13:22:00.029300,599616825842654082,-73.00
2025-06-12 13:22:00.029300,599616825842654082,-70.00
2025-06-12 13:22:00.029300,599616825842654082,-85.00
2025-06-12 13:22:00.029300,599616825842654082,-99.00
2025-06-12 13:22:00.029300,599616825842654082,-97.00
2025-06-12 13:22:00.029300,599616825842654082,-95.00
2025-06-12 13:22:00.029300,599616825842654082,-97.00
2025-06-12 13:22:00.029300,599616825842654082,-95.00
2025-06-12 13:22:00.029300,599616825842654082,-92.00
2025-06-12 13:22:00.029300,599616825842654082,-87.00
2025-06-12 13:22:00.029300,599616825842654082,-85.00
2025-06-12 13:22:00.029300,599616825842654082,-109.00
2025-06-12 13:22:00.029300,599616825842654082,-190.00
2025-06-12 13:22:00.029300,599616825842654082,-185.00
2025-06-12 13:22:00.029300,599616825842654082,231.00
2025-06-12 13:22:00.029300,599616825842654082,982.00
2025-06-12 13:22:00.029300,599616825842654082,1179.00
2025-06-12 13:22:00.029300,599616825842654082,219.00
2025-06-12 13:22:00.029300,599616825842654082,-762.00
2025-06-12 13:22:00.029300,599616825842654082,-592.00
2025-06-12 13:22:00.029300,599616825842654082,-116.00
2025-06-12 13:22:00.029300,599616825842654082,-124.00
2025-06-12 13:22:00.029300,599616825842654082,-119.00
2025-06-12 13:22:00.029300,599616825842654082,17.00
2025-06-12 13:22:00.029300,599616825842654082,-2.00
2025-06-12 13:22:00.029300,599616825842654082,-41.00
2025-06-12 13:22:00.029300,599616825842654082,9.00
2025-06-12 13:22:00.029300,599616825842654082,24.00
2025-06-12 13:22:00.029300,599616825842654082,9.00
2025-06-12 13:22:00.029300,599616825842654082,29.00
2025-06-12 13:22:00.029300,599616825842654082,48.00
2025-06-12 13:22:00.029300,599616825842654082,48.00
2025-06-12 13:22:00.029300,599616825842654082,68.00
2025-06-12 13:22:00.029300,599616825842654082,90.00
2025-06-12 13:22:00.029300,599616825842654082,97.00
2025-06-12 13:22:00.615032,599616826403320607,116.00
2025-06-12 13:22:00.615032,599616826403320607,153.00
2025-06-12 13:22:00.615032,599616826403320607,182.00
2025-06-12 13:22:00.615032,599616826403320607,199.00
2025-06-12 13:22:00.615032,599616826403320607,231.00
2025-06-12 13:22:00.615032,599616826403320607,277.00
2025-06-12 13:22:00.615032,599616826403320607,319.00
2025-06-12 13:22:00.615032,599616826403320607,355.00
2025-06-12 13:22:00.615032,599616826403320607,387.00
2025-06-12 13:22:00.615032,599616826403320607,409.00
2025-06-12 13:22:00.615032,599616826403320607,414.00
2025-06-12 13:22:00.615032,599616826403320607,392.00
2025-06-12 13:22:00.615032,599616826403320607,326.00
2025-06-12 13:22:00.615032,599616826403320607,214.00
2025-06-12 13:22:00.615032,599616826403320607,82.00
2025-06-12 13:22:00.615032,599616826403320607,-34.00
2025-06-12 13:22:00.615032,599616826403320607,-121.00
2025-06-12 13:22:00.615032,599616826403320607,-180.00
2025-06-12 13:22:00.615032,599616826403320607,-214.00
2025-06-12 13:22:00.615032,599616826403320607,-226.00
2025-06-12 13:22:00.615032,599616826403320607,-226.00
2025-06-12 13:22:00.615032,599616826403320607,-224.00
2025-06-12 13:22:00.615032,599616826403320607,-212.00
2025-06-12 13:22:00.615032,599616826403320607,-199.00
2025-06-12 13:22:00.615032,599616826403320607,-185.00
2025-06-12 13:22:00.615032,599616826403320607,-170.00
2025-06-12 13:22:00.615032,599616826403320607,-160.00
2025-06-12 13:22:00.615032,599616826403320607,-153.00
2025-06-12 13:22:00.615032,599616826403320607,-141.00
2025-06-12 13:22:00.615032,599616826403320607,-126.00
2025-06-12 13:22:00.615032,599616826403320607,-119.00
2025-06-12 13:22:00.615032,599616826403320607,-109.00
2025-06-12 13:22:00.615032,599616826403320607,-102.00
2025-06-12 13:22:00.615032,599616826403320607,-97.00
2025-06-12 13:22:00.615032,599616826403320607,-92.00
2025-06-12 13:22:00.615032,599616826403320607,-82.00
2025-06-12 13:22:00.615032,599616826403320607,-75.00
2025-06-12 13:22:00.615032,599616826403320607,-73.00
2025-06-12 13:22:00.615032,599616826403320607,-70.00
2025-06-12 13:22:00.615032,599616826403320607,-63.00
2025-06-12 13:22:00.615032,599616826403320607,-60.00
2025-06-12 13:22:00.615032,599616826403320607,-58.00
2025-06-12 13:22:00.615032,599616826403320607,-56.00
2025-06-12 13:22:00.615032,599616826403320607,-56.00
2025-06-12 13:22:00.615032,599616826403320607,-56.00
2025-06-12 13:22:00.615032,599616826403320607,-53.00
2025-06-12 13:22:00.615032,599616826403320607,-51.00
2025-06-12 13:22:00.615032,599616826403320607,-51.00
2025-06-12 13:22:00.615032,599616826403320607,-51.00
2025-06-12 13:22:00.615032,599616826403320607,-51.00
2025-06-12 13:22:00.615032,599616826403320607,-51.00
2025-06-12 13:22:00.615032,599616826403320607,-48.00
2025-06-12 13:22:00.615032,599616826403320607,-48.00
2025-06-12 13:22:00.615032,599616826403320607,-48.00
2025-06-12 13:22:00.615032,599616826403320607,-46.00
2025-06-12 13:22:00.615032,599616826403320607,-43.00
2025-06-12 13:22:00.615032,599616826403320607,-46.00
2025-06-12 13:22:00.615032,599616826403320607,-46.00
2025-06-12 13:22:00.615032,599616826403320607,-43.00
2025-06-12 13:22:00.615032,599616826403320607,-41.00
2025-06-12 13:22:00.615032,599616826403320607,-43.00
2025-06-12 13:22:00.615032,599616826403320607,-46.00
2025-06-12 13:22:00.615032,599616826403320607,-43.00
2025-06-12 13:22:00.615032,599616826403320607,-43.00
2025-06-12 13:22:00.615032,599616826403320607,-43.00
2025-06-12 13:22:00.615032,599616826403320607,-36.00
2025-06-12 13:22:00.615032,599616826403320607,-38.00
2025-06-12 13:22:00.615032,599616826403320607,-48.00
2025-06-12 13:22:00.615032,599616826403320607,-48.00
2025-06-12 13:22:00.615032,599616826403320607,-43.00
2025-06-12 13:22:00.615032,599616826403320607,-36.00
2025-06-12 13:22:00.615032,599616826403320607,-29.00
2025-06-12 13:22:00.615032,599616826403320607,-19.00
2025-06-12 13:22:01.151362,599616826963987130,-17.00
2025-06-12 13:22:01.151362,599616826963987130,-24.00
2025-06-12 13:22:01.151362,599616826963987130,-41.00
2025-06-12 13:22:01.151362,599616826963987130,-48.00
2025-06-12 13:22:01.151362,599616826963987130,-51.00
2025-06-12 13:22:01.151362,599616826963987130,-48.00
2025-06-12 13:22:01.151362,599616826963987130,-46.00
2025-06-12 13:22:01.151362,599616826963987130,-48.00
2025-06-12 13:22:01.151362,599616826963987130,-46.00
2025-06-12 13:22:01.151362,599616826963987130,-41.00
2025-06-12 13:22:01.151362,599616826963987130,-68.00
2025-06-12 13:22:01.151362,599616826963987130,-151.00
2025-06-12 13:22:01.151362,599616826963987130,-146.00
2025-06-12 13:22:01.151362,599616826963987130,260.00
2025-06-12 13:22:01.151362,599616826963987130,991.00
2025-06-12 13:22:01.151362,599616826963987130,1172.00
2025-06-12 13:22:01.151362,599616826963987130,229.00
2025-06-12 13:22:01.151362,599616826963987130,-716.00
2025-06-12 13:22:01.151362,599616826963987130,-550.00
2025-06-12 13:22:01.151362,599616826963987130,-95.00
2025-06-12 13:22:01.151362,599616826963987130,-90.00
2025-06-12 13:22:01.151362,599616826963987130,-77.00
2025-06-12 13:22:01.151362,599616826963987130,43.00
2025-06-12 13:22:01.151362,599616826963987130,21.00
2025-06-12 13:22:01.151362,599616826963987130,-9.00
2025-06-12 13:22:01.151362,599616826963987130,34.00
2025-06-12 13:22:01.151362,599616826963987130,43.00
2025-06-12 13:22:01.151362,599616826963987130,34.00
2025-06-12 13:22:01.151362,599616826963987130,56.00
2025-06-12 13:22:01.151362,599616826963987130,68.00
2025-06-12 13:22:01.151362,599616826963987130,70.00
2025-06-12 13:22:01.151362,599616826963987130,82.00
2025-06-12 13:22:01.151362,599616826963987130,102.00
2025-06-12 13:22:01.151362,599616826963987130,112.00
2025-06-12 13:22:01.151362,599616826963987130,131.00
2025-06-12 13:22:01.151362,599616826963987130,160.00
2025-06-12 13:22:01.151362,599616826963987130,182.00
2025-06-12 13:22:01.151362,599616826963987130,209.00
2025-06-12 13:22:01.151362,599616826963987130,253.00
2025-06-12 13:22:01.151362,599616826963987130,294.00
2025-06-12 13:22:01.151362,599616826963987130,326.00
2025-06-12 13:22:01.151362,599616826963987130,363.00
2025-06-12 13:22:01.151362,599616826963987130,394.00
2025-06-12 13:22:01.151362,599616826963987130,416.00
2025-06-12 13:22:01.151362,599616826963987130,419.00
2025-06-12 13:22:01.151362,599616826963987130,397.00
2025-06-12 13:22:01.151362,599616826963987130,338.00
2025-06-12 13:22:01.151362,599616826963987130,241.00
2025-06-12 13:22:01.151362,599616826963987130,104.00
2025-06-12 13:22:01.151362,599616826963987130,-21.00
2025-06-12 13:22:01.151362,599616826963987130,-104.00
2025-06-12 13:22:01.151362,599616826963987130,-155.00
2025-06-12 13:22:01.151362,599616826963987130,-187.00
2025-06-12 13:22:01.151362,599616826963987130,-202.00
2025-06-12 13:22:01.151362,599616826963987130,-199.00
2025-06-12 13:22:01.151362,599616826963987130,-192.00
2025-06-12 13:22:01.151362,599616826963987130,-182.00
2025-06-12 13:22:01.151362,599616826963987130,-173.00
2025-06-12 13:22:01.151362,599616826963987130,-160.00
2025-06-12 13:22:01.151362,599616826963987130,-148.00
2025-06-12 13:22:01.151362,599616826963987130,-136.00
2025-06-12 13:22:01.151362,599616826963987130,-119.00
2025-06-12 13:22:01.151362,599616826963987130,-109.00
2025-06-12 13:22:01.151362,599616826963987130,-104.00
2025-06-12 13:22:01.151362,599616826963987130,-95.00
2025-06-12 13:22:01.151362,599616826963987130,-77.00
2025-06-12 13:22:01.151362,599616826963987130,-73.00
2025-06-12 13:22:01.151362,599616826963987130,-60.00
2025-06-12 13:22:01.151362,599616826963987130,-41.00
2025-06-12 13:22:01.151362,599616826963987130,-38.00
2025-06-12 13:22:01.151362,599616826963987130,-29.00
2025-06-12 13:22:01.151362,599616826963987130,-7.00
2025-06-12 13:22:01.151362,599616826963987130,-4.00
2025-06-12 13:22:01.724423,599616827524653653,-7.00
2025-06-12 13:22:01.724423,599616827524653653,2.00
2025-06-12 13:22:01.724423,599616827524653653,4.00
2025-06-12 13:22:01.724423,599616827524653653,7.00
2025-06-12 13:22:01.724423,599616827524653653,19.00
2025-06-12 13:22:01.724423,599616827524653653,26.00
2025-06-12 13:22:01.724423,599616827524653653,38.00
2025-06-12 13:22:01.724423,599616827524653653,46.00
2025-06-12 13:22:01.724423,599616827524653653,43.00
2025-06-12 13:22:01.724423,599616827524653653,46.00
2025-06-12 13:22:01.724423,599616827524653653,58.00
2025-06-12 13:22:01.724423,599616827524653653,56.00
2025-06-12 13:22:01.724423,599616827524653653,51.00
2025-06-12 13:22:01.724423,599616827524653653,48.00
2025-06-12 13:22:01.724423,599616827524653653,46.00
2025-06-12 13:22:01.724423,599616827524653653,53.00
2025-06-12 13:22:01.724423,599616827524653653,63.00
2025-06-12 13:22:01.724423,599616827524653653,68.00
2025-06-12 13:22:01.724423,599616827524653653,56.00
2025-06-12 13:22:01.724423,599616827524653653,51.00
2025-06-12 13:22:01.724423,599616827524653653,68.00
2025-06-12 13:22:01.724423,599616827524653653,70.00
2025-06-12 13:22:01.724423,599616827524653653,58.00
2025-06-12 13:22:01.724423,599616827524653653,53.00
2025-06-12 13:22:01.724423,599616827524653653,63.00
2025-06-12 13:22:01.724423,599616827524653653,82.00
2025-06-12 13:22:01.724423,599616827524653653,97.00
2025-06-12 13:22:01.724423,599616827524653653,102.00
2025-06-12 13:22:01.724423,599616827524653653,99.00
2025-06-12 13:22:01.724423,599616827524653653,77.00
2025-06-12 13:22:01.724423,599616827524653653,58.00
2025-06-12 13:22:01.724423,599616827524653653,63.00
2025-06-12 13:22:01.724423,599616827524653653,70.00
2025-06-12 13:22:01.724423,599616827524653653,70.00
2025-06-12 13:22:01.724423,599616827524653653,65.00
2025-06-12 13:22:01.724423,599616827524653653,63.00
2025-06-12 13:22:01.724423,599616827524653653,70.00
2025-06-12 13:22:01.724423,599616827524653653,75.00
2025-06-12 13:22:01.724423,599616827524653653,34.00
2025-06-12 13:22:01.724423,599616827524653653,-36.00
2025-06-12 13:22:01.724423,599616827524653653,82.00
2025-06-12 13:22:01.724423,599616827524653653,614.00
2025-06-12 13:22:01.724423,599616827524653653,1223.00
2025-06-12 13:22:01.724423,599616827524653653,984.00
2025-06-12 13:22:01.724423,599616827524653653,-80.00
2025-06-12 13:22:01.724423,599616827524653653,-604.00
2025-06-12 13:22:01.724423,599616827524653653,-236.00
2025-06-12 13:22:01.724423,599616827524653653,34.00
2025-06-12 13:22:01.724423,599616827524653653,19.00
2025-06-12 13:22:01.724423,599616827524653653,109.00
2025-06-12 13:22:01.724423,599616827524653653,170.00
2025-06-12 13:22:01.724423,599616827524653653,121.00
2025-06-12 13:22:01.724423,599616827524653653,131.00
2025-06-12 13:22:01.724423,599616827524653653,160.00
2025-06-12 13:22:01.724423,599616827524653653,143.00
2025-06-12 13:22:01.724423,599616827524653653,141.00
2025-06-12 13:22:01.724423,599616827524653653,163.00
2025-06-12 13:22:01.724423,599616827524653653,175.00
2025-06-12 13:22:01.724423,599616827524653653,194.00
2025-06-12 13:22:01.724423,599616827524653653,216.00
2025-06-12 13:22:01.724423,599616827524653653,233.00
2025-06-12 13:22:01.724423,599616827524653653,246.00
2025-06-12 13:22:01.724423,599616827524653653,260.00
2025-06-12 13:22:01.724423,599616827524653653,275.00
2025-06-12 13:22:01.724423,599616827524653653,304.00
2025-06-12 13:22:01.724423,599616827524653653,331.00
2025-06-12 13:22:01.724423,599616827524653653,355.00
2025-06-12 13:22:01.724423,599616827524653653,394.00
2025-06-12 13:22:01.724423,599616827524653653,441.00
2025-06-12 13:22:01.724423,599616827524653653,463.00
2025-06-12 13:22:01.724423,599616827524653653,467.00
2025-06-12 13:22:01.724423,599616827524653653,472.00
2025-06-12 13:22:01.724423,599616827524653653,455.00
2025-06-12 13:22:02.262734,599616828085320176,394.00
2025-06-12 13:22:02.262734,599616828085320176,297.00
2025-06-12 13:22:02.262734,599616828085320176,180.00
2025-06-12 13:22:02.262734,599616828085320176,68.00
2025-06-12 13:22:02.262734,599616828085320176,-31.00
2025-06-12 13:22:02.262734,599616828085320176,-109.00
2025-06-12 13:22:02.262734,599616828085320176,-153.00
2025-06-12 13:22:02.262734,599616828085320176,-180.00
2025-06-12 13:22:02.262734,599616828085320176,-194.00
2025-06-12 13:22:02.262734,599616828085320176,-199.00
2025-06-12 13:22:02.262734,599616828085320176,-197.00
2025-06-12 13:22:02.262734,599616828085320176,-202.00
2025-06-12 13:22:02.262734,599616828085320176,-204.00
2025-06-12 13:22:02.262734,599616828085320176,-187.00
2025-06-12 13:22:02.262734,599616828085320176,-175.00
2025-06-12 13:22:02.262734,599616828085320176,-182.00
2025-06-12 13:22:02.262734,599616828085320176,-180.00
2025-06-12 13:22:02.262734,599616828085320176,-168.00
2025-06-12 13:22:02.262734,599616828085320176,-160.00
2025-06-12 13:22:02.262734,599616828085320176,-158.00
2025-06-12 13:22:02.262734,599616828085320176,-151.00
2025-06-12 13:22:02.262734,599616828085320176,-143.00
2025-06-12 13:22:02.262734,599616828085320176,-138.00
2025-06-12 13:22:02.262734,599616828085320176,-136.00
2025-06-12 13:22:02.262734,599616828085320176,-134.00
2025-06-12 13:22:02.262734,599616828085320176,-134.00
2025-06-12 13:22:02.262734,599616828085320176,-124.00
2025-06-12 13:22:02.262734,599616828085320176,-116.00
2025-06-12 13:22:02.262734,599616828085320176,-121.00
2025-06-12 13:22:02.262734,599616828085320176,-121.00
2025-06-12 13:22:02.262734,599616828085320176,-119.00
2025-06-12 13:22:02.262734,599616828085320176,-121.00
2025-06-12 13:22:02.262734,599616828085320176,-119.00
2025-06-12 13:22:02.262734,599616828085320176,-107.00
2025-06-12 13:22:02.262734,599616828085320176,-104.00
2025-06-12 13:22:02.262734,599616828085320176,-109.00
2025-06-12 13:22:02.262734,599616828085320176,-107.00
2025-06-12 13:22:02.262734,599616828085320176,-109.00
2025-06-12 13:22:02.262734,599616828085320176,-114.00
2025-06-12 13:22:02.262734,599616828085320176,-116.00
2025-06-12 13:22:02.262734,599616828085320176,-116.00
2025-06-12 13:22:02.262734,599616828085320176,-107.00
2025-06-12 13:22:02.262734,599616828085320176,-104.00
2025-06-12 13:22:02.262734,599616828085320176,-99.00
2025-06-12 13:22:02.262734,599616828085320176,-90.00
2025-06-12 13:22:02.262734,599616828085320176,-95.00
2025-06-12 13:22:02.262734,599616828085320176,-102.00
2025-06-12 13:22:02.262734,599616828085320176,-112.00
2025-06-12 13:22:02.262734,599616828085320176,-114.00
2025-06-12 13:22:02.262734,599616828085320176,-87.00
2025-06-12 13:22:02.262734,599616828085320176,-73.00
2025-06-12 13:22:02.262734,599616828085320176,-70.00
2025-06-12 13:22:02.262734,599616828085320176,-41.00
2025-06-12 13:22:02.262734,599616828085320176,-31.00
2025-06-12 13:22:02.262734,599616828085320176,-75.00
2025-06-12 13:22:02.262734,599616828085320176,-102.00
2025-06-12 13:22:02.262734,599616828085320176,-99.00
2025-06-12 13:22:02.262734,599616828085320176,-97.00
2025-06-12 13:22:02.262734,599616828085320176,-97.00
2025-06-12 13:22:02.262734,599616828085320176,-95.00
2025-06-12 13:22:02.262734,599616828085320176,-97.00
2025-06-12 13:22:02.262734,599616828085320176,-107.00
2025-06-12 13:22:02.262734,599616828085320176,-155.00
2025-06-12 13:22:02.262734,599616828085320176,-231.00
2025-06-12 13:22:02.262734,599616828085320176,-90.00
2025-06-12 13:22:02.262734,599616828085320176,492.00
2025-06-12 13:22:02.262734,599616828085320176,1062.00
2025-06-12 13:22:02.262734,599616828085320176,697.00
2025-06-12 13:22:02.262734,599616828085320176,-370.00
2025-06-12 13:22:02.262734,599616828085320176,-770.00
2025-06-12 13:22:02.262734,599616828085320176,-389.00
2025-06-12 13:22:02.262734,599616828085320176,-182.00
2025-06-12 13:22:02.262734,599616828085320176,-187.00
2025-06-12 13:22:02.833018,599616828645986699,-80.00
2025-06-12 13:22:02.833018,599616828645986699,-36.00
2025-06-12 13:22:02.833018,599616828645986699,-90.00
2025-06-12 13:22:02.833018,599616828645986699,-75.00
2025-06-12 13:22:02.833018,599616828645986699,-43.00
2025-06-12 13:22:02.833018,599616828645986699,-43.00
2025-06-12 13:22:02.833018,599616828645986699,-31.00
2025-06-12 13:22:02.833018,599616828645986699,-19.00
2025-06-12 13:22:02.833018,599616828645986699,-12.00
2025-06-12 13:22:02.833018,599616828645986699,-4.00
2025-06-12 13:22:02.833018,599616828645986699,2.00
2025-06-12 13:22:02.833018,599616828645986699,17.00
2025-06-12 13:22:02.833018,599616828645986699,43.00
2025-06-12 13:22:02.833018,599616828645986699,70.00
2025-06-12 13:22:02.833018,599616828645986699,97.00
2025-06-12 13:22:02.833018,599616828645986699,124.00
2025-06-12 13:22:02.833018,599616828645986699,153.00
2025-06-12 13:22:02.833018,599616828645986699,190.00
2025-06-12 13:22:02.833018,599616828645986699,229.00
2025-06-12 13:22:02.833018,599616828645986699,258.00
2025-06-12 13:22:02.833018,599616828645986699,290.00
2025-06-12 13:22:02.833018,599616828645986699,319.00
2025-06-12 13:22:02.833018,599616828645986699,329.00
2025-06-12 13:22:02.833018,599616828645986699,307.00
2025-06-12 13:22:02.833018,599616828645986699,255.00
2025-06-12 13:22:02.833018,599616828645986699,165.00
2025-06-12 13:22:02.833018,599616828645986699,48.00
2025-06-12 13:22:02.833018,599616828645986699,-75.00
2025-06-12 13:22:02.833018,599616828645986699,-177.00
2025-06-12 13:22:02.833018,599616828645986699,-236.00
2025-06-12 13:22:02.833018,599616828645986699,-280.00
2025-06-12 13:22:02.833018,599616828645986699,-319.00
2025-06-12 13:22:02.833018,599616828645986699,-324.00
2025-06-12 13:22:02.833018,599616828645986699,-287.00
2025-06-12 13:22:02.833018,599616828645986699,-258.00
2025-06-12 13:22:02.833018,599616828645986699,-270.00
2025-06-12 13:22:02.833018,599616828645986699,-272.00
2025-06-12 13:22:02.833018,599616828645986699,-248.00
2025-06-12 13:22:02.833018,599616828645986699,-238.00
2025-06-12 13:22:02.833018,599616828645986699,-238.00
2025-06-12 13:22:02.833018,599616828645986699,-229.00
2025-06-12 13:22:02.833018,599616828645986699,-221.00
2025-06-12 13:22:02.833018,599616828645986699,-212.00
2025-06-12 13:22:02.833018,599616828645986699,-197.00
2025-06-12 13:22:02.833018,599616828645986699,-187.00
2025-06-12 13:22:02.833018,599616828645986699,-190.00
2025-06-12 13:22:02.833018,599616828645986699,-187.00
2025-06-12 13:22:02.833018,599616828645986699,-180.00
2025-06-12 13:22:02.833018,599616828645986699,-170.00
2025-06-12 13:22:02.833018,599616828645986699,-168.00
2025-06-12 13:22:02.833018,599616828645986699,-175.00
2025-06-12 13:22:02.833018,599616828645986699,-182.00
2025-06-12 13:22:02.833018,599616828645986699,-177.00
2025-06-12 13:22:02.833018,599616828645986699,-173.00
2025-06-12 13:22:02.833018,599616828645986699,-175.00
2025-06-12 13:22:02.833018,599616828645986699,-175.00
2025-06-12 13:22:02.833018,599616828645986699,-170.00
2025-06-12 13:22:02.833018,599616828645986699,-173.00
2025-06-12 13:22:02.833018,599616828645986699,-170.00
2025-06-12 13:22:02.833018,599616828645986699,-160.00
2025-06-12 13:22:02.833018,599616828645986699,-165.00
2025-06-12 13:22:02.833018,599616828645986699,-180.00
2025-06-12 13:22:02.833018,599616828645986699,-170.00
2025-06-12 13:22:02.833018,599616828645986699,-158.00
2025-06-12 13:22:02.833018,599616828645986699,-165.00
2025-06-12 13:22:02.833018,599616828645986699,-168.00
2025-06-12 13:22:02.833018,599616828645986699,-168.00
2025-06-12 13:22:02.833018,599616828645986699,-182.00
2025-06-12 13:22:02.833018,599616828645986699,-192.00
2025-06-12 13:22:02.833018,599616828645986699,-185.00
2025-06-12 13:22:02.833018,599616828645986699,-173.00
2025-06-12 13:22:02.833018,599616828645986699,-163.00
2025-06-12 13:22:02.833018,599616828645986699,-153.00
2025-06-12 13:22:03.371187,599616829206653222,-146.00
2025-06-12 13:22:03.371187,599616829206653222,-136.00
2025-06-12 13:22:03.371187,599616829206653222,-148.00
2025-06-12 13:22:03.371187,599616829206653222,-170.00
2025-06-12 13:22:03.371187,599616829206653222,-177.00
2025-06-12 13:22:03.371187,599616829206653222,-177.00
2025-06-12 13:22:03.371187,599616829206653222,-170.00
2025-06-12 13:22:03.371187,599616829206653222,-163.00
2025-06-12 13:22:03.371187,599616829206653222,-163.00
2025-06-12 13:22:03.371187,599616829206653222,-160.00
2025-06-12 13:22:03.371187,599616829206653222,-158.00
2025-06-12 13:22:03.371187,599616829206653222,-194.00
2025-06-12 13:22:03.371187,599616829206653222,-275.00
2025-06-12 13:22:03.371187,599616829206653222,-214.00
2025-06-12 13:22:03.371187,599616829206653222,270.00
2025-06-12 13:22:03.371187,599616829206653222,965.00
2025-06-12 13:22:03.371187,599616829206653222,945.00
2025-06-12 13:22:03.371187,599616829206653222,-85.00
2025-06-12 13:22:03.371187,599616829206653222,-862.00
2025-06-12 13:22:03.371187,599616829206653222,-597.00
2025-06-12 13:22:03.371187,599616829206653222,-214.00
2025-06-12 13:22:03.371187,599616829206653222,-226.00
2025-06-12 13:22:03.371187,599616829206653222,-168.00
2025-06-12 13:22:03.371187,599616829206653222,-34.00
2025-06-12 13:22:03.371187,599616829206653222,-60.00
2025-06-12 13:22:03.371187,599616829206653222,-97.00
2025-06-12 13:22:03.371187,599616829206653222,-51.00
2025-06-12 13:22:03.371187,599616829206653222,-31.00
2025-06-12 13:22:03.371187,599616829206653222,-41.00
2025-06-12 13:22:03.371187,599616829206653222,-21.00
2025-06-12 13:22:03.371187,599616829206653222,7.00
2025-06-12 13:22:03.371187,599616829206653222,9.00
2025-06-12 13:22:03.371187,599616829206653222,9.00
2025-06-12 13:22:03.371187,599616829206653222,31.00
2025-06-12 13:22:03.371187,599616829206653222,56.00
2025-06-12 13:22:03.371187,599616829206653222,73.00
2025-06-12 13:22:03.371187,599616829206653222,95.00
2025-06-12 13:22:03.371187,599616829206653222,124.00
2025-06-12 13:22:03.371187,599616829206653222,153.00
2025-06-12 13:22:03.371187,599616829206653222,187.00
2025-06-12 13:22:03.371187,599616829206653222,231.00
2025-06-12 13:22:03.371187,599616829206653222,272.00
2025-06-12 13:22:03.371187,599616829206653222,309.00
2025-06-12 13:22:03.371187,599616829206653222,333.00
2025-06-12 13:22:03.371187,599616829206653222,341.00
2025-06-12 13:22:03.371187,599616829206653222,326.00
2025-06-12 13:22:03.371187,599616829206653222,280.00
2025-06-12 13:22:03.371187,599616829206653222,185.00
2025-06-12 13:22:03.371187,599616829206653222,56.00
2025-06-12 13:22:03.371187,599616829206653222,-70.00
2025-06-12 13:22:03.371187,599616829206653222,-175.00
2025-06-12 13:22:03.371187,599616829206653222,-246.00
2025-06-12 13:22:03.371187,599616829206653222,-287.00
2025-06-12 13:22:03.371187,599616829206653222,-316.00
2025-06-12 13:22:03.371187,599616829206653222,-329.00
2025-06-12 13:22:03.371187,599616829206653222,-326.00
2025-06-12 13:22:03.371187,599616829206653222,-316.00
2025-06-12 13:22:03.371187,599616829206653222,-309.00
2025-06-12 13:22:03.371187,599616829206653222,-302.00
2025-06-12 13:22:03.371187,599616829206653222,-294.00
2025-06-12 13:22:03.371187,599616829206653222,-275.00
2025-06-12 13:22:03.371187,599616829206653222,-265.00
2025-06-12 13:22:03.371187,599616829206653222,-270.00
2025-06-12 13:22:03.371187,599616829206653222,-263.00
2025-06-12 13:22:03.371187,599616829206653222,-241.00
2025-06-12 13:22:03.371187,599616829206653222,-231.00
2025-06-12 13:22:03.371187,599616829206653222,-229.00
2025-06-12 13:22:03.371187,599616829206653222,-224.00
2025-06-12 13:22:03.371187,599616829206653222,-214.00
2025-06-12 13:22:03.371187,599616829206653222,-202.00
2025-06-12 13:22:03.371187,599616829206653222,-192.00
2025-06-12 13:22:03.371187,599616829206653222,-190.00
2025-06-12 13:22:03.371187,599616829206653222,-187.00
2025-06-12 13:22:03.972408,599616829767319747,-177.00
2025-06-12 13:22:03.972408,599616829767319747,-170.00
2025-06-12 13:22:03.972408,599616829767319747,-173.00
2025-06-12 13:22:03.972408,599616829767319747,-168.00
2025-06-12 13:22:03.972408,599616829767319747,-158.00
2025-06-12 13:22:03.972408,599616829767319747,-160.00
2025-06-12 13:22:03.972408,599616829767319747,-160.00
2025-06-12 13:22:03.972408,599616829767319747,-155.00
2025-06-12 13:22:03.972408,599616829767319747,-155.00
2025-06-12 13:22:03.972408,599616829767319747,-158.00
2025-06-12 13:22:03.972408,599616829767319747,-155.00
2025-06-12 13:22:03.972408,599616829767319747,-151.00
2025-06-12 13:22:03.972408,599616829767319747,-148.00
2025-06-12 13:22:03.972408,599616829767319747,-151.00
2025-06-12 13:22:03.972408,599616829767319747,-151.00
2025-06-12 13:22:03.972408,599616829767319747,-143.00
2025-06-12 13:22:03.972408,599616829767319747,-138.00
2025-06-12 13:22:03.972408,599616829767319747,-131.00
2025-06-12 13:22:03.972408,599616829767319747,-119.00
2025-06-12 13:22:03.972408,599616829767319747,-109.00
2025-06-12 13:22:03.972408,599616829767319747,-102.00
2025-06-12 13:22:03.972408,599616829767319747,-102.00
2025-06-12 13:22:03.972408,599616829767319747,-109.00
2025-06-12 13:22:03.972408,599616829767319747,-114.00
2025-06-12 13:22:03.972408,599616829767319747,-116.00
2025-06-12 13:22:03.972408,599616829767319747,-114.00
2025-06-12 13:22:03.972408,599616829767319747,-114.00
2025-06-12 13:22:03.972408,599616829767319747,-112.00
2025-06-12 13:22:03.972408,599616829767319747,-104.00
2025-06-12 13:22:03.972408,599616829767319747,-99.00
2025-06-12 13:22:03.972408,599616829767319747,-112.00
2025-06-12 13:22:03.972408,599616829767319747,-177.00
2025-06-12 13:22:03.972408,599616829767319747,-238.00
2025-06-12 13:22:03.972408,599616829767319747,-14.00
2025-06-12 13:22:03.972408,599616829767319747,667.00
2025-06-12 13:22:03.972408,599616829767319747,1216.00
2025-06-12 13:22:03.972408,599616829767319747,680.00
2025-06-12 13:22:03.972408,599616829767319747,-485.00
2025-06-12 13:22:03.972408,599616829767319747,-779.00
2025-06-12 13:22:03.972408,599616829767319747,-299.00
2025-06-12 13:22:03.972408,599616829767319747,-124.00
2025-06-12 13:22:03.972408,599616829767319747,-155.00
2025-06-12 13:22:03.972408,599616829767319747,-31.00
2025-06-12 13:22:03.972408,599616829767319747,7.00
2025-06-12 13:22:03.972408,599616829767319747,-56.00
2025-06-12 13:22:03.972408,599616829767319747,-29.00
2025-06-12 13:22:03.972408,599616829767319747,12.00
2025-06-12 13:22:03.972408,599616829767319747,-2.00
2025-06-12 13:22:03.972408,599616829767319747,2.00
2025-06-12 13:22:03.972408,599616829767319747,26.00
2025-06-12 13:22:03.972408,599616829767319747,34.00
2025-06-12 13:22:03.972408,599616829767319747,43.00
2025-06-12 13:22:03.972408,599616829767319747,65.00
2025-06-12 13:22:03.972408,599616829767319747,80.00
2025-06-12 13:22:03.972408,599616829767319747,99.00
2025-06-12 13:22:03.972408,599616829767319747,124.00
2025-06-12 13:22:03.972408,599616829767319747,148.00
2025-06-12 13:22:03.972408,599616829767319747,182.00
2025-06-12 13:22:03.972408,599616829767319747,216.00
2025-06-12 13:22:03.972408,599616829767319747,246.00
2025-06-12 13:22:03.972408,599616829767319747,287.00
2025-06-12 13:22:03.972408,599616829767319747,331.00
2025-06-12 13:22:03.972408,599616829767319747,358.00
2025-06-12 13:22:03.972408,599616829767319747,375.00
2025-06-12 13:22:03.972408,599616829767319747,382.00
2025-06-12 13:22:03.972408,599616829767319747,353.00
2025-06-12 13:22:03.972408,599616829767319747,272.00
2025-06-12 13:22:03.972408,599616829767319747,151.00
2025-06-12 13:22:03.972408,599616829767319747,19.00
2025-06-12 13:22:03.972408,599616829767319747,-95.00
2025-06-12 13:22:03.972408,599616829767319747,-182.00
2025-06-12 13:22:03.972408,599616829767319747,-243.00
2025-06-12 13:22:03.972408,599616829767319747,-280.00
2025-06-12 13:22:04.543737,599616830327986270,-297.00
2025-06-12 13:22:04.543737,599616830327986270,-299.00
2025-06-12 13:22:04.543737,599616830327986270,-292.00
2025-06-12 13:22:04.543737,599616830327986270,-285.00
2025-06-12 13:22:04.543737,599616830327986270,-275.00
2025-06-12 13:22:04.543737,599616830327986270,-268.00
2025-06-12 13:22:04.543737,599616830327986270,-263.00
2025-06-12 13:22:04.543737,599616830327986270,-253.00
2025-06-12 13:22:04.543737,599616830327986270,-241.00
2025-06-12 13:22:04.543737,599616830327986270,-229.00
2025-06-12 13:22:04.543737,599616830327986270,-221.00
2025-06-12 13:22:04.543737,599616830327986270,-209.00
2025-06-12 13:22:04.543737,599616830327986270,-199.00
2025-06-12 13:22:04.543737,599616830327986270,-202.00
2025-06-12 13:22:04.543737,599616830327986270,-199.00
2025-06-12 13:22:04.543737,599616830327986270,-187.00
2025-06-12 13:22:04.543737,599616830327986270,-177.00
2025-06-12 13:22:04.543737,599616830327986270,-177.00
2025-06-12 13:22:04.543737,599616830327986270,-175.00
2025-06-12 13:22:04.543737,599616830327986270,-168.00
2025-06-12 13:22:04.543737,599616830327986270,-163.00
2025-06-12 13:22:04.543737,599616830327986270,-160.00
2025-06-12 13:22:04.543737,599616830327986270,-153.00
2025-06-12 13:22:04.543737,599616830327986270,-155.00
2025-06-12 13:22:04.543737,599616830327986270,-158.00
2025-06-12 13:22:04.543737,599616830327986270,-155.00
2025-06-12 13:22:04.543737,599616830327986270,-153.00
2025-06-12 13:22:04.543737,599616830327986270,-151.00
2025-06-12 13:22:04.543737,599616830327986270,-146.00
2025-06-12 13:22:04.543737,599616830327986270,-143.00
2025-06-12 13:22:04.543737,599616830327986270,-141.00
2025-06-12 13:22:04.543737,599616830327986270,-136.00
2025-06-12 13:22:04.543737,599616830327986270,-141.00
2025-06-12 13:22:04.543737,599616830327986270,-143.00
2025-06-12 13:22:04.543737,599616830327986270,-136.00
2025-06-12 13:22:04.543737,599616830327986270,-131.00
2025-06-12 13:22:04.543737,599616830327986270,-134.00
2025-06-12 13:22:04.543737,599616830327986270,-131.00
2025-06-12 13:22:04.543737,599616830327986270,-126.00
2025-06-12 13:22:04.543737,599616830327986270,-126.00
2025-06-12 13:22:04.543737,599616830327986270,-124.00
2025-06-12 13:22:04.543737,599616830327986270,-116.00
2025-06-12 13:22:04.543737,599616830327986270,-121.00
2025-06-12 13:22:04.543737,599616830327986270,-126.00
2025-06-12 13:22:04.543737,599616830327986270,-119.00
2025-06-12 13:22:04.543737,599616830327986270,-116.00
2025-06-12 13:22:04.543737,599616830327986270,-124.00
2025-06-12 13:22:04.543737,599616830327986270,-126.00
2025-06-12 13:22:04.543737,599616830327986270,-114.00
2025-06-12 13:22:04.543737,599616830327986270,-104.00
2025-06-12 13:22:04.543737,599616830327986270,-92.00
2025-06-12 13:22:04.543737,599616830327986270,-77.00
2025-06-12 13:22:04.543737,599616830327986270,-80.00
2025-06-12 13:22:04.543737,599616830327986270,-95.00
2025-06-12 13:22:04.543737,599616830327986270,-102.00
2025-06-12 13:22:04.543737,599616830327986270,-102.00
2025-06-12 13:22:04.543737,599616830327986270,-99.00
2025-06-12 13:22:04.543737,599616830327986270,-99.00
2025-06-12 13:22:04.543737,599616830327986270,-99.00
2025-06-12 13:22:04.543737,599616830327986270,-92.00
2025-06-12 13:22:04.543737,599616830327986270,-87.00
2025-06-12 13:22:04.543737,599616830327986270,-85.00
2025-06-12 13:22:04.543737,599616830327986270,-124.00
2025-06-12 13:22:04.543737,599616830327986270,-214.00
2025-06-12 13:22:04.543737,599616830327986270,-182.00
2025-06-12 13:22:04.543737,599616830327986270,282.00
2025-06-12 13:22:04.543737,599616830327986270,1035.00
2025-06-12 13:22:04.543737,599616830327986270,1147.00
2025-06-12 13:22:04.543737,599616830327986270,141.00
2025-06-12 13:22:04.543737,599616830327986270,-758.00
2025-06-12 13:22:04.543737,599616830327986270,-553.00
2025-06-12 13:22:04.543737,599616830327986270,-136.00
2025-06-12 13:22:04.543737,599616830327986270,-143.00
2025-06-12 13:22:05.081307,599616830888668053,-114.00
2025-06-12 13:22:05.081307,599616830888668053,4.00
2025-06-12 13:22:05.081307,599616830888668053,-24.00
2025-06-12 13:22:05.081307,599616830888668053,-51.00
2025-06-12 13:22:05.081307,599616830888668053,2.00
2025-06-12 13:22:05.081307,599616830888668053,9.00
2025-06-12 13:22:05.081307,599616830888668053,-2.00
2025-06-12 13:22:05.081307,599616830888668053,19.00
2025-06-12 13:22:05.081307,599616830888668053,36.00
2025-06-12 13:22:05.081307,599616830888668053,36.00
2025-06-12 13:22:05.081307,599616830888668053,48.00
2025-06-12 13:22:05.081307,599616830888668053,68.00
2025-06-12 13:22:05.081307,599616830888668053,77.00
2025-06-12 13:22:05.081307,599616830888668053,99.00
2025-06-12 13:22:05.081307,599616830888668053,129.00
2025-06-12 13:22:05.081307,599616830888668053,158.00
2025-06-12 13:22:05.081307,599616830888668053,190.00
2025-06-12 13:22:05.081307,599616830888668053,224.00
2025-06-12 13:22:05.081307,599616830888668053,263.00
2025-06-12 13:22:05.081307,599616830888668053,304.00
2025-06-12 13:22:05.081307,599616830888668053,341.00
2025-06-12 13:22:05.081307,599616830888668053,365.00
2025-06-12 13:22:05.081307,599616830888668053,382.00
2025-06-12 13:22:05.081307,599616830888668053,382.00
2025-06-12 13:22:05.081307,599616830888668053,348.00
2025-06-12 13:22:05.081307,599616830888668053,265.00
2025-06-12 13:22:05.081307,599616830888668053,148.00
2025-06-12 13:22:05.081307,599616830888668053,17.00
2025-06-12 13:22:05.081307,599616830888668053,-99.00
2025-06-12 13:22:05.081307,599616830888668053,-187.00
2025-06-12 13:22:05.081307,599616830888668053,-243.00
2025-06-12 13:22:05.081307,599616830888668053,-275.00
2025-06-12 13:22:05.081307,599616830888668053,-292.00
2025-06-12 13:22:05.081307,599616830888668053,-294.00
2025-06-12 13:22:05.081307,599616830888668053,-290.00
2025-06-12 13:22:05.081307,599616830888668053,-280.00
2025-06-12 13:22:05.081307,599616830888668053,-270.00
2025-06-12 13:22:05.081307,599616830888668053,-260.00
2025-06-12 13:22:05.081307,599616830888668053,-248.00
2025-06-12 13:22:05.081307,599616830888668053,-243.00
2025-06-12 13:22:05.081307,599616830888668053,-231.00
2025-06-12 13:22:05.081307,599616830888668053,-224.00
2025-06-12 13:22:05.081307,599616830888668053,-216.00
2025-06-12 13:22:05.081307,599616830888668053,-202.00
2025-06-12 13:22:05.081307,599616830888668053,-192.00
2025-06-12 13:22:05.081307,599616830888668053,-192.00
2025-06-12 13:22:05.081307,599616830888668053,-187.00
2025-06-12 13:22:05.081307,599616830888668053,-177.00
2025-06-12 13:22:05.081307,599616830888668053,-175.00
2025-06-12 13:22:05.081307,599616830888668053,-177.00
2025-06-12 13:22:05.081307,599616830888668053,-170.00
2025-06-12 13:22:05.081307,599616830888668053,-165.00
2025-06-12 13:22:05.081307,599616830888668053,-165.00
2025-06-12 13:22:05.081307,599616830888668053,-160.00
2025-06-12 13:22:05.081307,599616830888668053,-153.00
2025-06-12 13:22:05.081307,599616830888668053,-155.00
2025-06-12 13:22:05.081307,599616830888668053,-153.00
2025-06-12 13:22:05.081307,599616830888668053,-148.00
2025-06-12 13:22:05.081307,599616830888668053,-143.00
2025-06-12 13:22:05.081307,599616830888668053,-148.00
2025-06-12 13:22:05.081307,599616830888668053,-146.00
2025-06-12 13:22:05.081307,599616830888668053,-138.00
2025-06-12 13:22:05.081307,599616830888668053,-141.00
2025-06-12 13:22:05.081307,599616830888668053,-141.00
2025-06-12 13:22:05.081307,599616830888668053,-136.00
2025-06-12 13:22:05.081307,599616830888668053,-136.00
2025-06-12 13:22:05.081307,599616830888668053,-134.00
2025-06-12 13:22:05.081307,599616830888668053,-129.00
2025-06-12 13:22:05.081307,599616830888668053,-124.00
2025-06-12 13:22:05.081307,599616830888668053,-124.00
2025-06-12 13:22:05.081307,599616830888668053,-121.00
2025-06-12 13:22:05.081307,599616830888668053,-116.00
2025-06-12 13:22:05.081307,599616830888668053,-116.00
2025-06-12 13:22:05.621556,599616831449329490,-116.00
2025-06-12 13:22:05.621556,599616831449329490,-114.00
2025-06-12 13:22:05.621556,599616831449329490,-114.00
2025-06-12 13:22:05.621556,599616831449329490,-119.00
2025-06-12 13:22:05.621556,599616831449329490,-112.00
2025-06-12 13:22:05.621556,599616831449329490,-102.00
2025-06-12 13:22:05.621556,599616831449329490,-102.00
2025-06-12 13:22:05.621556,599616831449329490,-109.00
2025-06-12 13:22:05.621556,599616831449329490,-104.00
2025-06-12 13:22:05.621556,599616831449329490,-102.00
2025-06-12 13:22:05.621556,599616831449329490,-109.00
2025-06-12 13:22:05.621556,599616831449329490,-109.00
2025-06-12 13:22:05.621556,599616831449329490,-104.00
