Timestamp,Device Timestamp (ns),ECG Value (uV)
2025-06-12 13:40:53.762059,599617959599263196,-43.00
2025-06-12 13:40:53.762059,599617959599263196,24.00
2025-06-12 13:40:53.762059,599617959599263196,90.00
2025-06-12 13:40:53.762059,599617959599263196,73.00
2025-06-12 13:40:53.762059,599617959599263196,82.00
2025-06-12 13:40:53.762059,599617959599263196,104.00
2025-06-12 13:40:53.762059,599617959599263196,121.00
2025-06-12 13:40:53.762059,599617959599263196,158.00
2025-06-12 13:40:53.762059,599617959599263196,151.00
2025-06-12 13:40:53.762059,599617959599263196,141.00
2025-06-12 13:40:53.762059,599617959599263196,197.00
2025-06-12 13:40:53.762059,599617959599263196,251.00
2025-06-12 13:40:53.762059,599617959599263196,272.00
2025-06-12 13:40:53.762059,599617959599263196,311.00
2025-06-12 13:40:53.762059,599617959599263196,372.00
2025-06-12 13:40:53.762059,599617959599263196,419.00
2025-06-12 13:40:53.762059,599617959599263196,433.00
2025-06-12 13:40:53.762059,599617959599263196,443.00
2025-06-12 13:40:53.762059,599617959599263196,443.00
2025-06-12 13:40:53.762059,599617959599263196,397.00
2025-06-12 13:40:53.762059,599617959599263196,297.00
2025-06-12 13:40:53.762059,599617959599263196,163.00
2025-06-12 13:40:53.762059,599617959599263196,19.00
2025-06-12 13:40:53.762059,599617959599263196,-102.00
2025-06-12 13:40:53.762059,599617959599263196,-197.00
2025-06-12 13:40:53.762059,599617959599263196,-265.00
2025-06-12 13:40:53.762059,599617959599263196,-297.00
2025-06-12 13:40:53.762059,599617959599263196,-311.00
2025-06-12 13:40:53.762059,599617959599263196,-309.00
2025-06-12 13:40:53.762059,599617959599263196,-287.00
2025-06-12 13:40:53.762059,599617959599263196,-302.00
2025-06-12 13:40:53.762059,599617959599263196,-329.00
2025-06-12 13:40:53.762059,599617959599263196,-287.00
2025-06-12 13:40:53.762059,599617959599263196,-268.00
2025-06-12 13:40:53.762059,599617959599263196,-292.00
2025-06-12 13:40:53.762059,599617959599263196,-270.00
2025-06-12 13:40:53.762059,599617959599263196,-216.00
2025-06-12 13:40:53.762059,599617959599263196,-216.00
2025-06-12 13:40:53.762059,599617959599263196,-253.00
2025-06-12 13:40:53.762059,599617959599263196,-263.00
2025-06-12 13:40:53.762059,599617959599263196,-246.00
2025-06-12 13:40:53.762059,599617959599263196,-212.00
2025-06-12 13:40:53.762059,599617959599263196,-190.00
2025-06-12 13:40:53.762059,599617959599263196,-197.00
2025-06-12 13:40:53.762059,599617959599263196,-194.00
2025-06-12 13:40:53.762059,599617959599263196,-173.00
2025-06-12 13:40:53.762059,599617959599263196,-155.00
2025-06-12 13:40:53.762059,599617959599263196,-151.00
2025-06-12 13:40:53.762059,599617959599263196,-153.00
2025-06-12 13:40:53.762059,599617959599263196,-163.00
2025-06-12 13:40:53.762059,599617959599263196,-177.00
2025-06-12 13:40:53.762059,599617959599263196,-168.00
2025-06-12 13:40:53.762059,599617959599263196,-146.00
2025-06-12 13:40:53.762059,599617959599263196,-136.00
2025-06-12 13:40:53.762059,599617959599263196,-141.00
2025-06-12 13:40:53.762059,599617959599263196,-134.00
2025-06-12 13:40:53.762059,599617959599263196,-124.00
2025-06-12 13:40:53.762059,599617959599263196,-143.00
2025-06-12 13:40:53.762059,599617959599263196,-163.00
2025-06-12 13:40:53.762059,599617959599263196,-143.00
2025-06-12 13:40:53.762059,599617959599263196,-129.00
2025-06-12 13:40:53.762059,599617959599263196,-136.00
2025-06-12 13:40:53.762059,599617959599263196,-119.00
2025-06-12 13:40:53.762059,599617959599263196,-104.00
2025-06-12 13:40:53.762059,599617959599263196,-102.00
2025-06-12 13:40:53.762059,599617959599263196,-92.00
2025-06-12 13:40:53.762059,599617959599263196,-112.00
2025-06-12 13:40:53.762059,599617959599263196,-136.00
2025-06-12 13:40:53.762059,599617959599263196,-121.00
2025-06-12 13:40:53.762059,599617959599263196,-116.00
2025-06-12 13:40:53.762059,599617959599263196,-138.00
2025-06-12 13:40:53.762059,599617959599263196,-126.00
2025-06-12 13:40:53.762059,599617959599263196,-90.00
2025-06-12 13:40:54.389913,599617960160021275,-77.00
2025-06-12 13:40:54.389913,599617960160021275,-82.00
2025-06-12 13:40:54.389913,599617960160021275,-70.00
2025-06-12 13:40:54.389913,599617960160021275,-56.00
2025-06-12 13:40:54.389913,599617960160021275,-80.00
2025-06-12 13:40:54.389913,599617960160021275,-102.00
2025-06-12 13:40:54.389913,599617960160021275,-82.00
2025-06-12 13:40:54.389913,599617960160021275,-85.00
2025-06-12 13:40:54.389913,599617960160021275,-119.00
2025-06-12 13:40:54.389913,599617960160021275,-107.00
2025-06-12 13:40:54.389913,599617960160021275,-70.00
2025-06-12 13:40:54.389913,599617960160021275,-68.00
2025-06-12 13:40:54.389913,599617960160021275,-70.00
2025-06-12 13:40:54.389913,599617960160021275,-63.00
2025-06-12 13:40:54.389913,599617960160021275,-131.00
2025-06-12 13:40:54.389913,599617960160021275,-216.00
2025-06-12 13:40:54.389913,599617960160021275,97.00
2025-06-12 13:40:54.389913,599617960160021275,911.00
2025-06-12 13:40:54.389913,599617960160021275,1372.00
2025-06-12 13:40:54.389913,599617960160021275,594.00
2025-06-12 13:40:54.389913,599617960160021275,-606.00
2025-06-12 13:40:54.389913,599617960160021275,-721.00
2025-06-12 13:40:54.389913,599617960160021275,-194.00
2025-06-12 13:40:54.389913,599617960160021275,-126.00
2025-06-12 13:40:54.389913,599617960160021275,-175.00
2025-06-12 13:40:54.389913,599617960160021275,12.00
2025-06-12 13:40:54.389913,599617960160021275,68.00
2025-06-12 13:40:54.389913,599617960160021275,0.00
2025-06-12 13:40:54.389913,599617960160021275,41.00
2025-06-12 13:40:54.389913,599617960160021275,53.00
2025-06-12 13:40:54.389913,599617960160021275,0.00
2025-06-12 13:40:54.389913,599617960160021275,36.00
2025-06-12 13:40:54.389913,599617960160021275,112.00
2025-06-12 13:40:54.389913,599617960160021275,102.00
2025-06-12 13:40:54.389913,599617960160021275,73.00
2025-06-12 13:40:54.389913,599617960160021275,97.00
2025-06-12 13:40:54.389913,599617960160021275,153.00
2025-06-12 13:40:54.389913,599617960160021275,173.00
2025-06-12 13:40:54.389913,599617960160021275,136.00
2025-06-12 13:40:54.389913,599617960160021275,165.00
2025-06-12 13:40:54.389913,599617960160021275,253.00
2025-06-12 13:40:54.389913,599617960160021275,265.00
2025-06-12 13:40:54.389913,599617960160021275,243.00
2025-06-12 13:40:54.389913,599617960160021275,309.00
2025-06-12 13:40:54.389913,599617960160021275,382.00
2025-06-12 13:40:54.389913,599617960160021275,404.00
2025-06-12 13:40:54.389913,599617960160021275,431.00
2025-06-12 13:40:54.389913,599617960160021275,465.00
2025-06-12 13:40:54.389913,599617960160021275,458.00
2025-06-12 13:40:54.389913,599617960160021275,411.00
2025-06-12 13:40:54.389913,599617960160021275,336.00
2025-06-12 13:40:54.389913,599617960160021275,212.00
2025-06-12 13:40:54.389913,599617960160021275,63.00
2025-06-12 13:40:54.389913,599617960160021275,-60.00
2025-06-12 13:40:54.389913,599617960160021275,-155.00
2025-06-12 13:40:54.389913,599617960160021275,-236.00
2025-06-12 13:40:54.389913,599617960160021275,-287.00
2025-06-12 13:40:54.389913,599617960160021275,-294.00
2025-06-12 13:40:54.389913,599617960160021275,-275.00
2025-06-12 13:40:54.389913,599617960160021275,-275.00
2025-06-12 13:40:54.389913,599617960160021275,-285.00
2025-06-12 13:40:54.389913,599617960160021275,-277.00
2025-06-12 13:40:54.389913,599617960160021275,-268.00
2025-06-12 13:40:54.389913,599617960160021275,-268.00
2025-06-12 13:40:54.389913,599617960160021275,-258.00
2025-06-12 13:40:54.389913,599617960160021275,-251.00
2025-06-12 13:40:54.389913,599617960160021275,-253.00
2025-06-12 13:40:54.389913,599617960160021275,-238.00
2025-06-12 13:40:54.389913,599617960160021275,-199.00
2025-06-12 13:40:54.389913,599617960160021275,-187.00
2025-06-12 13:40:54.389913,599617960160021275,-209.00
2025-06-12 13:40:54.389913,599617960160021275,-226.00
2025-06-12 13:40:54.389913,599617960160021275,-192.00
2025-06-12 13:40:54.932929,599617960720728488,-146.00
2025-06-12 13:40:54.932929,599617960720728488,-160.00
2025-06-12 13:40:54.932929,599617960720728488,-182.00
2025-06-12 13:40:54.932929,599617960720728488,-134.00
2025-06-12 13:40:54.932929,599617960720728488,-97.00
2025-06-12 13:40:54.932929,599617960720728488,-160.00
2025-06-12 13:40:54.932929,599617960720728488,-224.00
2025-06-12 13:40:54.932929,599617960720728488,-175.00
2025-06-12 13:40:54.932929,599617960720728488,-129.00
2025-06-12 13:40:54.932929,599617960720728488,-138.00
2025-06-12 13:40:54.932929,599617960720728488,-129.00
2025-06-12 13:40:54.932929,599617960720728488,-114.00
2025-06-12 13:40:54.932929,599617960720728488,-121.00
2025-06-12 13:40:54.932929,599617960720728488,-124.00
2025-06-12 13:40:54.932929,599617960720728488,-124.00
2025-06-12 13:40:54.932929,599617960720728488,-112.00
2025-06-12 13:40:54.932929,599617960720728488,-102.00
2025-06-12 13:40:54.932929,599617960720728488,-102.00
2025-06-12 13:40:54.932929,599617960720728488,-90.00
2025-06-12 13:40:54.932929,599617960720728488,-109.00
2025-06-12 13:40:54.932929,599617960720728488,-134.00
2025-06-12 13:40:54.932929,599617960720728488,-114.00
2025-06-12 13:40:54.932929,599617960720728488,-97.00
2025-06-12 13:40:54.932929,599617960720728488,-104.00
2025-06-12 13:40:54.932929,599617960720728488,-109.00
2025-06-12 13:40:54.932929,599617960720728488,-99.00
2025-06-12 13:40:54.932929,599617960720728488,-77.00
2025-06-12 13:40:54.932929,599617960720728488,-63.00
2025-06-12 13:40:54.932929,599617960720728488,-102.00
2025-06-12 13:40:54.932929,599617960720728488,-131.00
2025-06-12 13:40:54.932929,599617960720728488,-63.00
2025-06-12 13:40:54.932929,599617960720728488,-19.00
2025-06-12 13:40:54.932929,599617960720728488,-90.00
2025-06-12 13:40:54.932929,599617960720728488,-112.00
2025-06-12 13:40:54.932929,599617960720728488,-56.00
2025-06-12 13:40:54.932929,599617960720728488,-70.00
2025-06-12 13:40:54.932929,599617960720728488,-95.00
2025-06-12 13:40:54.932929,599617960720728488,-51.00
2025-06-12 13:40:54.932929,599617960720728488,-58.00
2025-06-12 13:40:54.932929,599617960720728488,-129.00
2025-06-12 13:40:54.932929,599617960720728488,-116.00
2025-06-12 13:40:54.932929,599617960720728488,-48.00
2025-06-12 13:40:54.932929,599617960720728488,-73.00
2025-06-12 13:40:54.932929,599617960720728488,-187.00
2025-06-12 13:40:54.932929,599617960720728488,-187.00
2025-06-12 13:40:54.932929,599617960720728488,219.00
2025-06-12 13:40:54.932929,599617960720728488,1001.00
2025-06-12 13:40:54.932929,599617960720728488,1345.00
2025-06-12 13:40:54.932929,599617960720728488,480.00
2025-06-12 13:40:54.932929,599617960720728488,-660.00
2025-06-12 13:40:54.932929,599617960720728488,-677.00
2025-06-12 13:40:54.932929,599617960720728488,-170.00
2025-06-12 13:40:54.932929,599617960720728488,-109.00
2025-06-12 13:40:54.932929,599617960720728488,-119.00
2025-06-12 13:40:54.932929,599617960720728488,29.00
2025-06-12 13:40:54.932929,599617960720728488,38.00
2025-06-12 13:40:54.932929,599617960720728488,-29.00
2025-06-12 13:40:54.932929,599617960720728488,-9.00
2025-06-12 13:40:54.932929,599617960720728488,43.00
2025-06-12 13:40:54.932929,599617960720728488,58.00
2025-06-12 13:40:54.932929,599617960720728488,38.00
2025-06-12 13:40:54.932929,599617960720728488,46.00
2025-06-12 13:40:54.932929,599617960720728488,92.00
2025-06-12 13:40:54.932929,599617960720728488,95.00
2025-06-12 13:40:54.932929,599617960720728488,73.00
2025-06-12 13:40:54.932929,599617960720728488,107.00
2025-06-12 13:40:54.932929,599617960720728488,151.00
2025-06-12 13:40:54.932929,599617960720728488,165.00
2025-06-12 13:40:54.932929,599617960720728488,185.00
2025-06-12 13:40:54.932929,599617960720728488,219.00
2025-06-12 13:40:54.932929,599617960720728488,260.00
2025-06-12 13:40:54.932929,599617960720728488,294.00
2025-06-12 13:40:54.932929,599617960720728488,321.00
2025-06-12 13:40:55.479767,599617961281476393,360.00
2025-06-12 13:40:55.479767,599617961281476393,409.00
2025-06-12 13:40:55.479767,599617961281476393,448.00
2025-06-12 13:40:55.479767,599617961281476393,470.00
2025-06-12 13:40:55.479767,599617961281476393,470.00
2025-06-12 13:40:55.479767,599617961281476393,431.00
2025-06-12 13:40:55.479767,599617961281476393,324.00
2025-06-12 13:40:55.479767,599617961281476393,160.00
2025-06-12 13:40:55.479767,599617961281476393,31.00
2025-06-12 13:40:55.479767,599617961281476393,-60.00
2025-06-12 13:40:55.479767,599617961281476393,-165.00
2025-06-12 13:40:55.479767,599617961281476393,-253.00
2025-06-12 13:40:55.479767,599617961281476393,-287.00
2025-06-12 13:40:55.479767,599617961281476393,-282.00
2025-06-12 13:40:55.479767,599617961281476393,-282.00
2025-06-12 13:40:55.479767,599617961281476393,-287.00
2025-06-12 13:40:55.479767,599617961281476393,-277.00
2025-06-12 13:40:55.479767,599617961281476393,-265.00
2025-06-12 13:40:55.479767,599617961281476393,-263.00
2025-06-12 13:40:55.479767,599617961281476393,-263.00
2025-06-12 13:40:55.479767,599617961281476393,-253.00
2025-06-12 13:40:55.479767,599617961281476393,-236.00
2025-06-12 13:40:55.479767,599617961281476393,-224.00
2025-06-12 13:40:55.479767,599617961281476393,-216.00
2025-06-12 13:40:55.479767,599617961281476393,-207.00
2025-06-12 13:40:55.479767,599617961281476393,-194.00
2025-06-12 13:40:55.479767,599617961281476393,-192.00
2025-06-12 13:40:55.479767,599617961281476393,-192.00
2025-06-12 13:40:55.479767,599617961281476393,-180.00
2025-06-12 13:40:55.479767,599617961281476393,-170.00
2025-06-12 13:40:55.479767,599617961281476393,-165.00
2025-06-12 13:40:55.479767,599617961281476393,-158.00
2025-06-12 13:40:55.479767,599617961281476393,-155.00
2025-06-12 13:40:55.479767,599617961281476393,-155.00
2025-06-12 13:40:55.479767,599617961281476393,-146.00
2025-06-12 13:40:55.479767,599617961281476393,-141.00
2025-06-12 13:40:55.479767,599617961281476393,-141.00
2025-06-12 13:40:55.479767,599617961281476393,-131.00
2025-06-12 13:40:55.479767,599617961281476393,-124.00
2025-06-12 13:40:55.479767,599617961281476393,-126.00
2025-06-12 13:40:55.479767,599617961281476393,-126.00
2025-06-12 13:40:55.479767,599617961281476393,-119.00
2025-06-12 13:40:55.479767,599617961281476393,-114.00
2025-06-12 13:40:55.479767,599617961281476393,-119.00
2025-06-12 13:40:55.479767,599617961281476393,-121.00
2025-06-12 13:40:55.479767,599617961281476393,-119.00
2025-06-12 13:40:55.479767,599617961281476393,-112.00
2025-06-12 13:40:55.479767,599617961281476393,-107.00
2025-06-12 13:40:55.479767,599617961281476393,-104.00
2025-06-12 13:40:55.479767,599617961281476393,-97.00
2025-06-12 13:40:55.479767,599617961281476393,-92.00
2025-06-12 13:40:55.479767,599617961281476393,-95.00
2025-06-12 13:40:55.479767,599617961281476393,-95.00
2025-06-12 13:40:55.479767,599617961281476393,-95.00
2025-06-12 13:40:55.479767,599617961281476393,-97.00
2025-06-12 13:40:55.479767,599617961281476393,-92.00
2025-06-12 13:40:55.479767,599617961281476393,-85.00
2025-06-12 13:40:55.479767,599617961281476393,-77.00
2025-06-12 13:40:55.479767,599617961281476393,-77.00
2025-06-12 13:40:55.479767,599617961281476393,-82.00
2025-06-12 13:40:55.479767,599617961281476393,-80.00
2025-06-12 13:40:55.479767,599617961281476393,-82.00
2025-06-12 13:40:55.479767,599617961281476393,-82.00
2025-06-12 13:40:55.479767,599617961281476393,-80.00
2025-06-12 13:40:55.479767,599617961281476393,-85.00
2025-06-12 13:40:55.479767,599617961281476393,-95.00
2025-06-12 13:40:55.479767,599617961281476393,-90.00
2025-06-12 13:40:55.479767,599617961281476393,-65.00
2025-06-12 13:40:55.479767,599617961281476393,-48.00
2025-06-12 13:40:55.479767,599617961281476393,-48.00
2025-06-12 13:40:55.479767,599617961281476393,-48.00
2025-06-12 13:40:55.479767,599617961281476393,-58.00
2025-06-12 13:40:55.479767,599617961281476393,-75.00
2025-06-12 13:40:56.012630,599617961842203952,-77.00
2025-06-12 13:40:56.012630,599617961842203952,-70.00
2025-06-12 13:40:56.012630,599617961842203952,-70.00
2025-06-12 13:40:56.012630,599617961842203952,-65.00
2025-06-12 13:40:56.012630,599617961842203952,-38.00
2025-06-12 13:40:56.012630,599617961842203952,-31.00
2025-06-12 13:40:56.012630,599617961842203952,-53.00
2025-06-12 13:40:56.012630,599617961842203952,-63.00
2025-06-12 13:40:56.012630,599617961842203952,-109.00
2025-06-12 13:40:56.012630,599617961842203952,-207.00
2025-06-12 13:40:56.012630,599617961842203952,-70.00
2025-06-12 13:40:56.012630,599617961842203952,580.00
2025-06-12 13:40:56.012630,599617961842203952,1311.00
2025-06-12 13:40:56.012630,599617961842203952,1082.00
2025-06-12 13:40:56.012630,599617961842203952,-112.00
2025-06-12 13:40:56.012630,599617961842203952,-762.00
2025-06-12 13:40:56.012630,599617961842203952,-370.00
2025-06-12 13:40:56.012630,599617961842203952,-65.00
2025-06-12 13:40:56.012630,599617961842203952,-134.00
2025-06-12 13:40:56.012630,599617961842203952,-51.00
2025-06-12 13:40:56.012630,599617961842203952,58.00
2025-06-12 13:40:56.012630,599617961842203952,4.00
2025-06-12 13:40:56.012630,599617961842203952,-7.00
2025-06-12 13:40:56.012630,599617961842203952,41.00
2025-06-12 13:40:56.012630,599617961842203952,41.00
2025-06-12 13:40:56.012630,599617961842203952,34.00
2025-06-12 13:40:56.012630,599617961842203952,51.00
2025-06-12 13:40:56.012630,599617961842203952,63.00
2025-06-12 13:40:56.012630,599617961842203952,82.00
2025-06-12 13:40:56.012630,599617961842203952,102.00
2025-06-12 13:40:56.012630,599617961842203952,104.00
2025-06-12 13:40:56.012630,599617961842203952,121.00
2025-06-12 13:40:56.012630,599617961842203952,158.00
2025-06-12 13:40:56.012630,599617961842203952,182.00
2025-06-12 13:40:56.012630,599617961842203952,207.00
2025-06-12 13:40:56.012630,599617961842203952,246.00
2025-06-12 13:40:56.012630,599617961842203952,277.00
2025-06-12 13:40:56.012630,599617961842203952,311.00
2025-06-12 13:40:56.012630,599617961842203952,355.00
2025-06-12 13:40:56.012630,599617961842203952,399.00
2025-06-12 13:40:56.012630,599617961842203952,431.00
2025-06-12 13:40:56.012630,599617961842203952,453.00
2025-06-12 13:40:56.012630,599617961842203952,470.00
2025-06-12 13:40:56.012630,599617961842203952,460.00
2025-06-12 13:40:56.012630,599617961842203952,392.00
2025-06-12 13:40:56.012630,599617961842203952,277.00
2025-06-12 13:40:56.012630,599617961842203952,138.00
2025-06-12 13:40:56.012630,599617961842203952,2.00
2025-06-12 13:40:56.012630,599617961842203952,-112.00
2025-06-12 13:40:56.012630,599617961842203952,-192.00
2025-06-12 13:40:56.012630,599617961842203952,-246.00
2025-06-12 13:40:56.012630,599617961842203952,-287.00
2025-06-12 13:40:56.012630,599617961842203952,-304.00
2025-06-12 13:40:56.012630,599617961842203952,-294.00
2025-06-12 13:40:56.012630,599617961842203952,-285.00
2025-06-12 13:40:56.012630,599617961842203952,-282.00
2025-06-12 13:40:56.012630,599617961842203952,-277.00
2025-06-12 13:40:56.012630,599617961842203952,-265.00
2025-06-12 13:40:56.012630,599617961842203952,-255.00
2025-06-12 13:40:56.012630,599617961842203952,-251.00
2025-06-12 13:40:56.012630,599617961842203952,-229.00
2025-06-12 13:40:56.012630,599617961842203952,-199.00
2025-06-12 13:40:56.012630,599617961842203952,-197.00
2025-06-12 13:40:56.012630,599617961842203952,-209.00
2025-06-12 13:40:56.012630,599617961842203952,-212.00
2025-06-12 13:40:56.012630,599617961842203952,-194.00
2025-06-12 13:40:56.012630,599617961842203952,-165.00
2025-06-12 13:40:56.012630,599617961842203952,-153.00
2025-06-12 13:40:56.012630,599617961842203952,-168.00
2025-06-12 13:40:56.012630,599617961842203952,-170.00
2025-06-12 13:40:56.012630,599617961842203952,-155.00
2025-06-12 13:40:56.012630,599617961842203952,-155.00
2025-06-12 13:40:56.012630,599617961842203952,-160.00
2025-06-12 13:40:56.582714,599617962402956941,-146.00
2025-06-12 13:40:56.582714,599617962402956941,-119.00
2025-06-12 13:40:56.582714,599617962402956941,-112.00
2025-06-12 13:40:56.582714,599617962402956941,-129.00
2025-06-12 13:40:56.582714,599617962402956941,-138.00
2025-06-12 13:40:56.582714,599617962402956941,-134.00
2025-06-12 13:40:56.582714,599617962402956941,-121.00
2025-06-12 13:40:56.582714,599617962402956941,-121.00
2025-06-12 13:40:56.582714,599617962402956941,-124.00
2025-06-12 13:40:56.582714,599617962402956941,-107.00
2025-06-12 13:40:56.582714,599617962402956941,-99.00
2025-06-12 13:40:56.582714,599617962402956941,-119.00
2025-06-12 13:40:56.582714,599617962402956941,-119.00
2025-06-12 13:40:56.582714,599617962402956941,-97.00
2025-06-12 13:40:56.582714,599617962402956941,-92.00
2025-06-12 13:40:56.582714,599617962402956941,-102.00
2025-06-12 13:40:56.582714,599617962402956941,-102.00
2025-06-12 13:40:56.582714,599617962402956941,-92.00
2025-06-12 13:40:56.582714,599617962402956941,-87.00
2025-06-12 13:40:56.582714,599617962402956941,-90.00
2025-06-12 13:40:56.582714,599617962402956941,-95.00
2025-06-12 13:40:56.582714,599617962402956941,-92.00
2025-06-12 13:40:56.582714,599617962402956941,-90.00
2025-06-12 13:40:56.582714,599617962402956941,-87.00
2025-06-12 13:40:56.582714,599617962402956941,-80.00
2025-06-12 13:40:56.582714,599617962402956941,-68.00
2025-06-12 13:40:56.582714,599617962402956941,-68.00
2025-06-12 13:40:56.582714,599617962402956941,-80.00
2025-06-12 13:40:56.582714,599617962402956941,-85.00
2025-06-12 13:40:56.582714,599617962402956941,-70.00
2025-06-12 13:40:56.582714,599617962402956941,-63.00
2025-06-12 13:40:56.582714,599617962402956941,-73.00
2025-06-12 13:40:56.582714,599617962402956941,-70.00
2025-06-12 13:40:56.582714,599617962402956941,-60.00
2025-06-12 13:40:56.582714,599617962402956941,-77.00
2025-06-12 13:40:56.582714,599617962402956941,-87.00
2025-06-12 13:40:56.582714,599617962402956941,-75.00
2025-06-12 13:40:56.582714,599617962402956941,-58.00
2025-06-12 13:40:56.582714,599617962402956941,-34.00
2025-06-12 13:40:56.582714,599617962402956941,-21.00
2025-06-12 13:40:56.582714,599617962402956941,-34.00
2025-06-12 13:40:56.582714,599617962402956941,-48.00
2025-06-12 13:40:56.582714,599617962402956941,-58.00
2025-06-12 13:40:56.582714,599617962402956941,-68.00
2025-06-12 13:40:56.582714,599617962402956941,-73.00
2025-06-12 13:40:56.582714,599617962402956941,-70.00
2025-06-12 13:40:56.582714,599617962402956941,-48.00
2025-06-12 13:40:56.582714,599617962402956941,-31.00
2025-06-12 13:40:56.582714,599617962402956941,-43.00
2025-06-12 13:40:56.582714,599617962402956941,-58.00
2025-06-12 13:40:56.582714,599617962402956941,-87.00
2025-06-12 13:40:56.582714,599617962402956941,-180.00
2025-06-12 13:40:56.582714,599617962402956941,-126.00
2025-06-12 13:40:56.582714,599617962402956941,428.00
2025-06-12 13:40:56.582714,599617962402956941,1230.00
2025-06-12 13:40:56.582714,599617962402956941,1252.00
2025-06-12 13:40:56.582714,599617962402956941,141.00
2025-06-12 13:40:56.582714,599617962402956941,-748.00
2025-06-12 13:40:56.582714,599617962402956941,-492.00
2025-06-12 13:40:56.582714,599617962402956941,-80.00
2025-06-12 13:40:56.582714,599617962402956941,-112.00
2025-06-12 13:40:56.582714,599617962402956941,-85.00
2025-06-12 13:40:56.582714,599617962402956941,43.00
2025-06-12 13:40:56.582714,599617962402956941,21.00
2025-06-12 13:40:56.582714,599617962402956941,-7.00
2025-06-12 13:40:56.582714,599617962402956941,36.00
2025-06-12 13:40:56.582714,599617962402956941,46.00
2025-06-12 13:40:56.582714,599617962402956941,41.00
2025-06-12 13:40:56.582714,599617962402956941,58.00
2025-06-12 13:40:56.582714,599617962402956941,73.00
2025-06-12 13:40:56.582714,599617962402956941,92.00
2025-06-12 13:40:56.582714,599617962402956941,116.00
2025-06-12 13:40:56.582714,599617962402956941,121.00
2025-06-12 13:40:57.153644,599617962963689586,136.00
2025-06-12 13:40:57.153644,599617962963689586,160.00
2025-06-12 13:40:57.153644,599617962963689586,168.00
2025-06-12 13:40:57.153644,599617962963689586,194.00
2025-06-12 13:40:57.153644,599617962963689586,236.00
2025-06-12 13:40:57.153644,599617962963689586,272.00
2025-06-12 13:40:57.153644,599617962963689586,307.00
2025-06-12 13:40:57.153644,599617962963689586,348.00
2025-06-12 13:40:57.153644,599617962963689586,402.00
2025-06-12 13:40:57.153644,599617962963689586,443.00
2025-06-12 13:40:57.153644,599617962963689586,460.00
2025-06-12 13:40:57.153644,599617962963689586,467.00
2025-06-12 13:40:57.153644,599617962963689586,460.00
2025-06-12 13:40:57.153644,599617962963689586,416.00
2025-06-12 13:40:57.153644,599617962963689586,316.00
2025-06-12 13:40:57.153644,599617962963689586,173.00
2025-06-12 13:40:57.153644,599617962963689586,34.00
2025-06-12 13:40:57.153644,599617962963689586,-73.00
2025-06-12 13:40:57.153644,599617962963689586,-158.00
2025-06-12 13:40:57.153644,599617962963689586,-229.00
2025-06-12 13:40:57.153644,599617962963689586,-270.00
2025-06-12 13:40:57.153644,599617962963689586,-287.00
2025-06-12 13:40:57.153644,599617962963689586,-287.00
2025-06-12 13:40:57.153644,599617962963689586,-285.00
2025-06-12 13:40:57.153644,599617962963689586,-285.00
2025-06-12 13:40:57.153644,599617962963689586,-275.00
2025-06-12 13:40:57.153644,599617962963689586,-251.00
2025-06-12 13:40:57.153644,599617962963689586,-246.00
2025-06-12 13:40:57.153644,599617962963689586,-255.00
2025-06-12 13:40:57.153644,599617962963689586,-233.00
2025-06-12 13:40:57.153644,599617962963689586,-197.00
2025-06-12 13:40:57.153644,599617962963689586,-192.00
2025-06-12 13:40:57.153644,599617962963689586,-207.00
2025-06-12 13:40:57.153644,599617962963689586,-202.00
2025-06-12 13:40:57.153644,599617962963689586,-182.00
2025-06-12 13:40:57.153644,599617962963689586,-170.00
2025-06-12 13:40:57.153644,599617962963689586,-168.00
2025-06-12 13:40:57.153644,599617962963689586,-168.00
2025-06-12 13:40:57.153644,599617962963689586,-158.00
2025-06-12 13:40:57.153644,599617962963689586,-151.00
2025-06-12 13:40:57.153644,599617962963689586,-153.00
2025-06-12 13:40:57.153644,599617962963689586,-146.00
2025-06-12 13:40:57.153644,599617962963689586,-136.00
2025-06-12 13:40:57.153644,599617962963689586,-134.00
2025-06-12 13:40:57.153644,599617962963689586,-129.00
2025-06-12 13:40:57.153644,599617962963689586,-126.00
2025-06-12 13:40:57.153644,599617962963689586,-134.00
2025-06-12 13:40:57.153644,599617962963689586,-134.00
2025-06-12 13:40:57.153644,599617962963689586,-124.00
2025-06-12 13:40:57.153644,599617962963689586,-119.00
2025-06-12 13:40:57.153644,599617962963689586,-112.00
2025-06-12 13:40:57.153644,599617962963689586,-97.00
2025-06-12 13:40:57.153644,599617962963689586,-99.00
2025-06-12 13:40:57.153644,599617962963689586,-114.00
2025-06-12 13:40:57.153644,599617962963689586,-114.00
2025-06-12 13:40:57.153644,599617962963689586,-104.00
2025-06-12 13:40:57.153644,599617962963689586,-102.00
2025-06-12 13:40:57.153644,599617962963689586,-104.00
2025-06-12 13:40:57.153644,599617962963689586,-109.00
2025-06-12 13:40:57.153644,599617962963689586,-102.00
2025-06-12 13:40:57.153644,599617962963689586,-85.00
2025-06-12 13:40:57.153644,599617962963689586,-80.00
2025-06-12 13:40:57.153644,599617962963689586,-85.00
2025-06-12 13:40:57.153644,599617962963689586,-92.00
2025-06-12 13:40:57.153644,599617962963689586,-99.00
2025-06-12 13:40:57.153644,599617962963689586,-97.00
2025-06-12 13:40:57.153644,599617962963689586,-82.00
2025-06-12 13:40:57.153644,599617962963689586,-80.00
2025-06-12 13:40:57.153644,599617962963689586,-87.00
2025-06-12 13:40:57.153644,599617962963689586,-75.00
2025-06-12 13:40:57.153644,599617962963689586,-56.00
2025-06-12 13:40:57.153644,599617962963689586,-60.00
2025-06-12 13:40:57.153644,599617962963689586,-82.00
2025-06-12 13:40:57.721192,599617963524417149,-80.00
2025-06-12 13:40:57.721192,599617963524417149,-73.00
2025-06-12 13:40:57.721192,599617963524417149,-82.00
2025-06-12 13:40:57.721192,599617963524417149,-87.00
2025-06-12 13:40:57.721192,599617963524417149,-82.00
2025-06-12 13:40:57.721192,599617963524417149,-73.00
2025-06-12 13:40:57.721192,599617963524417149,-56.00
2025-06-12 13:40:57.721192,599617963524417149,-34.00
2025-06-12 13:40:57.721192,599617963524417149,-34.00
2025-06-12 13:40:57.721192,599617963524417149,-53.00
2025-06-12 13:40:57.721192,599617963524417149,-63.00
2025-06-12 13:40:57.721192,599617963524417149,-53.00
2025-06-12 13:40:57.721192,599617963524417149,-51.00
2025-06-12 13:40:57.721192,599617963524417149,-48.00
2025-06-12 13:40:57.721192,599617963524417149,-46.00
2025-06-12 13:40:57.721192,599617963524417149,-48.00
2025-06-12 13:40:57.721192,599617963524417149,-53.00
2025-06-12 13:40:57.721192,599617963524417149,-60.00
2025-06-12 13:40:57.721192,599617963524417149,-99.00
2025-06-12 13:40:57.721192,599617963524417149,-173.00
2025-06-12 13:40:57.721192,599617963524417149,-75.00
2025-06-12 13:40:57.721192,599617963524417149,502.00
2025-06-12 13:40:57.721192,599617963524417149,1286.00
2025-06-12 13:40:57.721192,599617963524417149,1230.00
2025-06-12 13:40:57.721192,599617963524417149,53.00
2025-06-12 13:40:57.721192,599617963524417149,-777.00
2025-06-12 13:40:57.721192,599617963524417149,-455.00
2025-06-12 13:40:57.721192,599617963524417149,-73.00
2025-06-12 13:40:57.721192,599617963524417149,-126.00
2025-06-12 13:40:57.721192,599617963524417149,-70.00
2025-06-12 13:40:57.721192,599617963524417149,53.00
2025-06-12 13:40:57.721192,599617963524417149,9.00
2025-06-12 13:40:57.721192,599617963524417149,-9.00
2025-06-12 13:40:57.721192,599617963524417149,43.00
2025-06-12 13:40:57.721192,599617963524417149,26.00
2025-06-12 13:40:57.721192,599617963524417149,0.00
2025-06-12 13:40:57.721192,599617963524417149,53.00
2025-06-12 13:40:57.721192,599617963524417149,95.00
2025-06-12 13:40:57.721192,599617963524417149,63.00
2025-06-12 13:40:57.721192,599617963524417149,82.00
2025-06-12 13:40:57.721192,599617963524417149,158.00
2025-06-12 13:40:57.721192,599617963524417149,158.00
2025-06-12 13:40:57.721192,599617963524417149,153.00
2025-06-12 13:40:57.721192,599617963524417149,204.00
2025-06-12 13:40:57.721192,599617963524417149,226.00
2025-06-12 13:40:57.721192,599617963524417149,219.00
2025-06-12 13:40:57.721192,599617963524417149,236.00
2025-06-12 13:40:57.721192,599617963524417149,290.00
2025-06-12 13:40:57.721192,599617963524417149,380.00
2025-06-12 13:40:57.721192,599617963524417149,450.00
2025-06-12 13:40:57.721192,599617963524417149,463.00
2025-06-12 13:40:57.721192,599617963524417149,470.00
2025-06-12 13:40:57.721192,599617963524417149,489.00
2025-06-12 13:40:57.721192,599617963524417149,472.00
2025-06-12 13:40:57.721192,599617963524417149,394.00
2025-06-12 13:40:57.721192,599617963524417149,277.00
2025-06-12 13:40:57.721192,599617963524417149,136.00
2025-06-12 13:40:57.721192,599617963524417149,-2.00
2025-06-12 13:40:57.721192,599617963524417149,-95.00
2025-06-12 13:40:57.721192,599617963524417149,-153.00
2025-06-12 13:40:57.721192,599617963524417149,-219.00
2025-06-12 13:40:57.721192,599617963524417149,-272.00
2025-06-12 13:40:57.721192,599617963524417149,-294.00
2025-06-12 13:40:57.721192,599617963524417149,-304.00
2025-06-12 13:40:57.721192,599617963524417149,-309.00
2025-06-12 13:40:57.721192,599617963524417149,-287.00
2025-06-12 13:40:57.721192,599617963524417149,-258.00
2025-06-12 13:40:57.721192,599617963524417149,-255.00
2025-06-12 13:40:57.721192,599617963524417149,-263.00
2025-06-12 13:40:57.721192,599617963524417149,-248.00
2025-06-12 13:40:57.721192,599617963524417149,-243.00
2025-06-12 13:40:57.721192,599617963524417149,-258.00
2025-06-12 13:40:57.721192,599617963524417149,-243.00
2025-06-12 13:40:58.291466,599617964085144708,-192.00
2025-06-12 13:40:58.291466,599617964085144708,-173.00
2025-06-12 13:40:58.291466,599617964085144708,-187.00
2025-06-12 13:40:58.291466,599617964085144708,-185.00
2025-06-12 13:40:58.291466,599617964085144708,-173.00
2025-06-12 13:40:58.291466,599617964085144708,-173.00
2025-06-12 13:40:58.291466,599617964085144708,-177.00
2025-06-12 13:40:58.291466,599617964085144708,-182.00
2025-06-12 13:40:58.291466,599617964085144708,-168.00
2025-06-12 13:40:58.291466,599617964085144708,-131.00
2025-06-12 13:40:58.291466,599617964085144708,-116.00
2025-06-12 13:40:58.291466,599617964085144708,-141.00
2025-06-12 13:40:58.291466,599617964085144708,-146.00
2025-06-12 13:40:58.291466,599617964085144708,-121.00
2025-06-12 13:40:58.291466,599617964085144708,-124.00
2025-06-12 13:40:58.291466,599617964085144708,-151.00
2025-06-12 13:40:58.291466,599617964085144708,-151.00
2025-06-12 13:40:58.291466,599617964085144708,-114.00
2025-06-12 13:40:58.291466,599617964085144708,-99.00
2025-06-12 13:40:58.291466,599617964085144708,-114.00
2025-06-12 13:40:58.291466,599617964085144708,-129.00
2025-06-12 13:40:58.291466,599617964085144708,-126.00
2025-06-12 13:40:58.291466,599617964085144708,-121.00
2025-06-12 13:40:58.291466,599617964085144708,-119.00
2025-06-12 13:40:58.291466,599617964085144708,-99.00
2025-06-12 13:40:58.291466,599617964085144708,-85.00
2025-06-12 13:40:58.291466,599617964085144708,-102.00
2025-06-12 13:40:58.291466,599617964085144708,-116.00
2025-06-12 13:40:58.291466,599617964085144708,-102.00
2025-06-12 13:40:58.291466,599617964085144708,-99.00
2025-06-12 13:40:58.291466,599617964085144708,-116.00
2025-06-12 13:40:58.291466,599617964085144708,-114.00
2025-06-12 13:40:58.291466,599617964085144708,-95.00
2025-06-12 13:40:58.291466,599617964085144708,-80.00
2025-06-12 13:40:58.291466,599617964085144708,-80.00
2025-06-12 13:40:58.291466,599617964085144708,-80.00
2025-06-12 13:40:58.291466,599617964085144708,-80.00
2025-06-12 13:40:58.291466,599617964085144708,-82.00
2025-06-12 13:40:58.291466,599617964085144708,-82.00
2025-06-12 13:40:58.291466,599617964085144708,-85.00
2025-06-12 13:40:58.291466,599617964085144708,-97.00
2025-06-12 13:40:58.291466,599617964085144708,-95.00
2025-06-12 13:40:58.291466,599617964085144708,-73.00
2025-06-12 13:40:58.291466,599617964085144708,-80.00
2025-06-12 13:40:58.291466,599617964085144708,-107.00
2025-06-12 13:40:58.291466,599617964085144708,-95.00
2025-06-12 13:40:58.291466,599617964085144708,-58.00
2025-06-12 13:40:58.291466,599617964085144708,-53.00
2025-06-12 13:40:58.291466,599617964085144708,-63.00
2025-06-12 13:40:58.291466,599617964085144708,-58.00
2025-06-12 13:40:58.291466,599617964085144708,-41.00
2025-06-12 13:40:58.291466,599617964085144708,-38.00
2025-06-12 13:40:58.291466,599617964085144708,-63.00
2025-06-12 13:40:58.291466,599617964085144708,-82.00
2025-06-12 13:40:58.291466,599617964085144708,-80.00
2025-06-12 13:40:58.291466,599617964085144708,-82.00
2025-06-12 13:40:58.291466,599617964085144708,-77.00
2025-06-12 13:40:58.291466,599617964085144708,-51.00
2025-06-12 13:40:58.291466,599617964085144708,-48.00
2025-06-12 13:40:58.291466,599617964085144708,-68.00
2025-06-12 13:40:58.291466,599617964085144708,-60.00
2025-06-12 13:40:58.291466,599617964085144708,-104.00
2025-06-12 13:40:58.291466,599617964085144708,-214.00
2025-06-12 13:40:58.291466,599617964085144708,-60.00
2025-06-12 13:40:58.291466,599617964085144708,631.00
2025-06-12 13:40:58.291466,599617964085144708,1372.00
2025-06-12 13:40:58.291466,599617964085144708,1089.00
2025-06-12 13:40:58.291466,599617964085144708,-170.00
2025-06-12 13:40:58.291466,599617964085144708,-794.00
2025-06-12 13:40:58.291466,599617964085144708,-333.00
2025-06-12 13:40:58.291466,599617964085144708,-14.00
2025-06-12 13:40:58.291466,599617964085144708,-114.00
2025-06-12 13:40:58.291466,599617964085144708,-60.00
2025-06-12 13:40:58.836904,599617964645872267,48.00
2025-06-12 13:40:58.836904,599617964645872267,7.00
2025-06-12 13:40:58.836904,599617964645872267,-12.00
2025-06-12 13:40:58.836904,599617964645872267,26.00
2025-06-12 13:40:58.836904,599617964645872267,29.00
2025-06-12 13:40:58.836904,599617964645872267,31.00
2025-06-12 13:40:58.836904,599617964645872267,48.00
2025-06-12 13:40:58.836904,599617964645872267,58.00
2025-06-12 13:40:58.836904,599617964645872267,82.00
2025-06-12 13:40:58.836904,599617964645872267,114.00
2025-06-12 13:40:58.836904,599617964645872267,124.00
2025-06-12 13:40:58.836904,599617964645872267,134.00
2025-06-12 13:40:58.836904,599617964645872267,148.00
2025-06-12 13:40:58.836904,599617964645872267,165.00
2025-06-12 13:40:58.836904,599617964645872267,194.00
2025-06-12 13:40:58.836904,599617964645872267,231.00
2025-06-12 13:40:58.836904,599617964645872267,265.00
2025-06-12 13:40:58.836904,599617964645872267,302.00
2025-06-12 13:40:58.836904,599617964645872267,370.00
2025-06-12 13:40:58.836904,599617964645872267,431.00
2025-06-12 13:40:58.836904,599617964645872267,446.00
2025-06-12 13:40:58.836904,599617964645872267,458.00
2025-06-12 13:40:58.836904,599617964645872267,472.00
2025-06-12 13:40:58.836904,599617964645872267,446.00
2025-06-12 13:40:58.836904,599617964645872267,380.00
2025-06-12 13:40:58.836904,599617964645872267,277.00
2025-06-12 13:40:58.836904,599617964645872267,116.00
2025-06-12 13:40:58.836904,599617964645872267,-21.00
2025-06-12 13:40:58.836904,599617964645872267,-70.00
2025-06-12 13:40:58.836904,599617964645872267,-153.00
2025-06-12 13:40:58.836904,599617964645872267,-324.00
2025-06-12 13:40:58.836904,599617964645872267,-421.00
2025-06-12 13:40:58.836904,599617964645872267,-336.00
2025-06-12 13:40:58.836904,599617964645872267,-221.00
2025-06-12 13:40:58.836904,599617964645872267,-277.00
2025-06-12 13:40:58.836904,599617964645872267,-350.00
2025-06-12 13:40:58.836904,599617964645872267,-292.00
2025-06-12 13:40:58.836904,599617964645872267,-285.00
2025-06-12 13:40:58.836904,599617964645872267,-338.00
2025-06-12 13:40:58.836904,599617964645872267,-260.00
2025-06-12 13:40:58.836904,599617964645872267,-158.00
2025-06-12 13:40:58.836904,599617964645872267,-177.00
2025-06-12 13:40:58.836904,599617964645872267,-194.00
2025-06-12 13:40:58.836904,599617964645872267,-194.00
2025-06-12 13:40:58.836904,599617964645872267,-258.00
2025-06-12 13:40:58.836904,599617964645872267,-282.00
2025-06-12 13:40:58.836904,599617964645872267,-199.00
2025-06-12 13:40:58.836904,599617964645872267,-163.00
2025-06-12 13:40:58.836904,599617964645872267,-197.00
2025-06-12 13:40:58.836904,599617964645872267,-155.00
2025-06-12 13:40:58.836904,599617964645872267,-124.00
2025-06-12 13:40:58.836904,599617964645872267,-177.00
2025-06-12 13:40:58.836904,599617964645872267,-180.00
2025-06-12 13:40:58.836904,599617964645872267,-143.00
2025-06-12 13:40:58.836904,599617964645872267,-180.00
2025-06-12 13:40:58.836904,599617964645872267,-197.00
2025-06-12 13:40:58.836904,599617964645872267,-138.00
2025-06-12 13:40:58.836904,599617964645872267,-99.00
2025-06-12 13:40:58.836904,599617964645872267,-102.00
2025-06-12 13:40:58.836904,599617964645872267,-141.00
2025-06-12 13:40:58.836904,599617964645872267,-180.00
2025-06-12 13:40:58.836904,599617964645872267,-177.00
2025-06-12 13:40:58.836904,599617964645872267,-160.00
2025-06-12 13:40:58.836904,599617964645872267,-134.00
2025-06-12 13:40:58.836904,599617964645872267,-82.00
2025-06-12 13:40:58.836904,599617964645872267,-53.00
2025-06-12 13:40:58.836904,599617964645872267,-97.00
2025-06-12 13:40:58.836904,599617964645872267,-119.00
2025-06-12 13:40:58.836904,599617964645872267,-99.00
2025-06-12 13:40:58.836904,599617964645872267,-109.00
2025-06-12 13:40:58.836904,599617964645872267,-97.00
2025-06-12 13:40:58.836904,599617964645872267,-90.00
2025-06-12 13:40:58.836904,599617964645872267,-151.00
2025-06-12 13:40:59.374746,599617965206599826,-148.00
2025-06-12 13:40:59.374746,599617965206599826,-41.00
2025-06-12 13:40:59.374746,599617965206599826,-41.00
2025-06-12 13:40:59.374746,599617965206599826,-131.00
2025-06-12 13:40:59.374746,599617965206599826,-107.00
2025-06-12 13:40:59.374746,599617965206599826,-48.00
2025-06-12 13:40:59.374746,599617965206599826,-75.00
2025-06-12 13:40:59.374746,599617965206599826,-87.00
2025-06-12 13:40:59.374746,599617965206599826,-68.00
2025-06-12 13:40:59.374746,599617965206599826,-99.00
2025-06-12 13:40:59.374746,599617965206599826,-129.00
2025-06-12 13:40:59.374746,599617965206599826,-73.00
2025-06-12 13:40:59.374746,599617965206599826,-19.00
2025-06-12 13:40:59.374746,599617965206599826,-65.00
2025-06-12 13:40:59.374746,599617965206599826,-112.00
2025-06-12 13:40:59.374746,599617965206599826,-63.00
2025-06-12 13:40:59.374746,599617965206599826,-24.00
2025-06-12 13:40:59.374746,599617965206599826,-48.00
2025-06-12 13:40:59.374746,599617965206599826,-56.00
2025-06-12 13:40:59.374746,599617965206599826,-46.00
2025-06-12 13:40:59.374746,599617965206599826,-46.00
2025-06-12 13:40:59.374746,599617965206599826,-38.00
2025-06-12 13:40:59.374746,599617965206599826,-53.00
2025-06-12 13:40:59.374746,599617965206599826,-70.00
2025-06-12 13:40:59.374746,599617965206599826,-46.00
2025-06-12 13:40:59.374746,599617965206599826,-41.00
2025-06-12 13:40:59.374746,599617965206599826,-53.00
2025-06-12 13:40:59.374746,599617965206599826,-43.00
2025-06-12 13:40:59.374746,599617965206599826,-48.00
2025-06-12 13:40:59.374746,599617965206599826,-97.00
2025-06-12 13:40:59.374746,599617965206599826,-194.00
2025-06-12 13:40:59.374746,599617965206599826,-124.00
2025-06-12 13:40:59.374746,599617965206599826,441.00
2025-06-12 13:40:59.374746,599617965206599826,1230.00
2025-06-12 13:40:59.374746,599617965206599826,1252.00
2025-06-12 13:40:59.374746,599617965206599826,158.00
2025-06-12 13:40:59.374746,599617965206599826,-733.00
2025-06-12 13:40:59.374746,599617965206599826,-482.00
2025-06-12 13:40:59.374746,599617965206599826,-77.00
2025-06-12 13:40:59.374746,599617965206599826,-126.00
2025-06-12 13:40:59.374746,599617965206599826,-97.00
2025-06-12 13:40:59.374746,599617965206599826,53.00
2025-06-12 13:40:59.374746,599617965206599826,58.00
2025-06-12 13:40:59.374746,599617965206599826,12.00
2025-06-12 13:40:59.374746,599617965206599826,26.00
2025-06-12 13:40:59.374746,599617965206599826,51.00
2025-06-12 13:40:59.374746,599617965206599826,60.00
2025-06-12 13:40:59.374746,599617965206599826,68.00
2025-06-12 13:40:59.374746,599617965206599826,90.00
2025-06-12 13:40:59.374746,599617965206599826,104.00
2025-06-12 13:40:59.374746,599617965206599826,102.00
2025-06-12 13:40:59.374746,599617965206599826,124.00
2025-06-12 13:40:59.374746,599617965206599826,141.00
2025-06-12 13:40:59.374746,599617965206599826,153.00
2025-06-12 13:40:59.374746,599617965206599826,187.00
2025-06-12 13:40:59.374746,599617965206599826,216.00
2025-06-12 13:40:59.374746,599617965206599826,255.00
2025-06-12 13:40:59.374746,599617965206599826,299.00
2025-06-12 13:40:59.374746,599617965206599826,326.00
2025-06-12 13:40:59.374746,599617965206599826,368.00
2025-06-12 13:40:59.374746,599617965206599826,421.00
2025-06-12 13:40:59.374746,599617965206599826,460.00
2025-06-12 13:40:59.374746,599617965206599826,497.00
2025-06-12 13:40:59.374746,599617965206599826,504.00
2025-06-12 13:40:59.374746,599617965206599826,467.00
2025-06-12 13:40:59.374746,599617965206599826,421.00
2025-06-12 13:40:59.374746,599617965206599826,329.00
2025-06-12 13:40:59.374746,599617965206599826,158.00
2025-06-12 13:40:59.374746,599617965206599826,2.00
2025-06-12 13:40:59.374746,599617965206599826,-102.00
2025-06-12 13:40:59.374746,599617965206599826,-185.00
2025-06-12 13:40:59.374746,599617965206599826,-226.00
2025-06-12 13:40:59.374746,599617965206599826,-243.00
