Timestamp,Device Timestamp (ns),ECG Value (uV)
2025-06-12 13:19:35.548266,599616681345396978,-119.00
2025-06-12 13:19:35.548266,599616681345396978,-119.00
2025-06-12 13:19:35.548266,599616681345396978,-116.00
2025-06-12 13:19:35.548266,599616681345396978,-114.00
2025-06-12 13:19:35.548266,599616681345396978,-116.00
2025-06-12 13:19:35.548266,599616681345396978,-114.00
2025-06-12 13:19:35.548266,599616681345396978,-112.00
2025-06-12 13:19:35.548266,599616681345396978,-112.00
2025-06-12 13:19:35.548266,599616681345396978,-109.00
2025-06-12 13:19:35.548266,599616681345396978,-107.00
2025-06-12 13:19:35.548266,599616681345396978,-109.00
2025-06-12 13:19:35.548266,599616681345396978,-107.00
2025-06-12 13:19:35.548266,599616681345396978,-95.00
2025-06-12 13:19:35.548266,599616681345396978,-87.00
2025-06-12 13:19:35.548266,599616681345396978,-90.00
2025-06-12 13:19:35.548266,599616681345396978,-99.00
2025-06-12 13:19:35.548266,599616681345396978,-102.00
2025-06-12 13:19:35.548266,599616681345396978,-82.00
2025-06-12 13:19:35.548266,599616681345396978,-60.00
2025-06-12 13:19:35.548266,599616681345396978,-60.00
2025-06-12 13:19:35.548266,599616681345396978,-87.00
2025-06-12 13:19:35.548266,599616681345396978,-109.00
2025-06-12 13:19:35.548266,599616681345396978,-107.00
2025-06-12 13:19:35.548266,599616681345396978,-102.00
2025-06-12 13:19:35.548266,599616681345396978,-102.00
2025-06-12 13:19:35.548266,599616681345396978,-102.00
2025-06-12 13:19:35.548266,599616681345396978,-99.00
2025-06-12 13:19:35.548266,599616681345396978,-99.00
2025-06-12 13:19:35.548266,599616681345396978,-97.00
2025-06-12 13:19:35.548266,599616681345396978,-112.00
2025-06-12 13:19:35.548266,599616681345396978,-190.00
2025-06-12 13:19:35.548266,599616681345396978,-238.00
2025-06-12 13:19:35.548266,599616681345396978,68.00
2025-06-12 13:19:35.548266,599616681345396978,818.00
2025-06-12 13:19:35.548266,599616681345396978,1272.00
2025-06-12 13:19:35.548266,599616681345396978,543.00
2025-06-12 13:19:35.548266,599616681345396978,-614.00
2025-06-12 13:19:35.548266,599616681345396978,-714.00
2025-06-12 13:19:35.548266,599616681345396978,-194.00
2025-06-12 13:19:35.548266,599616681345396978,-114.00
2025-06-12 13:19:35.548266,599616681345396978,-163.00
2025-06-12 13:19:35.548266,599616681345396978,-38.00
2025-06-12 13:19:35.548266,599616681345396978,-19.00
2025-06-12 13:19:35.548266,599616681345396978,-70.00
2025-06-12 13:19:35.548266,599616681345396978,-34.00
2025-06-12 13:19:35.548266,599616681345396978,-7.00
2025-06-12 13:19:35.548266,599616681345396978,-21.00
2025-06-12 13:19:35.548266,599616681345396978,-12.00
2025-06-12 13:19:35.548266,599616681345396978,9.00
2025-06-12 13:19:35.548266,599616681345396978,17.00
2025-06-12 13:19:35.548266,599616681345396978,26.00
2025-06-12 13:19:35.548266,599616681345396978,46.00
2025-06-12 13:19:35.548266,599616681345396978,58.00
2025-06-12 13:19:35.548266,599616681345396978,75.00
2025-06-12 13:19:35.548266,599616681345396978,97.00
2025-06-12 13:19:35.548266,599616681345396978,124.00
2025-06-12 13:19:35.548266,599616681345396978,153.00
2025-06-12 13:19:35.548266,599616681345396978,187.00
2025-06-12 13:19:35.548266,599616681345396978,226.00
2025-06-12 13:19:35.548266,599616681345396978,268.00
2025-06-12 13:19:35.548266,599616681345396978,304.00
2025-06-12 13:19:35.548266,599616681345396978,336.00
2025-06-12 13:19:35.548266,599616681345396978,360.00
2025-06-12 13:19:35.548266,599616681345396978,363.00
2025-06-12 13:19:35.548266,599616681345396978,338.00
2025-06-12 13:19:35.548266,599616681345396978,277.00
2025-06-12 13:19:35.548266,599616681345396978,170.00
2025-06-12 13:19:35.548266,599616681345396978,41.00
2025-06-12 13:19:35.548266,599616681345396978,-80.00
2025-06-12 13:19:35.548266,599616681345396978,-175.00
2025-06-12 13:19:35.548266,599616681345396978,-241.00
2025-06-12 13:19:35.548266,599616681345396978,-280.00
2025-06-12 13:19:35.548266,599616681345396978,-297.00
2025-06-12 13:19:36.087837,599616681906063501,-304.00
2025-06-12 13:19:36.087837,599616681906063501,-302.00
2025-06-12 13:19:36.087837,599616681906063501,-292.00
2025-06-12 13:19:36.087837,599616681906063501,-280.00
2025-06-12 13:19:36.087837,599616681906063501,-270.00
2025-06-12 13:19:36.087837,599616681906063501,-263.00
2025-06-12 13:19:36.087837,599616681906063501,-251.00
2025-06-12 13:19:36.087837,599616681906063501,-241.00
2025-06-12 13:19:36.087837,599616681906063501,-231.00
2025-06-12 13:19:36.087837,599616681906063501,-224.00
2025-06-12 13:19:36.087837,599616681906063501,-216.00
2025-06-12 13:19:36.087837,599616681906063501,-212.00
2025-06-12 13:19:36.087837,599616681906063501,-202.00
2025-06-12 13:19:36.087837,599616681906063501,-192.00
2025-06-12 13:19:36.087837,599616681906063501,-187.00
2025-06-12 13:19:36.087837,599616681906063501,-182.00
2025-06-12 13:19:36.087837,599616681906063501,-177.00
2025-06-12 13:19:36.087837,599616681906063501,-173.00
2025-06-12 13:19:36.087837,599616681906063501,-168.00
2025-06-12 13:19:36.087837,599616681906063501,-165.00
2025-06-12 13:19:36.087837,599616681906063501,-163.00
2025-06-12 13:19:36.087837,599616681906063501,-158.00
2025-06-12 13:19:36.087837,599616681906063501,-151.00
2025-06-12 13:19:36.087837,599616681906063501,-151.00
2025-06-12 13:19:36.087837,599616681906063501,-148.00
2025-06-12 13:19:36.087837,599616681906063501,-143.00
2025-06-12 13:19:36.087837,599616681906063501,-141.00
2025-06-12 13:19:36.087837,599616681906063501,-141.00
2025-06-12 13:19:36.087837,599616681906063501,-138.00
2025-06-12 13:19:36.087837,599616681906063501,-136.00
2025-06-12 13:19:36.087837,599616681906063501,-136.00
2025-06-12 13:19:36.087837,599616681906063501,-136.00
2025-06-12 13:19:36.087837,599616681906063501,-134.00
2025-06-12 13:19:36.087837,599616681906063501,-131.00
2025-06-12 13:19:36.087837,599616681906063501,-129.00
2025-06-12 13:19:36.087837,599616681906063501,-126.00
2025-06-12 13:19:36.087837,599616681906063501,-126.00
2025-06-12 13:19:36.087837,599616681906063501,-124.00
2025-06-12 13:19:36.087837,599616681906063501,-121.00
2025-06-12 13:19:36.087837,599616681906063501,-121.00
2025-06-12 13:19:36.087837,599616681906063501,-121.00
2025-06-12 13:19:36.087837,599616681906063501,-119.00
2025-06-12 13:19:36.087837,599616681906063501,-119.00
2025-06-12 13:19:36.087837,599616681906063501,-114.00
2025-06-12 13:19:36.087837,599616681906063501,-112.00
2025-06-12 13:19:36.087837,599616681906063501,-114.00
2025-06-12 13:19:36.087837,599616681906063501,-114.00
2025-06-12 13:19:36.087837,599616681906063501,-109.00
2025-06-12 13:19:36.087837,599616681906063501,-107.00
2025-06-12 13:19:36.087837,599616681906063501,-104.00
2025-06-12 13:19:36.087837,599616681906063501,-107.00
2025-06-12 13:19:36.087837,599616681906063501,-107.00
2025-06-12 13:19:36.087837,599616681906063501,-99.00
2025-06-12 13:19:36.087837,599616681906063501,-97.00
2025-06-12 13:19:36.087837,599616681906063501,-95.00
2025-06-12 13:19:36.087837,599616681906063501,-92.00
2025-06-12 13:19:36.087837,599616681906063501,-95.00
2025-06-12 13:19:36.087837,599616681906063501,-99.00
2025-06-12 13:19:36.087837,599616681906063501,-87.00
2025-06-12 13:19:36.087837,599616681906063501,-63.00
2025-06-12 13:19:36.087837,599616681906063501,-58.00
2025-06-12 13:19:36.087837,599616681906063501,-80.00
2025-06-12 13:19:36.087837,599616681906063501,-104.00
2025-06-12 13:19:36.087837,599616681906063501,-109.00
2025-06-12 13:19:36.087837,599616681906063501,-102.00
2025-06-12 13:19:36.087837,599616681906063501,-102.00
2025-06-12 13:19:36.087837,599616681906063501,-104.00
2025-06-12 13:19:36.087837,599616681906063501,-102.00
2025-06-12 13:19:36.087837,599616681906063501,-99.00
2025-06-12 13:19:36.087837,599616681906063501,-92.00
2025-06-12 13:19:36.087837,599616681906063501,-97.00
2025-06-12 13:19:36.087837,599616681906063501,-160.00
2025-06-12 13:19:36.087837,599616681906063501,-238.00
2025-06-12 13:19:36.658494,599616682466730024,-48.00
2025-06-12 13:19:36.658494,599616682466730024,619.00
2025-06-12 13:19:36.658494,599616682466730024,1233.00
2025-06-12 13:19:36.658494,599616682466730024,784.00
2025-06-12 13:19:36.658494,599616682466730024,-411.00
2025-06-12 13:19:36.658494,599616682466730024,-789.00
2025-06-12 13:19:36.658494,599616682466730024,-294.00
2025-06-12 13:19:36.658494,599616682466730024,-95.00
2025-06-12 13:19:36.658494,599616682466730024,-160.00
2025-06-12 13:19:36.658494,599616682466730024,-53.00
2025-06-12 13:19:36.658494,599616682466730024,0.00
2025-06-12 13:19:36.658494,599616682466730024,-58.00
2025-06-12 13:19:36.658494,599616682466730024,-41.00
2025-06-12 13:19:36.658494,599616682466730024,-7.00
2025-06-12 13:19:36.658494,599616682466730024,-14.00
2025-06-12 13:19:36.658494,599616682466730024,-7.00
2025-06-12 13:19:36.658494,599616682466730024,12.00
2025-06-12 13:19:36.658494,599616682466730024,19.00
2025-06-12 13:19:36.658494,599616682466730024,26.00
2025-06-12 13:19:36.658494,599616682466730024,38.00
2025-06-12 13:19:36.658494,599616682466730024,56.00
2025-06-12 13:19:36.658494,599616682466730024,80.00
2025-06-12 13:19:36.658494,599616682466730024,102.00
2025-06-12 13:19:36.658494,599616682466730024,119.00
2025-06-12 13:19:36.658494,599616682466730024,151.00
2025-06-12 13:19:36.658494,599616682466730024,187.00
2025-06-12 13:19:36.658494,599616682466730024,226.00
2025-06-12 13:19:36.658494,599616682466730024,268.00
2025-06-12 13:19:36.658494,599616682466730024,307.00
2025-06-12 13:19:36.658494,599616682466730024,338.00
2025-06-12 13:19:36.658494,599616682466730024,363.00
2025-06-12 13:19:36.658494,599616682466730024,375.00
2025-06-12 13:19:36.658494,599616682466730024,360.00
2025-06-12 13:19:36.658494,599616682466730024,299.00
2025-06-12 13:19:36.658494,599616682466730024,197.00
2025-06-12 13:19:36.658494,599616682466730024,73.00
2025-06-12 13:19:36.658494,599616682466730024,-48.00
2025-06-12 13:19:36.658494,599616682466730024,-153.00
2025-06-12 13:19:36.658494,599616682466730024,-226.00
2025-06-12 13:19:36.658494,599616682466730024,-265.00
2025-06-12 13:19:36.658494,599616682466730024,-290.00
2025-06-12 13:19:36.658494,599616682466730024,-299.00
2025-06-12 13:19:36.658494,599616682466730024,-297.00
2025-06-12 13:19:36.658494,599616682466730024,-292.00
2025-06-12 13:19:36.658494,599616682466730024,-282.00
2025-06-12 13:19:36.658494,599616682466730024,-272.00
2025-06-12 13:19:36.658494,599616682466730024,-268.00
2025-06-12 13:19:36.658494,599616682466730024,-253.00
2025-06-12 13:19:36.658494,599616682466730024,-238.00
2025-06-12 13:19:36.658494,599616682466730024,-231.00
2025-06-12 13:19:36.658494,599616682466730024,-229.00
2025-06-12 13:19:36.658494,599616682466730024,-221.00
2025-06-12 13:19:36.658494,599616682466730024,-212.00
2025-06-12 13:19:36.658494,599616682466730024,-207.00
2025-06-12 13:19:36.658494,599616682466730024,-197.00
2025-06-12 13:19:36.658494,599616682466730024,-187.00
2025-06-12 13:19:36.658494,599616682466730024,-185.00
2025-06-12 13:19:36.658494,599616682466730024,-185.00
2025-06-12 13:19:36.658494,599616682466730024,-177.00
2025-06-12 13:19:36.658494,599616682466730024,-168.00
2025-06-12 13:19:36.658494,599616682466730024,-163.00
2025-06-12 13:19:36.658494,599616682466730024,-160.00
2025-06-12 13:19:36.658494,599616682466730024,-160.00
2025-06-12 13:19:36.658494,599616682466730024,-158.00
2025-06-12 13:19:36.658494,599616682466730024,-151.00
2025-06-12 13:19:36.658494,599616682466730024,-148.00
2025-06-12 13:19:36.658494,599616682466730024,-148.00
2025-06-12 13:19:36.658494,599616682466730024,-143.00
2025-06-12 13:19:36.658494,599616682466730024,-143.00
2025-06-12 13:19:36.658494,599616682466730024,-148.00
2025-06-12 13:19:36.658494,599616682466730024,-143.00
2025-06-12 13:19:36.658494,599616682466730024,-134.00
2025-06-12 13:19:36.658494,599616682466730024,-129.00
2025-06-12 13:19:37.200807,599616683027366029,-136.00
2025-06-12 13:19:37.200807,599616683027366029,-146.00
2025-06-12 13:19:37.200807,599616683027366029,-138.00
2025-06-12 13:19:37.200807,599616683027366029,-121.00
2025-06-12 13:19:37.200807,599616683027366029,-124.00
2025-06-12 13:19:37.200807,599616683027366029,-134.00
2025-06-12 13:19:37.200807,599616683027366029,-131.00
2025-06-12 13:19:37.200807,599616683027366029,-124.00
2025-06-12 13:19:37.200807,599616683027366029,-116.00
2025-06-12 13:19:37.200807,599616683027366029,-109.00
2025-06-12 13:19:37.200807,599616683027366029,-114.00
2025-06-12 13:19:37.200807,599616683027366029,-124.00
2025-06-12 13:19:37.200807,599616683027366029,-119.00
2025-06-12 13:19:37.200807,599616683027366029,-109.00
2025-06-12 13:19:37.200807,599616683027366029,-114.00
2025-06-12 13:19:37.200807,599616683027366029,-116.00
2025-06-12 13:19:37.200807,599616683027366029,-112.00
2025-06-12 13:19:37.200807,599616683027366029,-109.00
2025-06-12 13:19:37.200807,599616683027366029,-107.00
2025-06-12 13:19:37.200807,599616683027366029,-109.00
2025-06-12 13:19:37.200807,599616683027366029,-109.00
2025-06-12 13:19:37.200807,599616683027366029,-99.00
2025-06-12 13:19:37.200807,599616683027366029,-92.00
2025-06-12 13:19:37.200807,599616683027366029,-87.00
2025-06-12 13:19:37.200807,599616683027366029,-70.00
2025-06-12 13:19:37.200807,599616683027366029,-60.00
2025-06-12 13:19:37.200807,599616683027366029,-77.00
2025-06-12 13:19:37.200807,599616683027366029,-107.00
2025-06-12 13:19:37.200807,599616683027366029,-119.00
2025-06-12 13:19:37.200807,599616683027366029,-109.00
2025-06-12 13:19:37.200807,599616683027366029,-102.00
2025-06-12 13:19:37.200807,599616683027366029,-109.00
2025-06-12 13:19:37.200807,599616683027366029,-112.00
2025-06-12 13:19:37.200807,599616683027366029,-104.00
2025-06-12 13:19:37.200807,599616683027366029,-107.00
2025-06-12 13:19:37.200807,599616683027366029,-109.00
2025-06-12 13:19:37.200807,599616683027366029,-124.00
2025-06-12 13:19:37.200807,599616683027366029,-204.00
2025-06-12 13:19:37.200807,599616683027366029,-221.00
2025-06-12 13:19:37.200807,599616683027366029,180.00
2025-06-12 13:19:37.200807,599616683027366029,933.00
2025-06-12 13:19:37.200807,599616683027366029,1150.00
2025-06-12 13:19:37.200807,599616683027366029,224.00
2025-06-12 13:19:37.200807,599616683027366029,-762.00
2025-06-12 13:19:37.200807,599616683027366029,-636.00
2025-06-12 13:19:37.200807,599616683027366029,-163.00
2025-06-12 13:19:37.200807,599616683027366029,-158.00
2025-06-12 13:19:37.200807,599616683027366029,-158.00
2025-06-12 13:19:37.200807,599616683027366029,-19.00
2025-06-12 13:19:37.200807,599616683027366029,-29.00
2025-06-12 13:19:37.200807,599616683027366029,-70.00
2025-06-12 13:19:37.200807,599616683027366029,-21.00
2025-06-12 13:19:37.200807,599616683027366029,-9.00
2025-06-12 13:19:37.200807,599616683027366029,-24.00
2025-06-12 13:19:37.200807,599616683027366029,-4.00
2025-06-12 13:19:37.200807,599616683027366029,14.00
2025-06-12 13:19:37.200807,599616683027366029,17.00
2025-06-12 13:19:37.200807,599616683027366029,29.00
2025-06-12 13:19:37.200807,599616683027366029,48.00
2025-06-12 13:19:37.200807,599616683027366029,60.00
2025-06-12 13:19:37.200807,599616683027366029,77.00
2025-06-12 13:19:37.200807,599616683027366029,104.00
2025-06-12 13:19:37.200807,599616683027366029,131.00
2025-06-12 13:19:37.200807,599616683027366029,163.00
2025-06-12 13:19:37.200807,599616683027366029,199.00
2025-06-12 13:19:37.200807,599616683027366029,236.00
2025-06-12 13:19:37.200807,599616683027366029,277.00
2025-06-12 13:19:37.200807,599616683027366029,324.00
2025-06-12 13:19:37.200807,599616683027366029,348.00
2025-06-12 13:19:37.200807,599616683027366029,353.00
2025-06-12 13:19:37.200807,599616683027366029,353.00
2025-06-12 13:19:37.200807,599616683027366029,324.00
2025-06-12 13:19:37.200807,599616683027366029,238.00
2025-06-12 13:19:37.768886,599616683588032552,114.00
2025-06-12 13:19:37.768886,599616683588032552,-17.00
2025-06-12 13:19:37.768886,599616683588032552,-124.00
2025-06-12 13:19:37.768886,599616683588032552,-212.00
2025-06-12 13:19:37.768886,599616683588032552,-275.00
2025-06-12 13:19:37.768886,599616683588032552,-304.00
2025-06-12 13:19:37.768886,599616683588032552,-309.00
2025-06-12 13:19:37.768886,599616683588032552,-314.00
2025-06-12 13:19:37.768886,599616683588032552,-314.00
2025-06-12 13:19:37.768886,599616683588032552,-304.00
2025-06-12 13:19:37.768886,599616683588032552,-297.00
2025-06-12 13:19:37.768886,599616683588032552,-287.00
2025-06-12 13:19:37.768886,599616683588032552,-277.00
2025-06-12 13:19:37.768886,599616683588032552,-268.00
2025-06-12 13:19:37.768886,599616683588032552,-263.00
2025-06-12 13:19:37.768886,599616683588032552,-255.00
2025-06-12 13:19:37.768886,599616683588032552,-248.00
2025-06-12 13:19:37.768886,599616683588032552,-243.00
2025-06-12 13:19:37.768886,599616683588032552,-241.00
2025-06-12 13:19:37.768886,599616683588032552,-229.00
2025-06-12 13:19:37.768886,599616683588032552,-214.00
2025-06-12 13:19:37.768886,599616683588032552,-209.00
2025-06-12 13:19:37.768886,599616683588032552,-207.00
2025-06-12 13:19:37.768886,599616683588032552,-197.00
2025-06-12 13:19:37.768886,599616683588032552,-190.00
2025-06-12 13:19:37.768886,599616683588032552,-185.00
2025-06-12 13:19:37.768886,599616683588032552,-177.00
2025-06-12 13:19:37.768886,599616683588032552,-173.00
2025-06-12 13:19:37.768886,599616683588032552,-173.00
2025-06-12 13:19:37.768886,599616683588032552,-170.00
2025-06-12 13:19:37.768886,599616683588032552,-168.00
2025-06-12 13:19:37.768886,599616683588032552,-165.00
2025-06-12 13:19:37.768886,599616683588032552,-165.00
2025-06-12 13:19:37.768886,599616683588032552,-165.00
2025-06-12 13:19:37.768886,599616683588032552,-160.00
2025-06-12 13:19:37.768886,599616683588032552,-158.00
2025-06-12 13:19:37.768886,599616683588032552,-155.00
2025-06-12 13:19:37.768886,599616683588032552,-158.00
2025-06-12 13:19:37.768886,599616683588032552,-158.00
2025-06-12 13:19:37.768886,599616683588032552,-155.00
2025-06-12 13:19:37.768886,599616683588032552,-155.00
2025-06-12 13:19:37.768886,599616683588032552,-153.00
2025-06-12 13:19:37.768886,599616683588032552,-151.00
2025-06-12 13:19:37.768886,599616683588032552,-148.00
2025-06-12 13:19:37.768886,599616683588032552,-143.00
2025-06-12 13:19:37.768886,599616683588032552,-141.00
2025-06-12 13:19:37.768886,599616683588032552,-143.00
2025-06-12 13:19:37.768886,599616683588032552,-141.00
2025-06-12 13:19:37.768886,599616683588032552,-134.00
2025-06-12 13:19:37.768886,599616683588032552,-136.00
2025-06-12 13:19:37.768886,599616683588032552,-138.00
2025-06-12 13:19:37.768886,599616683588032552,-136.00
2025-06-12 13:19:37.768886,599616683588032552,-134.00
2025-06-12 13:19:37.768886,599616683588032552,-129.00
2025-06-12 13:19:37.768886,599616683588032552,-126.00
2025-06-12 13:19:37.768886,599616683588032552,-124.00
2025-06-12 13:19:37.768886,599616683588032552,-121.00
2025-06-12 13:19:37.768886,599616683588032552,-124.00
2025-06-12 13:19:37.768886,599616683588032552,-126.00
2025-06-12 13:19:37.768886,599616683588032552,-116.00
2025-06-12 13:19:37.768886,599616683588032552,-95.00
2025-06-12 13:19:37.768886,599616683588032552,-77.00
2025-06-12 13:19:37.768886,599616683588032552,-82.00
2025-06-12 13:19:37.768886,599616683588032552,-102.00
2025-06-12 13:19:37.768886,599616683588032552,-119.00
2025-06-12 13:19:37.768886,599616683588032552,-126.00
2025-06-12 13:19:37.768886,599616683588032552,-124.00
2025-06-12 13:19:37.768886,599616683588032552,-119.00
2025-06-12 13:19:37.768886,599616683588032552,-119.00
2025-06-12 13:19:37.768886,599616683588032552,-121.00
2025-06-12 13:19:37.768886,599616683588032552,-116.00
2025-06-12 13:19:37.768886,599616683588032552,-112.00
2025-06-12 13:19:37.768886,599616683588032552,-121.00
2025-06-12 13:19:38.370453,599616684148699077,-187.00
2025-06-12 13:19:38.370453,599616684148699077,-258.00
2025-06-12 13:19:38.370453,599616684148699077,-43.00
2025-06-12 13:19:38.370453,599616684148699077,645.00
2025-06-12 13:19:38.370453,599616684148699077,1230.00
2025-06-12 13:19:38.370453,599616684148699077,716.00
2025-06-12 13:19:38.370453,599616684148699077,-487.00
2025-06-12 13:19:38.370453,599616684148699077,-799.00
2025-06-12 13:19:38.370453,599616684148699077,-287.00
2025-06-12 13:19:38.370453,599616684148699077,-112.00
2025-06-12 13:19:38.370453,599616684148699077,-180.00
2025-06-12 13:19:38.370453,599616684148699077,-65.00
2025-06-12 13:19:38.370453,599616684148699077,-17.00
2025-06-12 13:19:38.370453,599616684148699077,-70.00
2025-06-12 13:19:38.370453,599616684148699077,-46.00
2025-06-12 13:19:38.370453,599616684148699077,-9.00
2025-06-12 13:19:38.370453,599616684148699077,-19.00
2025-06-12 13:19:38.370453,599616684148699077,-14.00
2025-06-12 13:19:38.370453,599616684148699077,4.00
2025-06-12 13:19:38.370453,599616684148699077,12.00
2025-06-12 13:19:38.370453,599616684148699077,19.00
2025-06-12 13:19:38.370453,599616684148699077,38.00
2025-06-12 13:19:38.370453,599616684148699077,58.00
2025-06-12 13:19:38.370453,599616684148699077,73.00
2025-06-12 13:19:38.370453,599616684148699077,90.00
2025-06-12 13:19:38.370453,599616684148699077,116.00
2025-06-12 13:19:38.370453,599616684148699077,148.00
2025-06-12 13:19:38.370453,599616684148699077,187.00
2025-06-12 13:19:38.370453,599616684148699077,226.00
2025-06-12 13:19:38.370453,599616684148699077,263.00
2025-06-12 13:19:38.370453,599616684148699077,299.00
2025-06-12 13:19:38.370453,599616684148699077,333.00
2025-06-12 13:19:38.370453,599616684148699077,358.00
2025-06-12 13:19:38.370453,599616684148699077,365.00
2025-06-12 13:19:38.370453,599616684148699077,343.00
2025-06-12 13:19:38.370453,599616684148699077,285.00
2025-06-12 13:19:38.370453,599616684148699077,177.00
2025-06-12 13:19:38.370453,599616684148699077,43.00
2025-06-12 13:19:38.370453,599616684148699077,-80.00
2025-06-12 13:19:38.370453,599616684148699077,-175.00
2025-06-12 13:19:38.370453,599616684148699077,-238.00
2025-06-12 13:19:38.370453,599616684148699077,-280.00
2025-06-12 13:19:38.370453,599616684148699077,-304.00
2025-06-12 13:19:38.370453,599616684148699077,-309.00
2025-06-12 13:19:38.370453,599616684148699077,-304.00
2025-06-12 13:19:38.370453,599616684148699077,-302.00
2025-06-12 13:19:38.370453,599616684148699077,-294.00
2025-06-12 13:19:38.370453,599616684148699077,-282.00
2025-06-12 13:19:38.370453,599616684148699077,-272.00
2025-06-12 13:19:38.370453,599616684148699077,-263.00
2025-06-12 13:19:38.370453,599616684148699077,-255.00
2025-06-12 13:19:38.370453,599616684148699077,-248.00
2025-06-12 13:19:38.370453,599616684148699077,-236.00
2025-06-12 13:19:38.370453,599616684148699077,-229.00
2025-06-12 13:19:38.370453,599616684148699077,-221.00
2025-06-12 13:19:38.370453,599616684148699077,-214.00
2025-06-12 13:19:38.370453,599616684148699077,-209.00
2025-06-12 13:19:38.370453,599616684148699077,-204.00
2025-06-12 13:19:38.370453,599616684148699077,-197.00
2025-06-12 13:19:38.370453,599616684148699077,-192.00
2025-06-12 13:19:38.370453,599616684148699077,-185.00
2025-06-12 13:19:38.370453,599616684148699077,-180.00
2025-06-12 13:19:38.370453,599616684148699077,-175.00
2025-06-12 13:19:38.370453,599616684148699077,-168.00
2025-06-12 13:19:38.370453,599616684148699077,-163.00
2025-06-12 13:19:38.370453,599616684148699077,-163.00
2025-06-12 13:19:38.370453,599616684148699077,-160.00
2025-06-12 13:19:38.370453,599616684148699077,-158.00
2025-06-12 13:19:38.370453,599616684148699077,-155.00
2025-06-12 13:19:38.370453,599616684148699077,-153.00
2025-06-12 13:19:38.370453,599616684148699077,-151.00
2025-06-12 13:19:38.370453,599616684148699077,-151.00
2025-06-12 13:19:38.370453,599616684148699077,-148.00
2025-06-12 13:19:38.909690,599616684709335082,-146.00
2025-06-12 13:19:38.909690,599616684709335082,-143.00
2025-06-12 13:19:38.909690,599616684709335082,-143.00
2025-06-12 13:19:38.909690,599616684709335082,-141.00
2025-06-12 13:19:38.909690,599616684709335082,-138.00
2025-06-12 13:19:38.909690,599616684709335082,-138.00
2025-06-12 13:19:38.909690,599616684709335082,-136.00
2025-06-12 13:19:38.909690,599616684709335082,-134.00
2025-06-12 13:19:38.909690,599616684709335082,-131.00
2025-06-12 13:19:38.909690,599616684709335082,-131.00
2025-06-12 13:19:38.909690,599616684709335082,-129.00
2025-06-12 13:19:38.909690,599616684709335082,-126.00
2025-06-12 13:19:38.909690,599616684709335082,-124.00
2025-06-12 13:19:38.909690,599616684709335082,-124.00
2025-06-12 13:19:38.909690,599616684709335082,-121.00
2025-06-12 13:19:38.909690,599616684709335082,-121.00
2025-06-12 13:19:38.909690,599616684709335082,-119.00
2025-06-12 13:19:38.909690,599616684709335082,-116.00
2025-06-12 13:19:38.909690,599616684709335082,-114.00
2025-06-12 13:19:38.909690,599616684709335082,-116.00
2025-06-12 13:19:38.909690,599616684709335082,-116.00
2025-06-12 13:19:38.909690,599616684709335082,-112.00
2025-06-12 13:19:38.909690,599616684709335082,-109.00
2025-06-12 13:19:38.909690,599616684709335082,-104.00
2025-06-12 13:19:38.909690,599616684709335082,-104.00
2025-06-12 13:19:38.909690,599616684709335082,-109.00
2025-06-12 13:19:38.909690,599616684709335082,-102.00
2025-06-12 13:19:38.909690,599616684709335082,-85.00
2025-06-12 13:19:38.909690,599616684709335082,-73.00
2025-06-12 13:19:38.909690,599616684709335082,-65.00
2025-06-12 13:19:38.909690,599616684709335082,-70.00
2025-06-12 13:19:38.909690,599616684709335082,-90.00
2025-06-12 13:19:38.909690,599616684709335082,-109.00
2025-06-12 13:19:38.909690,599616684709335082,-114.00
2025-06-12 13:19:38.909690,599616684709335082,-109.00
2025-06-12 13:19:38.909690,599616684709335082,-109.00
2025-06-12 13:19:38.909690,599616684709335082,-107.00
2025-06-12 13:19:38.909690,599616684709335082,-104.00
2025-06-12 13:19:38.909690,599616684709335082,-104.00
2025-06-12 13:19:38.909690,599616684709335082,-102.00
2025-06-12 13:19:38.909690,599616684709335082,-116.00
2025-06-12 13:19:38.909690,599616684709335082,-190.00
2025-06-12 13:19:38.909690,599616684709335082,-238.00
2025-06-12 13:19:38.909690,599616684709335082,68.00
2025-06-12 13:19:38.909690,599616684709335082,809.00
2025-06-12 13:19:38.909690,599616684709335082,1235.00
2025-06-12 13:19:38.909690,599616684709335082,492.00
2025-06-12 13:19:38.909690,599616684709335082,-638.00
2025-06-12 13:19:38.909690,599616684709335082,-709.00
2025-06-12 13:19:38.909690,599616684709335082,-197.00
2025-06-12 13:19:38.909690,599616684709335082,-119.00
2025-06-12 13:19:38.909690,599616684709335082,-158.00
2025-06-12 13:19:38.909690,599616684709335082,-34.00
2025-06-12 13:19:38.909690,599616684709335082,-19.00
2025-06-12 13:19:38.909690,599616684709335082,-65.00
2025-06-12 13:19:38.909690,599616684709335082,-31.00
2025-06-12 13:19:38.909690,599616684709335082,-9.00
2025-06-12 13:19:38.909690,599616684709335082,-19.00
2025-06-12 13:19:38.909690,599616684709335082,-2.00
2025-06-12 13:19:38.909690,599616684709335082,14.00
2025-06-12 13:19:38.909690,599616684709335082,14.00
2025-06-12 13:19:38.909690,599616684709335082,26.00
2025-06-12 13:19:38.909690,599616684709335082,46.00
2025-06-12 13:19:38.909690,599616684709335082,63.00
2025-06-12 13:19:38.909690,599616684709335082,75.00
2025-06-12 13:19:38.909690,599616684709335082,97.00
2025-06-12 13:19:38.909690,599616684709335082,126.00
2025-06-12 13:19:38.909690,599616684709335082,158.00
2025-06-12 13:19:38.909690,599616684709335082,194.00
2025-06-12 13:19:38.909690,599616684709335082,231.00
2025-06-12 13:19:38.909690,599616684709335082,270.00
2025-06-12 13:19:38.909690,599616684709335082,309.00
2025-06-12 13:19:38.909690,599616684709335082,343.00
2025-06-12 13:19:39.510973,599616685270001605,368.00
2025-06-12 13:19:39.510973,599616685270001605,370.00
2025-06-12 13:19:39.510973,599616685270001605,348.00
2025-06-12 13:19:39.510973,599616685270001605,285.00
2025-06-12 13:19:39.510973,599616685270001605,175.00
2025-06-12 13:19:39.510973,599616685270001605,41.00
2025-06-12 13:19:39.510973,599616685270001605,-77.00
2025-06-12 13:19:39.510973,599616685270001605,-170.00
2025-06-12 13:19:39.510973,599616685270001605,-233.00
2025-06-12 13:19:39.510973,599616685270001605,-272.00
2025-06-12 13:19:39.510973,599616685270001605,-292.00
2025-06-12 13:19:39.510973,599616685270001605,-299.00
2025-06-12 13:19:39.510973,599616685270001605,-294.00
2025-06-12 13:19:39.510973,599616685270001605,-287.00
2025-06-12 13:19:39.510973,599616685270001605,-277.00
2025-06-12 13:19:39.510973,599616685270001605,-268.00
2025-06-12 13:19:39.510973,599616685270001605,-260.00
2025-06-12 13:19:39.510973,599616685270001605,-251.00
2025-06-12 13:19:39.510973,599616685270001605,-241.00
2025-06-12 13:19:39.510973,599616685270001605,-233.00
2025-06-12 13:19:39.510973,599616685270001605,-226.00
2025-06-12 13:19:39.510973,599616685270001605,-216.00
2025-06-12 13:19:39.510973,599616685270001605,-209.00
2025-06-12 13:19:39.510973,599616685270001605,-204.00
2025-06-12 13:19:39.510973,599616685270001605,-199.00
2025-06-12 13:19:39.510973,599616685270001605,-192.00
2025-06-12 13:19:39.510973,599616685270001605,-182.00
2025-06-12 13:19:39.510973,599616685270001605,-177.00
2025-06-12 13:19:39.510973,599616685270001605,-177.00
2025-06-12 13:19:39.510973,599616685270001605,-170.00
2025-06-12 13:19:39.510973,599616685270001605,-163.00
2025-06-12 13:19:39.510973,599616685270001605,-160.00
2025-06-12 13:19:39.510973,599616685270001605,-155.00
2025-06-12 13:19:39.510973,599616685270001605,-151.00
2025-06-12 13:19:39.510973,599616685270001605,-148.00
2025-06-12 13:19:39.510973,599616685270001605,-148.00
2025-06-12 13:19:39.510973,599616685270001605,-148.00
2025-06-12 13:19:39.510973,599616685270001605,-148.00
2025-06-12 13:19:39.510973,599616685270001605,-146.00
2025-06-12 13:19:39.510973,599616685270001605,-141.00
2025-06-12 13:19:39.510973,599616685270001605,-138.00
2025-06-12 13:19:39.510973,599616685270001605,-138.00
2025-06-12 13:19:39.510973,599616685270001605,-134.00
2025-06-12 13:19:39.510973,599616685270001605,-134.00
2025-06-12 13:19:39.510973,599616685270001605,-134.00
2025-06-12 13:19:39.510973,599616685270001605,-131.00
2025-06-12 13:19:39.510973,599616685270001605,-129.00
2025-06-12 13:19:39.510973,599616685270001605,-129.00
2025-06-12 13:19:39.510973,599616685270001605,-129.00
2025-06-12 13:19:39.510973,599616685270001605,-121.00
2025-06-12 13:19:39.510973,599616685270001605,-121.00
2025-06-12 13:19:39.510973,599616685270001605,-126.00
2025-06-12 13:19:39.510973,599616685270001605,-124.00
2025-06-12 13:19:39.510973,599616685270001605,-119.00
2025-06-12 13:19:39.510973,599616685270001605,-119.00
2025-06-12 13:19:39.510973,599616685270001605,-119.00
2025-06-12 13:19:39.510973,599616685270001605,-116.00
2025-06-12 13:19:39.510973,599616685270001605,-109.00
2025-06-12 13:19:39.510973,599616685270001605,-112.00
2025-06-12 13:19:39.510973,599616685270001605,-116.00
2025-06-12 13:19:39.510973,599616685270001605,-112.00
2025-06-12 13:19:39.510973,599616685270001605,-104.00
2025-06-12 13:19:39.510973,599616685270001605,-107.00
2025-06-12 13:19:39.510973,599616685270001605,-112.00
2025-06-12 13:19:39.510973,599616685270001605,-107.00
2025-06-12 13:19:39.510973,599616685270001605,-97.00
2025-06-12 13:19:39.510973,599616685270001605,-97.00
2025-06-12 13:19:39.510973,599616685270001605,-97.00
2025-06-12 13:19:39.510973,599616685270001605,-90.00
2025-06-12 13:19:39.510973,599616685270001605,-73.00
2025-06-12 13:19:39.510973,599616685270001605,-65.00
2025-06-12 13:19:39.510973,599616685270001605,-60.00
2025-06-12 13:19:39.510973,599616685270001605,-60.00
2025-06-12 13:19:40.019148,599616685830668128,-73.00
2025-06-12 13:19:40.019148,599616685830668128,-97.00
2025-06-12 13:19:40.019148,599616685830668128,-112.00
2025-06-12 13:19:40.019148,599616685830668128,-104.00
2025-06-12 13:19:40.019148,599616685830668128,-97.00
2025-06-12 13:19:40.019148,599616685830668128,-102.00
2025-06-12 13:19:40.019148,599616685830668128,-102.00
2025-06-12 13:19:40.019148,599616685830668128,-95.00
2025-06-12 13:19:40.019148,599616685830668128,-95.00
2025-06-12 13:19:40.019148,599616685830668128,-102.00
2025-06-12 13:19:40.019148,599616685830668128,-138.00
2025-06-12 13:19:40.019148,599616685830668128,-219.00
2025-06-12 13:19:40.019148,599616685830668128,-126.00
2025-06-12 13:19:40.019148,599616685830668128,433.00
2025-06-12 13:19:40.019148,599616685830668128,1143.00
2025-06-12 13:19:40.019148,599616685830668128,984.00
2025-06-12 13:19:40.019148,599616685830668128,-165.00
2025-06-12 13:19:40.019148,599616685830668128,-823.00
2025-06-12 13:19:40.019148,599616685830668128,-416.00
2025-06-12 13:19:40.019148,599616685830668128,-85.00
2025-06-12 13:19:40.019148,599616685830668128,-155.00
2025-06-12 13:19:40.019148,599616685830668128,-90.00
2025-06-12 13:19:40.019148,599616685830668128,7.00
2025-06-12 13:19:40.019148,599616685830668128,-34.00
2025-06-12 13:19:40.019148,599616685830668128,-43.00
2025-06-12 13:19:40.019148,599616685830668128,-7.00
2025-06-12 13:19:40.019148,599616685830668128,-9.00
2025-06-12 13:19:40.019148,599616685830668128,-7.00
2025-06-12 13:19:40.019148,599616685830668128,19.00
2025-06-12 13:19:40.019148,599616685830668128,31.00
2025-06-12 13:19:40.019148,599616685830668128,34.00
2025-06-12 13:19:40.019148,599616685830668128,46.00
2025-06-12 13:19:40.019148,599616685830668128,65.00
2025-06-12 13:19:40.019148,599616685830668128,82.00
2025-06-12 13:19:40.019148,599616685830668128,102.00
2025-06-12 13:19:40.019148,599616685830668128,124.00
2025-06-12 13:19:40.019148,599616685830668128,151.00
2025-06-12 13:19:40.019148,599616685830668128,182.00
2025-06-12 13:19:40.019148,599616685830668128,226.00
2025-06-12 13:19:40.019148,599616685830668128,268.00
2025-06-12 13:19:40.019148,599616685830668128,309.00
2025-06-12 13:19:40.019148,599616685830668128,346.00
2025-06-12 13:19:40.019148,599616685830668128,368.00
2025-06-12 13:19:40.019148,599616685830668128,382.00
2025-06-12 13:19:40.019148,599616685830668128,377.00
2025-06-12 13:19:40.019148,599616685830668128,331.00
2025-06-12 13:19:40.019148,599616685830668128,241.00
2025-06-12 13:19:40.019148,599616685830668128,116.00
2025-06-12 13:19:40.019148,599616685830668128,-14.00
2025-06-12 13:19:40.019148,599616685830668128,-121.00
2025-06-12 13:19:40.019148,599616685830668128,-199.00
2025-06-12 13:19:40.019148,599616685830668128,-253.00
2025-06-12 13:19:40.019148,599616685830668128,-280.00
2025-06-12 13:19:40.019148,599616685830668128,-294.00
2025-06-12 13:19:40.019148,599616685830668128,-292.00
2025-06-12 13:19:40.019148,599616685830668128,-285.00
2025-06-12 13:19:40.019148,599616685830668128,-280.00
2025-06-12 13:19:40.019148,599616685830668128,-275.00
2025-06-12 13:19:40.019148,599616685830668128,-265.00
2025-06-12 13:19:40.019148,599616685830668128,-253.00
2025-06-12 13:19:40.019148,599616685830668128,-241.00
2025-06-12 13:19:40.019148,599616685830668128,-233.00
2025-06-12 13:19:40.019148,599616685830668128,-226.00
2025-06-12 13:19:40.019148,599616685830668128,-216.00
2025-06-12 13:19:40.019148,599616685830668128,-219.00
2025-06-12 13:19:40.019148,599616685830668128,-209.00
2025-06-12 13:19:40.019148,599616685830668128,-192.00
2025-06-12 13:19:40.019148,599616685830668128,-185.00
2025-06-12 13:19:40.019148,599616685830668128,-187.00
2025-06-12 13:19:40.019148,599616685830668128,-185.00
2025-06-12 13:19:40.019148,599616685830668128,-173.00
2025-06-12 13:19:40.019148,599616685830668128,-165.00
2025-06-12 13:19:40.019148,599616685830668128,-165.00
2025-06-12 13:19:40.558006,599616686391304133,-163.00
2025-06-12 13:19:40.558006,599616686391304133,-160.00
2025-06-12 13:19:40.558006,599616686391304133,-158.00
2025-06-12 13:19:40.558006,599616686391304133,-153.00
2025-06-12 13:19:40.558006,599616686391304133,-153.00
2025-06-12 13:19:40.558006,599616686391304133,-151.00
2025-06-12 13:19:40.558006,599616686391304133,-146.00
2025-06-12 13:19:40.558006,599616686391304133,-143.00
2025-06-12 13:19:40.558006,599616686391304133,-146.00
2025-06-12 13:19:40.558006,599616686391304133,-141.00
2025-06-12 13:19:40.558006,599616686391304133,-136.00
2025-06-12 13:19:40.558006,599616686391304133,-134.00
2025-06-12 13:19:40.558006,599616686391304133,-138.00
2025-06-12 13:19:40.558006,599616686391304133,-141.00
2025-06-12 13:19:40.558006,599616686391304133,-138.00
2025-06-12 13:19:40.558006,599616686391304133,-131.00
2025-06-12 13:19:40.558006,599616686391304133,-129.00
2025-06-12 13:19:40.558006,599616686391304133,-134.00
2025-06-12 13:19:40.558006,599616686391304133,-131.00
2025-06-12 13:19:40.558006,599616686391304133,-124.00
2025-06-12 13:19:40.558006,599616686391304133,-124.00
2025-06-12 13:19:40.558006,599616686391304133,-126.00
2025-06-12 13:19:40.558006,599616686391304133,-119.00
2025-06-12 13:19:40.558006,599616686391304133,-119.00
2025-06-12 13:19:40.558006,599616686391304133,-124.00
2025-06-12 13:19:40.558006,599616686391304133,-121.00
2025-06-12 13:19:40.558006,599616686391304133,-114.00
2025-06-12 13:19:40.558006,599616686391304133,-114.00
2025-06-12 13:19:40.558006,599616686391304133,-114.00
2025-06-12 13:19:40.558006,599616686391304133,-112.00
2025-06-12 13:19:40.558006,599616686391304133,-114.00
2025-06-12 13:19:40.558006,599616686391304133,-112.00
2025-06-12 13:19:40.558006,599616686391304133,-97.00
2025-06-12 13:19:40.558006,599616686391304133,-80.00
2025-06-12 13:19:40.558006,599616686391304133,-68.00
2025-06-12 13:19:40.558006,599616686391304133,-68.00
2025-06-12 13:19:40.558006,599616686391304133,-77.00
2025-06-12 13:19:40.558006,599616686391304133,-99.00
2025-06-12 13:19:40.558006,599616686391304133,-116.00
2025-06-12 13:19:40.558006,599616686391304133,-121.00
2025-06-12 13:19:40.558006,599616686391304133,-119.00
2025-06-12 13:19:40.558006,599616686391304133,-116.00
2025-06-12 13:19:40.558006,599616686391304133,-114.00
2025-06-12 13:19:40.558006,599616686391304133,-114.00
2025-06-12 13:19:40.558006,599616686391304133,-114.00
2025-06-12 13:19:40.558006,599616686391304133,-112.00
2025-06-12 13:19:40.558006,599616686391304133,-124.00
2025-06-12 13:19:40.558006,599616686391304133,-190.00
2025-06-12 13:19:40.558006,599616686391304133,-243.00
2025-06-12 13:19:40.558006,599616686391304133,19.00
2025-06-12 13:19:40.558006,599616686391304133,723.00
2025-06-12 13:19:40.558006,599616686391304133,1191.00
2025-06-12 13:19:40.558006,599616686391304133,543.00
2025-06-12 13:19:40.558006,599616686391304133,-599.00
2025-06-12 13:19:40.558006,599616686391304133,-782.00
2025-06-12 13:19:40.558006,599616686391304133,-272.00
2025-06-12 13:19:40.558006,599616686391304133,-138.00
2025-06-12 13:19:40.558006,599616686391304133,-185.00
2025-06-12 13:19:40.558006,599616686391304133,-48.00
2025-06-12 13:19:40.558006,599616686391304133,-7.00
2025-06-12 13:19:40.558006,599616686391304133,-65.00
2025-06-12 13:19:40.558006,599616686391304133,-38.00
2025-06-12 13:19:40.558006,599616686391304133,-7.00
2025-06-12 13:19:40.558006,599616686391304133,-21.00
2025-06-12 13:19:40.558006,599616686391304133,-14.00
2025-06-12 13:19:40.558006,599616686391304133,12.00
2025-06-12 13:19:40.558006,599616686391304133,19.00
2025-06-12 13:19:40.558006,599616686391304133,24.00
2025-06-12 13:19:40.558006,599616686391304133,43.00
2025-06-12 13:19:40.558006,599616686391304133,63.00
2025-06-12 13:19:40.558006,599616686391304133,77.00
2025-06-12 13:19:40.558006,599616686391304133,99.00
2025-06-12 13:19:40.558006,599616686391304133,129.00
2025-06-12 13:19:41.128332,599616686951970656,155.00
2025-06-12 13:19:41.128332,599616686951970656,190.00
2025-06-12 13:19:41.128332,599616686951970656,231.00
2025-06-12 13:19:41.128332,599616686951970656,275.00
2025-06-12 13:19:41.128332,599616686951970656,311.00
2025-06-12 13:19:41.128332,599616686951970656,343.00
2025-06-12 13:19:41.128332,599616686951970656,365.00
2025-06-12 13:19:41.128332,599616686951970656,365.00
2025-06-12 13:19:41.128332,599616686951970656,338.00
2025-06-12 13:19:41.128332,599616686951970656,270.00
2025-06-12 13:19:41.128332,599616686951970656,155.00
2025-06-12 13:19:41.128332,599616686951970656,19.00
2025-06-12 13:19:41.128332,599616686951970656,-99.00
2025-06-12 13:19:41.128332,599616686951970656,-190.00
2025-06-12 13:19:41.128332,599616686951970656,-253.00
2025-06-12 13:19:41.128332,599616686951970656,-290.00
2025-06-12 13:19:41.128332,599616686951970656,-309.00
2025-06-12 13:19:41.128332,599616686951970656,-314.00
2025-06-12 13:19:41.128332,599616686951970656,-309.00
2025-06-12 13:19:41.128332,599616686951970656,-299.00
2025-06-12 13:19:41.128332,599616686951970656,-292.00
2025-06-12 13:19:41.128332,599616686951970656,-285.00
2025-06-12 13:19:41.128332,599616686951970656,-275.00
2025-06-12 13:19:41.128332,599616686951970656,-268.00
2025-06-12 13:19:41.128332,599616686951970656,-260.00
2025-06-12 13:19:41.128332,599616686951970656,-248.00
2025-06-12 13:19:41.128332,599616686951970656,-241.00
2025-06-12 13:19:41.128332,599616686951970656,-238.00
2025-06-12 13:19:41.128332,599616686951970656,-233.00
2025-06-12 13:19:41.128332,599616686951970656,-224.00
2025-06-12 13:19:41.128332,599616686951970656,-212.00
2025-06-12 13:19:41.128332,599616686951970656,-204.00
2025-06-12 13:19:41.128332,599616686951970656,-199.00
2025-06-12 13:19:41.128332,599616686951970656,-192.00
2025-06-12 13:19:41.128332,599616686951970656,-182.00
2025-06-12 13:19:41.128332,599616686951970656,-175.00
2025-06-12 13:19:41.128332,599616686951970656,-173.00
2025-06-12 13:19:41.128332,599616686951970656,-168.00
2025-06-12 13:19:41.128332,599616686951970656,-165.00
2025-06-12 13:19:41.128332,599616686951970656,-163.00
2025-06-12 13:19:41.128332,599616686951970656,-160.00
2025-06-12 13:19:41.128332,599616686951970656,-155.00
2025-06-12 13:19:41.128332,599616686951970656,-155.00
2025-06-12 13:19:41.128332,599616686951970656,-158.00
2025-06-12 13:19:41.128332,599616686951970656,-155.00
2025-06-12 13:19:41.128332,599616686951970656,-148.00
2025-06-12 13:19:41.128332,599616686951970656,-146.00
2025-06-12 13:19:41.128332,599616686951970656,-151.00
2025-06-12 13:19:41.128332,599616686951970656,-148.00
2025-06-12 13:19:41.128332,599616686951970656,-143.00
2025-06-12 13:19:41.128332,599616686951970656,-143.00
2025-06-12 13:19:41.128332,599616686951970656,-141.00
2025-06-12 13:19:41.128332,599616686951970656,-141.00
2025-06-12 13:19:41.128332,599616686951970656,-141.00
2025-06-12 13:19:41.128332,599616686951970656,-138.00
2025-06-12 13:19:41.128332,599616686951970656,-131.00
2025-06-12 13:19:41.128332,599616686951970656,-131.00
2025-06-12 13:19:41.128332,599616686951970656,-134.00
2025-06-12 13:19:41.128332,599616686951970656,-136.00
2025-06-12 13:19:41.128332,599616686951970656,-131.00
2025-06-12 13:19:41.128332,599616686951970656,-126.00
2025-06-12 13:19:41.128332,599616686951970656,-126.00
2025-06-12 13:19:41.128332,599616686951970656,-126.00
2025-06-12 13:19:41.128332,599616686951970656,-124.00
2025-06-12 13:19:41.128332,599616686951970656,-119.00
2025-06-12 13:19:41.128332,599616686951970656,-121.00
2025-06-12 13:19:41.128332,599616686951970656,-124.00
2025-06-12 13:19:41.128332,599616686951970656,-119.00
2025-06-12 13:19:41.128332,599616686951970656,-114.00
2025-06-12 13:19:41.128332,599616686951970656,-114.00
2025-06-12 13:19:41.128332,599616686951970656,-109.00
2025-06-12 13:19:41.128332,599616686951970656,-92.00
2025-06-12 13:19:41.128332,599616686951970656,-75.00
2025-06-12 13:19:41.728013,599616687512637181,-70.00
2025-06-12 13:19:41.728013,599616687512637181,-80.00
2025-06-12 13:19:41.728013,599616687512637181,-102.00
2025-06-12 13:19:41.728013,599616687512637181,-119.00
2025-06-12 13:19:41.728013,599616687512637181,-121.00
2025-06-12 13:19:41.728013,599616687512637181,-114.00
2025-06-12 13:19:41.728013,599616687512637181,-114.00
2025-06-12 13:19:41.728013,599616687512637181,-114.00
2025-06-12 13:19:41.728013,599616687512637181,-109.00
2025-06-12 13:19:41.728013,599616687512637181,-107.00
2025-06-12 13:19:41.728013,599616687512637181,-107.00
2025-06-12 13:19:41.728013,599616687512637181,-124.00
2025-06-12 13:19:41.728013,599616687512637181,-199.00
2025-06-12 13:19:41.728013,599616687512637181,-233.00
2025-06-12 13:19:41.728013,599616687512637181,104.00
2025-06-12 13:19:41.728013,599616687512637181,862.00
2025-06-12 13:19:41.728013,599616687512637181,1240.00
2025-06-12 13:19:41.728013,599616687512637181,436.00
2025-06-12 13:19:41.728013,599616687512637181,-675.00
2025-06-12 13:19:41.728013,599616687512637181,-689.00
2025-06-12 13:19:41.728013,599616687512637181,-180.00
2025-06-12 13:19:41.728013,599616687512637181,-131.00
2025-06-12 13:19:41.728013,599616687512637181,-165.00
2025-06-12 13:19:41.728013,599616687512637181,-29.00
2025-06-12 13:19:41.728013,599616687512637181,-19.00
2025-06-12 13:19:41.728013,599616687512637181,-70.00
2025-06-12 13:19:41.728013,599616687512637181,-31.00
2025-06-12 13:19:41.728013,599616687512637181,-4.00
2025-06-12 13:19:41.728013,599616687512637181,-17.00
2025-06-12 13:19:41.728013,599616687512637181,-7.00
2025-06-12 13:19:41.728013,599616687512637181,9.00
2025-06-12 13:19:41.728013,599616687512637181,19.00
2025-06-12 13:19:41.728013,599616687512637181,34.00
2025-06-12 13:19:41.728013,599616687512637181,48.00
2025-06-12 13:19:41.728013,599616687512637181,58.00
2025-06-12 13:19:41.728013,599616687512637181,80.00
2025-06-12 13:19:41.728013,599616687512637181,102.00
2025-06-12 13:19:41.728013,599616687512637181,126.00
2025-06-12 13:19:41.728013,599616687512637181,158.00
2025-06-12 13:19:41.728013,599616687512637181,204.00
2025-06-12 13:19:41.728013,599616687512637181,255.00
2025-06-12 13:19:41.728013,599616687512637181,287.00
2025-06-12 13:19:41.728013,599616687512637181,307.00
2025-06-12 13:19:41.728013,599616687512637181,341.00
2025-06-12 13:19:41.728013,599616687512637181,375.00
2025-06-12 13:19:41.728013,599616687512637181,377.00
2025-06-12 13:19:41.728013,599616687512637181,341.00
2025-06-12 13:19:41.728013,599616687512637181,280.00
2025-06-12 13:19:41.728013,599616687512637181,170.00
2025-06-12 13:19:41.728013,599616687512637181,31.00
2025-06-12 13:19:41.728013,599616687512637181,-90.00
2025-06-12 13:19:41.728013,599616687512637181,-180.00
2025-06-12 13:19:41.728013,599616687512637181,-246.00
2025-06-12 13:19:41.728013,599616687512637181,-277.00
2025-06-12 13:19:41.728013,599616687512637181,-297.00
2025-06-12 13:19:41.728013,599616687512637181,-304.00
2025-06-12 13:19:41.728013,599616687512637181,-292.00
2025-06-12 13:19:41.728013,599616687512637181,-285.00
2025-06-12 13:19:41.728013,599616687512637181,-285.00
2025-06-12 13:19:41.728013,599616687512637181,-275.00
2025-06-12 13:19:41.728013,599616687512637181,-258.00
2025-06-12 13:19:41.728013,599616687512637181,-248.00
2025-06-12 13:19:41.728013,599616687512637181,-246.00
2025-06-12 13:19:41.728013,599616687512637181,-241.00
2025-06-12 13:19:41.728013,599616687512637181,-231.00
2025-06-12 13:19:41.728013,599616687512637181,-226.00
2025-06-12 13:19:41.728013,599616687512637181,-214.00
2025-06-12 13:19:41.728013,599616687512637181,-202.00
2025-06-12 13:19:41.728013,599616687512637181,-197.00
2025-06-12 13:19:41.728013,599616687512637181,-197.00
2025-06-12 13:19:41.728013,599616687512637181,-192.00
2025-06-12 13:19:41.728013,599616687512637181,-185.00
2025-06-12 13:19:41.728013,599616687512637181,-180.00
2025-06-12 13:19:42.302354,599616688073273186,-173.00
2025-06-12 13:19:42.302354,599616688073273186,-165.00
2025-06-12 13:19:42.302354,599616688073273186,-165.00
2025-06-12 13:19:42.302354,599616688073273186,-165.00
2025-06-12 13:19:42.302354,599616688073273186,-155.00
2025-06-12 13:19:42.302354,599616688073273186,-153.00
2025-06-12 13:19:42.302354,599616688073273186,-158.00
2025-06-12 13:19:42.302354,599616688073273186,-153.00
2025-06-12 13:19:42.302354,599616688073273186,-146.00
2025-06-12 13:19:42.302354,599616688073273186,-146.00
2025-06-12 13:19:42.302354,599616688073273186,-143.00
2025-06-12 13:19:42.302354,599616688073273186,-141.00
2025-06-12 13:19:42.302354,599616688073273186,-143.00
2025-06-12 13:19:42.302354,599616688073273186,-146.00
2025-06-12 13:19:42.302354,599616688073273186,-146.00
2025-06-12 13:19:42.302354,599616688073273186,-141.00
2025-06-12 13:19:42.302354,599616688073273186,-131.00
2025-06-12 13:19:42.302354,599616688073273186,-134.00
2025-06-12 13:19:42.302354,599616688073273186,-136.00
2025-06-12 13:19:42.302354,599616688073273186,-129.00
2025-06-12 13:19:42.302354,599616688073273186,-126.00
2025-06-12 13:19:42.302354,599616688073273186,-131.00
2025-06-12 13:19:42.302354,599616688073273186,-131.00
2025-06-12 13:19:42.302354,599616688073273186,-124.00
2025-06-12 13:19:42.302354,599616688073273186,-124.00
2025-06-12 13:19:42.302354,599616688073273186,-121.00
2025-06-12 13:19:42.302354,599616688073273186,-116.00
2025-06-12 13:19:42.302354,599616688073273186,-119.00
2025-06-12 13:19:42.302354,599616688073273186,-119.00
2025-06-12 13:19:42.302354,599616688073273186,-119.00
2025-06-12 13:19:42.302354,599616688073273186,-109.00
2025-06-12 13:19:42.302354,599616688073273186,-99.00
2025-06-12 13:19:42.302354,599616688073273186,-102.00
2025-06-12 13:19:42.302354,599616688073273186,-107.00
2025-06-12 13:19:42.302354,599616688073273186,-104.00
2025-06-12 13:19:42.302354,599616688073273186,-97.00
2025-06-12 13:19:42.302354,599616688073273186,-77.00
2025-06-12 13:19:42.302354,599616688073273186,-60.00
2025-06-12 13:19:42.302354,599616688073273186,-75.00
2025-06-12 13:19:42.302354,599616688073273186,-104.00
2025-06-12 13:19:42.302354,599616688073273186,-116.00
2025-06-12 13:19:42.302354,599616688073273186,-114.00
2025-06-12 13:19:42.302354,599616688073273186,-112.00
2025-06-12 13:19:42.302354,599616688073273186,-104.00
2025-06-12 13:19:42.302354,599616688073273186,-104.00
2025-06-12 13:19:42.302354,599616688073273186,-109.00
2025-06-12 13:19:42.302354,599616688073273186,-104.00
2025-06-12 13:19:42.302354,599616688073273186,-104.00
2025-06-12 13:19:42.302354,599616688073273186,-163.00
2025-06-12 13:19:42.302354,599616688073273186,-241.00
2025-06-12 13:19:42.302354,599616688073273186,-73.00
2025-06-12 13:19:42.302354,599616688073273186,565.00
2025-06-12 13:19:42.302354,599616688073273186,1194.00
2025-06-12 13:19:42.302354,599616688073273186,821.00
2025-06-12 13:19:42.302354,599616688073273186,-363.00
2025-06-12 13:19:42.302354,599616688073273186,-831.00
2025-06-12 13:19:42.302354,599616688073273186,-360.00
2025-06-12 13:19:42.302354,599616688073273186,-114.00
2025-06-12 13:19:42.302354,599616688073273186,-187.00
2025-06-12 13:19:42.302354,599616688073273186,-80.00
2025-06-12 13:19:42.302354,599616688073273186,2.00
2025-06-12 13:19:42.302354,599616688073273186,-60.00
2025-06-12 13:19:42.302354,599616688073273186,-53.00
2025-06-12 13:19:42.302354,599616688073273186,-7.00
2025-06-12 13:19:42.302354,599616688073273186,-12.00
2025-06-12 13:19:42.302354,599616688073273186,-12.00
2025-06-12 13:19:42.302354,599616688073273186,7.00
2025-06-12 13:19:42.302354,599616688073273186,17.00
2025-06-12 13:19:42.302354,599616688073273186,29.00
2025-06-12 13:19:42.302354,599616688073273186,43.00
2025-06-12 13:19:42.302354,599616688073273186,58.00
2025-06-12 13:19:42.302354,599616688073273186,75.00
2025-06-12 13:19:42.302354,599616688073273186,99.00
2025-06-12 13:19:42.839107,599616688633939709,126.00
2025-06-12 13:19:42.839107,599616688633939709,153.00
2025-06-12 13:19:42.839107,599616688633939709,185.00
2025-06-12 13:19:42.839107,599616688633939709,224.00
2025-06-12 13:19:42.839107,599616688633939709,268.00
2025-06-12 13:19:42.839107,599616688633939709,307.00
2025-06-12 13:19:42.839107,599616688633939709,336.00
2025-06-12 13:19:42.839107,599616688633939709,363.00
2025-06-12 13:19:42.839107,599616688633939709,377.00
2025-06-12 13:19:42.839107,599616688633939709,365.00
2025-06-12 13:19:42.839107,599616688633939709,304.00
2025-06-12 13:19:42.839107,599616688633939709,197.00
2025-06-12 13:19:42.839107,599616688633939709,65.00
2025-06-12 13:19:42.839107,599616688633939709,-58.00
2025-06-12 13:19:42.839107,599616688633939709,-158.00
2025-06-12 13:19:42.839107,599616688633939709,-231.00
2025-06-12 13:19:42.839107,599616688633939709,-272.00
2025-06-12 13:19:42.839107,599616688633939709,-294.00
2025-06-12 13:19:42.839107,599616688633939709,-304.00
2025-06-12 13:19:42.839107,599616688633939709,-302.00
2025-06-12 13:19:42.839107,599616688633939709,-294.00
2025-06-12 13:19:42.839107,599616688633939709,-285.00
2025-06-12 13:19:42.839107,599616688633939709,-272.00
2025-06-12 13:19:42.839107,599616688633939709,-263.00
2025-06-12 13:19:42.839107,599616688633939709,-253.00
2025-06-12 13:19:42.839107,599616688633939709,-248.00
2025-06-12 13:19:42.839107,599616688633939709,-243.00
2025-06-12 13:19:42.839107,599616688633939709,-236.00
2025-06-12 13:19:42.839107,599616688633939709,-224.00
2025-06-12 13:19:42.839107,599616688633939709,-214.00
2025-06-12 13:19:42.839107,599616688633939709,-212.00
2025-06-12 13:19:42.839107,599616688633939709,-204.00
2025-06-12 13:19:42.839107,599616688633939709,-194.00
2025-06-12 13:19:42.839107,599616688633939709,-192.00
2025-06-12 13:19:42.839107,599616688633939709,-187.00
2025-06-12 13:19:42.839107,599616688633939709,-180.00
2025-06-12 13:19:42.839107,599616688633939709,-175.00
2025-06-12 13:19:42.839107,599616688633939709,-170.00
2025-06-12 13:19:42.839107,599616688633939709,-165.00
2025-06-12 13:19:42.839107,599616688633939709,-160.00
2025-06-12 13:19:42.839107,599616688633939709,-158.00
2025-06-12 13:19:42.839107,599616688633939709,-153.00
2025-06-12 13:19:42.839107,599616688633939709,-151.00
2025-06-12 13:19:42.839107,599616688633939709,-151.00
2025-06-12 13:19:42.839107,599616688633939709,-148.00
2025-06-12 13:19:42.839107,599616688633939709,-148.00
2025-06-12 13:19:42.839107,599616688633939709,-151.00
2025-06-12 13:19:42.839107,599616688633939709,-148.00
2025-06-12 13:19:42.839107,599616688633939709,-148.00
2025-06-12 13:19:42.839107,599616688633939709,-146.00
2025-06-12 13:19:42.839107,599616688633939709,-141.00
2025-06-12 13:19:42.839107,599616688633939709,-141.00
2025-06-12 13:19:42.839107,599616688633939709,-143.00
2025-06-12 13:19:42.839107,599616688633939709,-138.00
2025-06-12 13:19:42.839107,599616688633939709,-136.00
2025-06-12 13:19:42.839107,599616688633939709,-134.00
2025-06-12 13:19:42.839107,599616688633939709,-134.00
2025-06-12 13:19:42.839107,599616688633939709,-131.00
2025-06-12 13:19:42.839107,599616688633939709,-129.00
2025-06-12 13:19:42.839107,599616688633939709,-124.00
2025-06-12 13:19:42.839107,599616688633939709,-124.00
2025-06-12 13:19:42.839107,599616688633939709,-129.00
2025-06-12 13:19:42.839107,599616688633939709,-124.00
2025-06-12 13:19:42.839107,599616688633939709,-119.00
2025-06-12 13:19:42.839107,599616688633939709,-119.00
2025-06-12 13:19:42.839107,599616688633939709,-121.00
2025-06-12 13:19:42.839107,599616688633939709,-119.00
2025-06-12 13:19:42.839107,599616688633939709,-114.00
2025-06-12 13:19:42.839107,599616688633939709,-112.00
2025-06-12 13:19:42.839107,599616688633939709,-109.00
2025-06-12 13:19:42.839107,599616688633939709,-112.00
2025-06-12 13:19:42.839107,599616688633939709,-112.00
2025-06-12 13:19:42.839107,599616688633939709,-109.00
2025-06-12 13:19:43.380187,599616689194606232,-104.00
2025-06-12 13:19:43.380187,599616689194606232,-99.00
2025-06-12 13:19:43.380187,599616689194606232,-102.00
2025-06-12 13:19:43.380187,599616689194606232,-107.00
2025-06-12 13:19:43.380187,599616689194606232,-102.00
2025-06-12 13:19:43.380187,599616689194606232,-92.00
2025-06-12 13:19:43.380187,599616689194606232,-70.00
2025-06-12 13:19:43.380187,599616689194606232,-60.00
2025-06-12 13:19:43.380187,599616689194606232,-82.00
2025-06-12 13:19:43.380187,599616689194606232,-107.00
2025-06-12 13:19:43.380187,599616689194606232,-109.00
2025-06-12 13:19:43.380187,599616689194606232,-107.00
2025-06-12 13:19:43.380187,599616689194606232,-109.00
2025-06-12 13:19:43.380187,599616689194606232,-104.00
2025-06-12 13:19:43.380187,599616689194606232,-97.00
2025-06-12 13:19:43.380187,599616689194606232,-97.00
2025-06-12 13:19:43.380187,599616689194606232,-99.00
2025-06-12 13:19:43.380187,599616689194606232,-109.00
2025-06-12 13:19:43.380187,599616689194606232,-175.00
2025-06-12 13:19:43.380187,599616689194606232,-241.00
2025-06-12 13:19:43.380187,599616689194606232,-2.00
2025-06-12 13:19:43.380187,599616689194606232,709.00
2025-06-12 13:19:43.380187,599616689194606232,1269.00
2025-06-12 13:19:43.380187,599616689194606232,704.00
2025-06-12 13:19:43.380187,599616689194606232,-494.00
2025-06-12 13:19:43.380187,599616689194606232,-762.00
2025-06-12 13:19:43.380187,599616689194606232,-251.00
2025-06-12 13:19:43.380187,599616689194606232,-102.00
2025-06-12 13:19:43.380187,599616689194606232,-168.00
2025-06-12 13:19:43.380187,599616689194606232,-53.00
2025-06-12 13:19:43.380187,599616689194606232,-9.00
2025-06-12 13:19:43.380187,599616689194606232,-65.00
2025-06-12 13:19:43.380187,599616689194606232,-43.00
2025-06-12 13:19:43.380187,599616689194606232,-9.00
2025-06-12 13:19:43.380187,599616689194606232,-19.00
2025-06-12 13:19:43.380187,599616689194606232,-9.00
2025-06-12 13:19:43.380187,599616689194606232,7.00
2025-06-12 13:19:43.380187,599616689194606232,14.00
2025-06-12 13:19:43.380187,599616689194606232,24.00
2025-06-12 13:19:43.380187,599616689194606232,41.00
2025-06-12 13:19:43.380187,599616689194606232,56.00
2025-06-12 13:19:43.380187,599616689194606232,73.00
2025-06-12 13:19:43.380187,599616689194606232,95.00
2025-06-12 13:19:43.380187,599616689194606232,116.00
2025-06-12 13:19:43.380187,599616689194606232,146.00
2025-06-12 13:19:43.380187,599616689194606232,180.00
2025-06-12 13:19:43.380187,599616689194606232,219.00
2025-06-12 13:19:43.380187,599616689194606232,258.00
2025-06-12 13:19:43.380187,599616689194606232,299.00
2025-06-12 13:19:43.380187,599616689194606232,336.00
2025-06-12 13:19:43.380187,599616689194606232,358.00
2025-06-12 13:19:43.380187,599616689194606232,368.00
2025-06-12 13:19:43.380187,599616689194606232,353.00
2025-06-12 13:19:43.380187,599616689194606232,302.00
2025-06-12 13:19:43.380187,599616689194606232,204.00
2025-06-12 13:19:43.380187,599616689194606232,77.00
2025-06-12 13:19:43.380187,599616689194606232,-48.00
2025-06-12 13:19:43.380187,599616689194606232,-148.00
2025-06-12 13:19:43.380187,599616689194606232,-219.00
2025-06-12 13:19:43.380187,599616689194606232,-265.00
2025-06-12 13:19:43.380187,599616689194606232,-287.00
2025-06-12 13:19:43.380187,599616689194606232,-297.00
2025-06-12 13:19:43.380187,599616689194606232,-297.00
2025-06-12 13:19:43.380187,599616689194606232,-290.00
2025-06-12 13:19:43.380187,599616689194606232,-280.00
2025-06-12 13:19:43.380187,599616689194606232,-270.00
2025-06-12 13:19:43.380187,599616689194606232,-263.00
2025-06-12 13:19:43.380187,599616689194606232,-253.00
2025-06-12 13:19:43.380187,599616689194606232,-243.00
2025-06-12 13:19:43.380187,599616689194606232,-231.00
2025-06-12 13:19:43.380187,599616689194606232,-224.00
2025-06-12 13:19:43.380187,599616689194606232,-216.00
2025-06-12 13:19:43.380187,599616689194606232,-209.00
2025-06-12 13:19:43.948722,599616689755272755,-204.00
2025-06-12 13:19:43.948722,599616689755272755,-197.00
2025-06-12 13:19:43.948722,599616689755272755,-190.00
2025-06-12 13:19:43.948722,599616689755272755,-182.00
2025-06-12 13:19:43.948722,599616689755272755,-177.00
2025-06-12 13:19:43.948722,599616689755272755,-175.00
2025-06-12 13:19:43.948722,599616689755272755,-170.00
2025-06-12 13:19:43.948722,599616689755272755,-160.00
2025-06-12 13:19:43.948722,599616689755272755,-153.00
2025-06-12 13:19:43.948722,599616689755272755,-151.00
2025-06-12 13:19:43.948722,599616689755272755,-151.00
2025-06-12 13:19:43.948722,599616689755272755,-148.00
2025-06-12 13:19:43.948722,599616689755272755,-143.00
2025-06-12 13:19:43.948722,599616689755272755,-141.00
2025-06-12 13:19:43.948722,599616689755272755,-138.00
2025-06-12 13:19:43.948722,599616689755272755,-136.00
2025-06-12 13:19:43.948722,599616689755272755,-134.00
2025-06-12 13:19:43.948722,599616689755272755,-131.00
2025-06-12 13:19:43.948722,599616689755272755,-131.00
2025-06-12 13:19:43.948722,599616689755272755,-131.00
2025-06-12 13:19:43.948722,599616689755272755,-134.00
2025-06-12 13:19:43.948722,599616689755272755,-126.00
2025-06-12 13:19:43.948722,599616689755272755,-124.00
2025-06-12 13:19:43.948722,599616689755272755,-126.00
2025-06-12 13:19:43.948722,599616689755272755,-126.00
2025-06-12 13:19:43.948722,599616689755272755,-119.00
2025-06-12 13:19:43.948722,599616689755272755,-119.00
2025-06-12 13:19:43.948722,599616689755272755,-119.00
2025-06-12 13:19:43.948722,599616689755272755,-119.00
2025-06-12 13:19:43.948722,599616689755272755,-119.00
2025-06-12 13:19:43.948722,599616689755272755,-116.00
2025-06-12 13:19:43.948722,599616689755272755,-116.00
2025-06-12 13:19:43.948722,599616689755272755,-119.00
2025-06-12 13:19:43.948722,599616689755272755,-116.00
2025-06-12 13:19:43.948722,599616689755272755,-112.00
2025-06-12 13:19:43.948722,599616689755272755,-109.00
2025-06-12 13:19:43.948722,599616689755272755,-114.00
2025-06-12 13:19:43.948722,599616689755272755,-109.00
2025-06-12 13:19:43.948722,599616689755272755,-99.00
2025-06-12 13:19:43.948722,599616689755272755,-99.00
2025-06-12 13:19:43.948722,599616689755272755,-109.00
2025-06-12 13:19:43.948722,599616689755272755,-109.00
2025-06-12 13:19:43.948722,599616689755272755,-107.00
2025-06-12 13:19:43.948722,599616689755272755,-104.00
2025-06-12 13:19:43.948722,599616689755272755,-102.00
2025-06-12 13:19:43.948722,599616689755272755,-97.00
2025-06-12 13:19:43.948722,599616689755272755,-97.00
2025-06-12 13:19:43.948722,599616689755272755,-102.00
2025-06-12 13:19:43.948722,599616689755272755,-109.00
2025-06-12 13:19:43.948722,599616689755272755,-102.00
2025-06-12 13:19:43.948722,599616689755272755,-85.00
2025-06-12 13:19:43.948722,599616689755272755,-70.00
2025-06-12 13:19:43.948722,599616689755272755,-65.00
2025-06-12 13:19:43.948722,599616689755272755,-60.00
2025-06-12 13:19:43.948722,599616689755272755,-65.00
2025-06-12 13:19:43.948722,599616689755272755,-80.00
2025-06-12 13:19:43.948722,599616689755272755,-95.00
2025-06-12 13:19:43.948722,599616689755272755,-104.00
2025-06-12 13:19:43.948722,599616689755272755,-102.00
2025-06-12 13:19:43.948722,599616689755272755,-104.00
2025-06-12 13:19:43.948722,599616689755272755,-107.00
2025-06-12 13:19:43.948722,599616689755272755,-102.00
2025-06-12 13:19:43.948722,599616689755272755,-92.00
2025-06-12 13:19:43.948722,599616689755272755,-97.00
2025-06-12 13:19:43.948722,599616689755272755,-119.00
2025-06-12 13:19:43.948722,599616689755272755,-187.00
2025-06-12 13:19:43.948722,599616689755272755,-204.00
2025-06-12 13:19:43.948722,599616689755272755,168.00
2025-06-12 13:19:43.948722,599616689755272755,926.00
2025-06-12 13:19:43.948722,599616689755272755,1213.00
2025-06-12 13:19:43.948722,599616689755272755,329.00
2025-06-12 13:19:43.948722,599616689755272755,-709.00
2025-06-12 13:19:43.948722,599616689755272755,-628.00
2025-06-12 13:19:44.488519,599616690315908760,-146.00
2025-06-12 13:19:44.488519,599616690315908760,-126.00
2025-06-12 13:19:44.488519,599616690315908760,-138.00
2025-06-12 13:19:44.488519,599616690315908760,-14.00
2025-06-12 13:19:44.488519,599616690315908760,-19.00
2025-06-12 13:19:44.488519,599616690315908760,-56.00
2025-06-12 13:19:44.488519,599616690315908760,-19.00
2025-06-12 13:19:44.488519,599616690315908760,0.00
2025-06-12 13:19:44.488519,599616690315908760,-4.00
2025-06-12 13:19:44.488519,599616690315908760,7.00
2025-06-12 13:19:44.488519,599616690315908760,17.00
2025-06-12 13:19:44.488519,599616690315908760,26.00
2025-06-12 13:19:44.488519,599616690315908760,43.00
2025-06-12 13:19:44.488519,599616690315908760,58.00
2025-06-12 13:19:44.488519,599616690315908760,70.00
2025-06-12 13:19:44.488519,599616690315908760,92.00
2025-06-12 13:19:44.488519,599616690315908760,121.00
2025-06-12 13:19:44.488519,599616690315908760,141.00
2025-06-12 13:19:44.488519,599616690315908760,163.00
2025-06-12 13:19:44.488519,599616690315908760,197.00
2025-06-12 13:19:44.488519,599616690315908760,246.00
2025-06-12 13:19:44.488519,599616690315908760,290.00
2025-06-12 13:19:44.488519,599616690315908760,324.00
2025-06-12 13:19:44.488519,599616690315908760,355.00
2025-06-12 13:19:44.488519,599616690315908760,370.00
2025-06-12 13:19:44.488519,599616690315908760,372.00
2025-06-12 13:19:44.488519,599616690315908760,355.00
2025-06-12 13:19:44.488519,599616690315908760,302.00
2025-06-12 13:19:44.488519,599616690315908760,190.00
2025-06-12 13:19:44.488519,599616690315908760,46.00
2025-06-12 13:19:44.488519,599616690315908760,-68.00
2025-06-12 13:19:44.488519,599616690315908760,-148.00
2025-06-12 13:19:44.488519,599616690315908760,-216.00
2025-06-12 13:19:44.488519,599616690315908760,-270.00
2025-06-12 13:19:44.488519,599616690315908760,-294.00
2025-06-12 13:19:44.488519,599616690315908760,-292.00
2025-06-12 13:19:44.488519,599616690315908760,-297.00
2025-06-12 13:19:44.488519,599616690315908760,-297.00
2025-06-12 13:19:44.488519,599616690315908760,-275.00
2025-06-12 13:19:44.488519,599616690315908760,-258.00
2025-06-12 13:19:44.488519,599616690315908760,-260.00
2025-06-12 13:19:44.488519,599616690315908760,-258.00
2025-06-12 13:19:44.488519,599616690315908760,-236.00
2025-06-12 13:19:44.488519,599616690315908760,-224.00
2025-06-12 13:19:44.488519,599616690315908760,-226.00
2025-06-12 13:19:44.488519,599616690315908760,-219.00
2025-06-12 13:19:44.488519,599616690315908760,-212.00
2025-06-12 13:19:44.488519,599616690315908760,-209.00
2025-06-12 13:19:44.488519,599616690315908760,-199.00
2025-06-12 13:19:44.488519,599616690315908760,-190.00
2025-06-12 13:19:44.488519,599616690315908760,-187.00
2025-06-12 13:19:44.488519,599616690315908760,-180.00
2025-06-12 13:19:44.488519,599616690315908760,-173.00
2025-06-12 13:19:44.488519,599616690315908760,-177.00
2025-06-12 13:19:44.488519,599616690315908760,-177.00
2025-06-12 13:19:44.488519,599616690315908760,-163.00
2025-06-12 13:19:44.488519,599616690315908760,-158.00
2025-06-12 13:19:44.488519,599616690315908760,-163.00
2025-06-12 13:19:44.488519,599616690315908760,-158.00
2025-06-12 13:19:44.488519,599616690315908760,-155.00
2025-06-12 13:19:44.488519,599616690315908760,-155.00
2025-06-12 13:19:44.488519,599616690315908760,-151.00
2025-06-12 13:19:44.488519,599616690315908760,-155.00
2025-06-12 13:19:44.488519,599616690315908760,-151.00
2025-06-12 13:19:44.488519,599616690315908760,-138.00
2025-06-12 13:19:44.488519,599616690315908760,-143.00
2025-06-12 13:19:44.488519,599616690315908760,-148.00
2025-06-12 13:19:44.488519,599616690315908760,-141.00
2025-06-12 13:19:44.488519,599616690315908760,-138.00
2025-06-12 13:19:44.488519,599616690315908760,-141.00
2025-06-12 13:19:44.488519,599616690315908760,-138.00
2025-06-12 13:19:44.488519,599616690315908760,-134.00
2025-06-12 13:19:44.488519,599616690315908760,-126.00
2025-06-12 13:19:45.119261,599616690876575285,-126.00
2025-06-12 13:19:45.119261,599616690876575285,-131.00
2025-06-12 13:19:45.119261,599616690876575285,-126.00
2025-06-12 13:19:45.119261,599616690876575285,-124.00
2025-06-12 13:19:45.119261,599616690876575285,-129.00
2025-06-12 13:19:45.119261,599616690876575285,-124.00
2025-06-12 13:19:45.119261,599616690876575285,-116.00
2025-06-12 13:19:45.119261,599616690876575285,-114.00
2025-06-12 13:19:45.119261,599616690876575285,-116.00
2025-06-12 13:19:45.119261,599616690876575285,-112.00
2025-06-12 13:19:45.119261,599616690876575285,-112.00
2025-06-12 13:19:45.119261,599616690876575285,-121.00
2025-06-12 13:19:45.119261,599616690876575285,-119.00
2025-06-12 13:19:45.119261,599616690876575285,-107.00
2025-06-12 13:19:45.119261,599616690876575285,-112.00
2025-06-12 13:19:45.119261,599616690876575285,-119.00
2025-06-12 13:19:45.119261,599616690876575285,-109.00
2025-06-12 13:19:45.119261,599616690876575285,-92.00
2025-06-12 13:19:45.119261,599616690876575285,-82.00
2025-06-12 13:19:45.119261,599616690876575285,-68.00
2025-06-12 13:19:45.119261,599616690876575285,-60.00
2025-06-12 13:19:45.119261,599616690876575285,-82.00
2025-06-12 13:19:45.119261,599616690876575285,-112.00
2025-06-12 13:19:45.119261,599616690876575285,-114.00
2025-06-12 13:19:45.119261,599616690876575285,-112.00
2025-06-12 13:19:45.119261,599616690876575285,-119.00
2025-06-12 13:19:45.119261,599616690876575285,-116.00
2025-06-12 13:19:45.119261,599616690876575285,-112.00
2025-06-12 13:19:45.119261,599616690876575285,-109.00
2025-06-12 13:19:45.119261,599616690876575285,-104.00
2025-06-12 13:19:45.119261,599616690876575285,-107.00
2025-06-12 13:19:45.119261,599616690876575285,-141.00
2025-06-12 13:19:45.119261,599616690876575285,-221.00
2025-06-12 13:19:45.119261,599616690876575285,-202.00
2025-06-12 13:19:45.119261,599616690876575285,219.00
2025-06-12 13:19:45.119261,599616690876575285,950.00
2025-06-12 13:19:45.119261,599616690876575285,1121.00
2025-06-12 13:19:45.119261,599616690876575285,168.00
2025-06-12 13:19:45.119261,599616690876575285,-787.00
2025-06-12 13:19:45.119261,599616690876575285,-623.00
2025-06-12 13:19:45.119261,599616690876575285,-163.00
2025-06-12 13:19:45.119261,599616690876575285,-160.00
2025-06-12 13:19:45.119261,599616690876575285,-148.00
2025-06-12 13:19:45.119261,599616690876575285,-9.00
2025-06-12 13:19:45.119261,599616690876575285,-26.00
2025-06-12 13:19:45.119261,599616690876575285,-65.00
2025-06-12 13:19:45.119261,599616690876575285,-21.00
2025-06-12 13:19:45.119261,599616690876575285,-9.00
2025-06-12 13:19:45.119261,599616690876575285,-19.00
2025-06-12 13:19:45.119261,599616690876575285,2.00
2025-06-12 13:19:45.119261,599616690876575285,19.00
2025-06-12 13:19:45.119261,599616690876575285,21.00
2025-06-12 13:19:45.119261,599616690876575285,34.00
2025-06-12 13:19:45.119261,599616690876575285,51.00
2025-06-12 13:19:45.119261,599616690876575285,65.00
2025-06-12 13:19:45.119261,599616690876575285,82.00
2025-06-12 13:19:45.119261,599616690876575285,107.00
2025-06-12 13:19:45.119261,599616690876575285,138.00
2025-06-12 13:19:45.119261,599616690876575285,170.00
2025-06-12 13:19:45.119261,599616690876575285,204.00
2025-06-12 13:19:45.119261,599616690876575285,243.00
2025-06-12 13:19:45.119261,599616690876575285,282.00
2025-06-12 13:19:45.119261,599616690876575285,316.00
2025-06-12 13:19:45.119261,599616690876575285,343.00
2025-06-12 13:19:45.119261,599616690876575285,365.00
2025-06-12 13:19:45.119261,599616690876575285,368.00
2025-06-12 13:19:45.119261,599616690876575285,331.00
2025-06-12 13:19:45.119261,599616690876575285,258.00
2025-06-12 13:19:45.119261,599616690876575285,141.00
2025-06-12 13:19:45.119261,599616690876575285,2.00
2025-06-12 13:19:45.119261,599616690876575285,-114.00
2025-06-12 13:19:45.119261,599616690876575285,-192.00
2025-06-12 13:19:45.119261,599616690876575285,-251.00
2025-06-12 13:19:45.630670,599616691437241808,-290.00
2025-06-12 13:19:45.630670,599616691437241808,-309.00
2025-06-12 13:19:45.630670,599616691437241808,-314.00
2025-06-12 13:19:45.630670,599616691437241808,-304.00
2025-06-12 13:19:45.630670,599616691437241808,-294.00
2025-06-12 13:19:45.630670,599616691437241808,-294.00
2025-06-12 13:19:45.630670,599616691437241808,-285.00
2025-06-12 13:19:45.630670,599616691437241808,-265.00
2025-06-12 13:19:45.630670,599616691437241808,-255.00
2025-06-12 13:19:45.630670,599616691437241808,-258.00
2025-06-12 13:19:45.630670,599616691437241808,-253.00
2025-06-12 13:19:45.630670,599616691437241808,-241.00
2025-06-12 13:19:45.630670,599616691437241808,-229.00
2025-06-12 13:19:45.630670,599616691437241808,-224.00
2025-06-12 13:19:45.630670,599616691437241808,-219.00
2025-06-12 13:19:45.630670,599616691437241808,-209.00
2025-06-12 13:19:45.630670,599616691437241808,-202.00
2025-06-12 13:19:45.630670,599616691437241808,-194.00
2025-06-12 13:19:45.630670,599616691437241808,-190.00
2025-06-12 13:19:45.630670,599616691437241808,-182.00
2025-06-12 13:19:45.630670,599616691437241808,-177.00
2025-06-12 13:19:45.630670,599616691437241808,-177.00
2025-06-12 13:19:45.630670,599616691437241808,-175.00
2025-06-12 13:19:45.630670,599616691437241808,-165.00
2025-06-12 13:19:45.630670,599616691437241808,-155.00
2025-06-12 13:19:45.630670,599616691437241808,-153.00
2025-06-12 13:19:45.630670,599616691437241808,-158.00
2025-06-12 13:19:45.630670,599616691437241808,-160.00
2025-06-12 13:19:45.630670,599616691437241808,-158.00
2025-06-12 13:19:45.630670,599616691437241808,-155.00
2025-06-12 13:19:45.630670,599616691437241808,-155.00
2025-06-12 13:19:45.630670,599616691437241808,-153.00
2025-06-12 13:19:45.630670,599616691437241808,-148.00
2025-06-12 13:19:45.630670,599616691437241808,-148.00
2025-06-12 13:19:45.630670,599616691437241808,-148.00
2025-06-12 13:19:45.630670,599616691437241808,-146.00
2025-06-12 13:19:45.630670,599616691437241808,-141.00
2025-06-12 13:19:45.630670,599616691437241808,-138.00
2025-06-12 13:19:45.630670,599616691437241808,-136.00
2025-06-12 13:19:45.630670,599616691437241808,-138.00
2025-06-12 13:19:45.630670,599616691437241808,-138.00
2025-06-12 13:19:45.630670,599616691437241808,-138.00
2025-06-12 13:19:45.630670,599616691437241808,-134.00
2025-06-12 13:19:45.630670,599616691437241808,-129.00
2025-06-12 13:19:45.630670,599616691437241808,-129.00
2025-06-12 13:19:45.630670,599616691437241808,-129.00
2025-06-12 13:19:45.630670,599616691437241808,-126.00
2025-06-12 13:19:45.630670,599616691437241808,-124.00
2025-06-12 13:19:45.630670,599616691437241808,-126.00
2025-06-12 13:19:45.630670,599616691437241808,-121.00
2025-06-12 13:19:45.630670,599616691437241808,-116.00
2025-06-12 13:19:45.630670,599616691437241808,-116.00
2025-06-12 13:19:45.630670,599616691437241808,-119.00
2025-06-12 13:19:45.630670,599616691437241808,-114.00
2025-06-12 13:19:45.630670,599616691437241808,-112.00
2025-06-12 13:19:45.630670,599616691437241808,-114.00
2025-06-12 13:19:45.630670,599616691437241808,-109.00
2025-06-12 13:19:45.630670,599616691437241808,-107.00
2025-06-12 13:19:45.630670,599616691437241808,-114.00
2025-06-12 13:19:45.630670,599616691437241808,-116.00
2025-06-12 13:19:45.630670,599616691437241808,-104.00
2025-06-12 13:19:45.630670,599616691437241808,-87.00
2025-06-12 13:19:45.630670,599616691437241808,-70.00
2025-06-12 13:19:45.630670,599616691437241808,-65.00
2025-06-12 13:19:45.630670,599616691437241808,-82.00
2025-06-12 13:19:45.630670,599616691437241808,-107.00
2025-06-12 13:19:45.630670,599616691437241808,-114.00
2025-06-12 13:19:45.630670,599616691437241808,-114.00
2025-06-12 13:19:45.630670,599616691437241808,-112.00
2025-06-12 13:19:45.630670,599616691437241808,-109.00
2025-06-12 13:19:45.630670,599616691437241808,-107.00
2025-06-12 13:19:45.630670,599616691437241808,-107.00
2025-06-12 13:19:45.630670,599616691437241808,-104.00
2025-06-12 13:19:46.201577,599616691997908331,-112.00
2025-06-12 13:19:46.201577,599616691997908331,-165.00
2025-06-12 13:19:46.201577,599616691997908331,-246.00
2025-06-12 13:19:46.201577,599616691997908331,-85.00
2025-06-12 13:19:46.201577,599616691997908331,558.00
2025-06-12 13:19:46.201577,599616691997908331,1221.00
2025-06-12 13:19:46.201577,599616691997908331,872.00
2025-06-12 13:19:46.201577,599616691997908331,-333.00
2025-06-12 13:19:46.201577,599616691997908331,-816.00
2025-06-12 13:19:46.201577,599616691997908331,-343.00
2025-06-12 13:19:46.201577,599616691997908331,-97.00
2025-06-12 13:19:46.201577,599616691997908331,-170.00
2025-06-12 13:19:46.201577,599616691997908331,-73.00
2025-06-12 13:19:46.201577,599616691997908331,-2.00
2025-06-12 13:19:46.201577,599616691997908331,-60.00
2025-06-12 13:19:46.201577,599616691997908331,-48.00
2025-06-12 13:19:46.201577,599616691997908331,-4.00
2025-06-12 13:19:46.201577,599616691997908331,-12.00
2025-06-12 13:19:46.201577,599616691997908331,-12.00
2025-06-12 13:19:46.201577,599616691997908331,9.00
2025-06-12 13:19:46.201577,599616691997908331,17.00
2025-06-12 13:19:46.201577,599616691997908331,24.00
2025-06-12 13:19:46.201577,599616691997908331,38.00
2025-06-12 13:19:46.201577,599616691997908331,56.00
2025-06-12 13:19:46.201577,599616691997908331,73.00
2025-06-12 13:19:46.201577,599616691997908331,90.00
2025-06-12 13:19:46.201577,599616691997908331,112.00
2025-06-12 13:19:46.201577,599616691997908331,138.00
2025-06-12 13:19:46.201577,599616691997908331,170.00
2025-06-12 13:19:46.201577,599616691997908331,212.00
2025-06-12 13:19:46.201577,599616691997908331,253.00
2025-06-12 13:19:46.201577,599616691997908331,287.00
2025-06-12 13:19:46.201577,599616691997908331,319.00
2025-06-12 13:19:46.201577,599616691997908331,348.00
2025-06-12 13:19:46.201577,599616691997908331,363.00
2025-06-12 13:19:46.201577,599616691997908331,353.00
2025-06-12 13:19:46.201577,599616691997908331,311.00
2025-06-12 13:19:46.201577,599616691997908331,229.00
2025-06-12 13:19:46.201577,599616691997908331,107.00
2025-06-12 13:19:46.201577,599616691997908331,-21.00
2025-06-12 13:19:46.201577,599616691997908331,-129.00
2025-06-12 13:19:46.201577,599616691997908331,-207.00
2025-06-12 13:19:46.201577,599616691997908331,-258.00
2025-06-12 13:19:46.201577,599616691997908331,-287.00
2025-06-12 13:19:46.201577,599616691997908331,-297.00
2025-06-12 13:19:46.201577,599616691997908331,-297.00
2025-06-12 13:19:46.201577,599616691997908331,-292.00
2025-06-12 13:19:46.201577,599616691997908331,-285.00
2025-06-12 13:19:46.201577,599616691997908331,-277.00
2025-06-12 13:19:46.201577,599616691997908331,-268.00
2025-06-12 13:19:46.201577,599616691997908331,-255.00
2025-06-12 13:19:46.201577,599616691997908331,-246.00
2025-06-12 13:19:46.201577,599616691997908331,-241.00
2025-06-12 13:19:46.201577,599616691997908331,-229.00
2025-06-12 13:19:46.201577,599616691997908331,-219.00
2025-06-12 13:19:46.201577,599616691997908331,-214.00
2025-06-12 13:19:46.201577,599616691997908331,-207.00
2025-06-12 13:19:46.201577,599616691997908331,-199.00
2025-06-12 13:19:46.201577,599616691997908331,-192.00
2025-06-12 13:19:46.201577,599616691997908331,-190.00
2025-06-12 13:19:46.201577,599616691997908331,-185.00
2025-06-12 13:19:46.201577,599616691997908331,-180.00
2025-06-12 13:19:46.201577,599616691997908331,-175.00
2025-06-12 13:19:46.201577,599616691997908331,-170.00
2025-06-12 13:19:46.201577,599616691997908331,-165.00
2025-06-12 13:19:46.201577,599616691997908331,-160.00
2025-06-12 13:19:46.201577,599616691997908331,-155.00
2025-06-12 13:19:46.201577,599616691997908331,-153.00
2025-06-12 13:19:46.201577,599616691997908331,-148.00
2025-06-12 13:19:46.201577,599616691997908331,-143.00
2025-06-12 13:19:46.201577,599616691997908331,-143.00
2025-06-12 13:19:46.201577,599616691997908331,-141.00
2025-06-12 13:19:46.201577,599616691997908331,-138.00
