Timestamp,Device Timestamp (ns),ECG Value (uV)
2025-06-12 13:42:06.663958,599618032494425752,-104.00
2025-06-12 13:42:06.663958,599618032494425752,-102.00
2025-06-12 13:42:06.663958,599618032494425752,-99.00
2025-06-12 13:42:06.663958,599618032494425752,-97.00
2025-06-12 13:42:06.663958,599618032494425752,-95.00
2025-06-12 13:42:06.663958,599618032494425752,-92.00
2025-06-12 13:42:06.663958,599618032494425752,-87.00
2025-06-12 13:42:06.663958,599618032494425752,-87.00
2025-06-12 13:42:06.663958,599618032494425752,-87.00
2025-06-12 13:42:06.663958,599618032494425752,-87.00
2025-06-12 13:42:06.663958,599618032494425752,-90.00
2025-06-12 13:42:06.663958,599618032494425752,-87.00
2025-06-12 13:42:06.663958,599618032494425752,-75.00
2025-06-12 13:42:06.663958,599618032494425752,-63.00
2025-06-12 13:42:06.663958,599618032494425752,-46.00
2025-06-12 13:42:06.663958,599618032494425752,-36.00
2025-06-12 13:42:06.663958,599618032494425752,-51.00
2025-06-12 13:42:06.663958,599618032494425752,-70.00
2025-06-12 13:42:06.663958,599618032494425752,-77.00
2025-06-12 13:42:06.663958,599618032494425752,-77.00
2025-06-12 13:42:06.663958,599618032494425752,-75.00
2025-06-12 13:42:06.663958,599618032494425752,-73.00
2025-06-12 13:42:06.663958,599618032494425752,-65.00
2025-06-12 13:42:06.663958,599618032494425752,-58.00
2025-06-12 13:42:06.663958,599618032494425752,-63.00
2025-06-12 13:42:06.663958,599618032494425752,-73.00
2025-06-12 13:42:06.663958,599618032494425752,-124.00
2025-06-12 13:42:06.663958,599618032494425752,-207.00
2025-06-12 13:42:06.663958,599618032494425752,-41.00
2025-06-12 13:42:06.663958,599618032494425752,626.00
2025-06-12 13:42:06.663958,599618032494425752,1323.00
2025-06-12 13:42:06.663958,599618032494425752,982.00
2025-06-12 13:42:06.663958,599618032494425752,-265.00
2025-06-12 13:42:06.663958,599618032494425752,-816.00
2025-06-12 13:42:06.663958,599618032494425752,-348.00
2025-06-12 13:42:06.663958,599618032494425752,-65.00
2025-06-12 13:42:06.663958,599618032494425752,-126.00
2025-06-12 13:42:06.663958,599618032494425752,-21.00
2025-06-12 13:42:06.663958,599618032494425752,63.00
2025-06-12 13:42:06.663958,599618032494425752,2.00
2025-06-12 13:42:06.663958,599618032494425752,12.00
2025-06-12 13:42:06.663958,599618032494425752,58.00
2025-06-12 13:42:06.663958,599618032494425752,51.00
2025-06-12 13:42:06.663958,599618032494425752,53.00
2025-06-12 13:42:06.663958,599618032494425752,75.00
2025-06-12 13:42:06.663958,599618032494425752,82.00
2025-06-12 13:42:06.663958,599618032494425752,90.00
2025-06-12 13:42:06.663958,599618032494425752,109.00
2025-06-12 13:42:06.663958,599618032494425752,126.00
2025-06-12 13:42:06.663958,599618032494425752,143.00
2025-06-12 13:42:06.663958,599618032494425752,168.00
2025-06-12 13:42:06.663958,599618032494425752,194.00
2025-06-12 13:42:06.663958,599618032494425752,226.00
2025-06-12 13:42:06.663958,599618032494425752,260.00
2025-06-12 13:42:06.663958,599618032494425752,307.00
2025-06-12 13:42:06.663958,599618032494425752,350.00
2025-06-12 13:42:06.663958,599618032494425752,392.00
2025-06-12 13:42:06.663958,599618032494425752,428.00
2025-06-12 13:42:06.663958,599618032494425752,463.00
2025-06-12 13:42:06.663958,599618032494425752,482.00
2025-06-12 13:42:06.663958,599618032494425752,472.00
2025-06-12 13:42:06.663958,599618032494425752,419.00
2025-06-12 13:42:06.663958,599618032494425752,316.00
2025-06-12 13:42:06.663958,599618032494425752,177.00
2025-06-12 13:42:06.663958,599618032494425752,26.00
2025-06-12 13:42:06.663958,599618032494425752,-97.00
2025-06-12 13:42:06.663958,599618032494425752,-185.00
2025-06-12 13:42:06.663958,599618032494425752,-246.00
2025-06-12 13:42:06.663958,599618032494425752,-285.00
2025-06-12 13:42:06.663958,599618032494425752,-302.00
2025-06-12 13:42:06.663958,599618032494425752,-309.00
2025-06-12 13:42:06.663958,599618032494425752,-304.00
2025-06-12 13:42:06.663958,599618032494425752,-294.00
2025-06-12 13:42:07.232390,599618033055153311,-287.00
2025-06-12 13:42:07.232390,599618033055153311,-280.00
2025-06-12 13:42:07.232390,599618033055153311,-268.00
2025-06-12 13:42:07.232390,599618033055153311,-260.00
2025-06-12 13:42:07.232390,599618033055153311,-253.00
2025-06-12 13:42:07.232390,599618033055153311,-246.00
2025-06-12 13:42:07.232390,599618033055153311,-233.00
2025-06-12 13:42:07.232390,599618033055153311,-221.00
2025-06-12 13:42:07.232390,599618033055153311,-214.00
2025-06-12 13:42:07.232390,599618033055153311,-207.00
2025-06-12 13:42:07.232390,599618033055153311,-194.00
2025-06-12 13:42:07.232390,599618033055153311,-187.00
2025-06-12 13:42:07.232390,599618033055153311,-182.00
2025-06-12 13:42:07.232390,599618033055153311,-177.00
2025-06-12 13:42:07.232390,599618033055153311,-165.00
2025-06-12 13:42:07.232390,599618033055153311,-155.00
2025-06-12 13:42:07.232390,599618033055153311,-155.00
2025-06-12 13:42:07.232390,599618033055153311,-153.00
2025-06-12 13:42:07.232390,599618033055153311,-143.00
2025-06-12 13:42:07.232390,599618033055153311,-138.00
2025-06-12 13:42:07.232390,599618033055153311,-136.00
2025-06-12 13:42:07.232390,599618033055153311,-134.00
2025-06-12 13:42:07.232390,599618033055153311,-131.00
2025-06-12 13:42:07.232390,599618033055153311,-129.00
2025-06-12 13:42:07.232390,599618033055153311,-126.00
2025-06-12 13:42:07.232390,599618033055153311,-126.00
2025-06-12 13:42:07.232390,599618033055153311,-126.00
2025-06-12 13:42:07.232390,599618033055153311,-121.00
2025-06-12 13:42:07.232390,599618033055153311,-119.00
2025-06-12 13:42:07.232390,599618033055153311,-114.00
2025-06-12 13:42:07.232390,599618033055153311,-109.00
2025-06-12 13:42:07.232390,599618033055153311,-107.00
2025-06-12 13:42:07.232390,599618033055153311,-109.00
2025-06-12 13:42:07.232390,599618033055153311,-109.00
2025-06-12 13:42:07.232390,599618033055153311,-99.00
2025-06-12 13:42:07.232390,599618033055153311,-95.00
2025-06-12 13:42:07.232390,599618033055153311,-95.00
2025-06-12 13:42:07.232390,599618033055153311,-97.00
2025-06-12 13:42:07.232390,599618033055153311,-92.00
2025-06-12 13:42:07.232390,599618033055153311,-92.00
2025-06-12 13:42:07.232390,599618033055153311,-87.00
2025-06-12 13:42:07.232390,599618033055153311,-80.00
2025-06-12 13:42:07.232390,599618033055153311,-82.00
2025-06-12 13:42:07.232390,599618033055153311,-87.00
2025-06-12 13:42:07.232390,599618033055153311,-85.00
2025-06-12 13:42:07.232390,599618033055153311,-82.00
2025-06-12 13:42:07.232390,599618033055153311,-82.00
2025-06-12 13:42:07.232390,599618033055153311,-80.00
2025-06-12 13:42:07.232390,599618033055153311,-75.00
2025-06-12 13:42:07.232390,599618033055153311,-73.00
2025-06-12 13:42:07.232390,599618033055153311,-73.00
2025-06-12 13:42:07.232390,599618033055153311,-77.00
2025-06-12 13:42:07.232390,599618033055153311,-80.00
2025-06-12 13:42:07.232390,599618033055153311,-80.00
2025-06-12 13:42:07.232390,599618033055153311,-77.00
2025-06-12 13:42:07.232390,599618033055153311,-75.00
2025-06-12 13:42:07.232390,599618033055153311,-65.00
2025-06-12 13:42:07.232390,599618033055153311,-56.00
2025-06-12 13:42:07.232390,599618033055153311,-41.00
2025-06-12 13:42:07.232390,599618033055153311,-31.00
2025-06-12 13:42:07.232390,599618033055153311,-41.00
2025-06-12 13:42:07.232390,599618033055153311,-60.00
2025-06-12 13:42:07.232390,599618033055153311,-70.00
2025-06-12 13:42:07.232390,599618033055153311,-68.00
2025-06-12 13:42:07.232390,599618033055153311,-63.00
2025-06-12 13:42:07.232390,599618033055153311,-60.00
2025-06-12 13:42:07.232390,599618033055153311,-60.00
2025-06-12 13:42:07.232390,599618033055153311,-60.00
2025-06-12 13:42:07.232390,599618033055153311,-58.00
2025-06-12 13:42:07.232390,599618033055153311,-68.00
2025-06-12 13:42:07.232390,599618033055153311,-131.00
2025-06-12 13:42:07.232390,599618033055153311,-204.00
2025-06-12 13:42:07.232390,599618033055153311,12.00
2025-06-12 13:42:07.833912,599618033615880870,728.00
2025-06-12 13:42:07.833912,599618033615880870,1372.00
2025-06-12 13:42:07.833912,599618033615880870,894.00
2025-06-12 13:42:07.833912,599618033615880870,-375.00
2025-06-12 13:42:07.833912,599618033615880870,-779.00
2025-06-12 13:42:07.833912,599618033615880870,-263.00
2025-06-12 13:42:07.833912,599618033615880870,-51.00
2025-06-12 13:42:07.833912,599618033615880870,-116.00
2025-06-12 13:42:07.833912,599618033615880870,0.00
2025-06-12 13:42:07.833912,599618033615880870,58.00
2025-06-12 13:42:07.833912,599618033615880870,-4.00
2025-06-12 13:42:07.833912,599618033615880870,17.00
2025-06-12 13:42:07.833912,599618033615880870,60.00
2025-06-12 13:42:07.833912,599618033615880870,48.00
2025-06-12 13:42:07.833912,599618033615880870,51.00
2025-06-12 13:42:07.833912,599618033615880870,75.00
2025-06-12 13:42:07.833912,599618033615880870,85.00
2025-06-12 13:42:07.833912,599618033615880870,95.00
2025-06-12 13:42:07.833912,599618033615880870,114.00
2025-06-12 13:42:07.833912,599618033615880870,131.00
2025-06-12 13:42:07.833912,599618033615880870,143.00
2025-06-12 13:42:07.833912,599618033615880870,168.00
2025-06-12 13:42:07.833912,599618033615880870,197.00
2025-06-12 13:42:07.833912,599618033615880870,226.00
2025-06-12 13:42:07.833912,599618033615880870,258.00
2025-06-12 13:42:07.833912,599618033615880870,297.00
2025-06-12 13:42:07.833912,599618033615880870,346.00
2025-06-12 13:42:07.833912,599618033615880870,392.00
2025-06-12 13:42:07.833912,599618033615880870,431.00
2025-06-12 13:42:07.833912,599618033615880870,463.00
2025-06-12 13:42:07.833912,599618033615880870,485.00
2025-06-12 13:42:07.833912,599618033615880870,482.00
2025-06-12 13:42:07.833912,599618033615880870,436.00
2025-06-12 13:42:07.833912,599618033615880870,338.00
2025-06-12 13:42:07.833912,599618033615880870,202.00
2025-06-12 13:42:07.833912,599618033615880870,56.00
2025-06-12 13:42:07.833912,599618033615880870,-70.00
2025-06-12 13:42:07.833912,599618033615880870,-168.00
2025-06-12 13:42:07.833912,599618033615880870,-236.00
2025-06-12 13:42:07.833912,599618033615880870,-275.00
2025-06-12 13:42:07.833912,599618033615880870,-294.00
2025-06-12 13:42:07.833912,599618033615880870,-302.00
2025-06-12 13:42:07.833912,599618033615880870,-304.00
2025-06-12 13:42:07.833912,599618033615880870,-297.00
2025-06-12 13:42:07.833912,599618033615880870,-282.00
2025-06-12 13:42:07.833912,599618033615880870,-270.00
2025-06-12 13:42:07.833912,599618033615880870,-263.00
2025-06-12 13:42:07.833912,599618033615880870,-258.00
2025-06-12 13:42:07.833912,599618033615880870,-253.00
2025-06-12 13:42:07.833912,599618033615880870,-238.00
2025-06-12 13:42:07.833912,599618033615880870,-224.00
2025-06-12 13:42:07.833912,599618033615880870,-214.00
2025-06-12 13:42:07.833912,599618033615880870,-207.00
2025-06-12 13:42:07.833912,599618033615880870,-197.00
2025-06-12 13:42:07.833912,599618033615880870,-187.00
2025-06-12 13:42:07.833912,599618033615880870,-185.00
2025-06-12 13:42:07.833912,599618033615880870,-180.00
2025-06-12 13:42:07.833912,599618033615880870,-173.00
2025-06-12 13:42:07.833912,599618033615880870,-165.00
2025-06-12 13:42:07.833912,599618033615880870,-158.00
2025-06-12 13:42:07.833912,599618033615880870,-153.00
2025-06-12 13:42:07.833912,599618033615880870,-151.00
2025-06-12 13:42:07.833912,599618033615880870,-148.00
2025-06-12 13:42:07.833912,599618033615880870,-146.00
2025-06-12 13:42:07.833912,599618033615880870,-143.00
2025-06-12 13:42:07.833912,599618033615880870,-141.00
2025-06-12 13:42:07.833912,599618033615880870,-136.00
2025-06-12 13:42:07.833912,599618033615880870,-131.00
2025-06-12 13:42:07.833912,599618033615880870,-136.00
2025-06-12 13:42:07.833912,599618033615880870,-134.00
2025-06-12 13:42:07.833912,599618033615880870,-121.00
2025-06-12 13:42:07.833912,599618033615880870,-116.00
2025-06-12 13:42:07.833912,599618033615880870,-126.00
2025-06-12 13:42:08.373818,599618034176613517,-126.00
2025-06-12 13:42:08.373818,599618034176613517,-114.00
2025-06-12 13:42:08.373818,599618034176613517,-112.00
2025-06-12 13:42:08.373818,599618034176613517,-114.00
2025-06-12 13:42:08.373818,599618034176613517,-107.00
2025-06-12 13:42:08.373818,599618034176613517,-99.00
2025-06-12 13:42:08.373818,599618034176613517,-104.00
2025-06-12 13:42:08.373818,599618034176613517,-99.00
2025-06-12 13:42:08.373818,599618034176613517,-92.00
2025-06-12 13:42:08.373818,599618034176613517,-104.00
2025-06-12 13:42:08.373818,599618034176613517,-102.00
2025-06-12 13:42:08.373818,599618034176613517,-77.00
2025-06-12 13:42:08.373818,599618034176613517,-77.00
2025-06-12 13:42:08.373818,599618034176613517,-85.00
2025-06-12 13:42:08.373818,599618034176613517,-80.00
2025-06-12 13:42:08.373818,599618034176613517,-80.00
2025-06-12 13:42:08.373818,599618034176613517,-87.00
2025-06-12 13:42:08.373818,599618034176613517,-90.00
2025-06-12 13:42:08.373818,599618034176613517,-85.00
2025-06-12 13:42:08.373818,599618034176613517,-77.00
2025-06-12 13:42:08.373818,599618034176613517,-75.00
2025-06-12 13:42:08.373818,599618034176613517,-68.00
2025-06-12 13:42:08.373818,599618034176613517,-53.00
2025-06-12 13:42:08.373818,599618034176613517,-46.00
2025-06-12 13:42:08.373818,599618034176613517,-43.00
2025-06-12 13:42:08.373818,599618034176613517,-48.00
2025-06-12 13:42:08.373818,599618034176613517,-63.00
2025-06-12 13:42:08.373818,599618034176613517,-73.00
2025-06-12 13:42:08.373818,599618034176613517,-75.00
2025-06-12 13:42:08.373818,599618034176613517,-68.00
2025-06-12 13:42:08.373818,599618034176613517,-58.00
2025-06-12 13:42:08.373818,599618034176613517,-63.00
2025-06-12 13:42:08.373818,599618034176613517,-68.00
2025-06-12 13:42:08.373818,599618034176613517,-63.00
2025-06-12 13:42:08.373818,599618034176613517,-68.00
2025-06-12 13:42:08.373818,599618034176613517,-114.00
2025-06-12 13:42:08.373818,599618034176613517,-194.00
2025-06-12 13:42:08.373818,599618034176613517,-87.00
2025-06-12 13:42:08.373818,599618034176613517,514.00
2025-06-12 13:42:08.373818,599618034176613517,1269.00
2025-06-12 13:42:08.373818,599618034176613517,1106.00
2025-06-12 13:42:08.373818,599618034176613517,-104.00
2025-06-12 13:42:08.373818,599618034176613517,-816.00
2025-06-12 13:42:08.373818,599618034176613517,-414.00
2025-06-12 13:42:08.373818,599618034176613517,-63.00
2025-06-12 13:42:08.373818,599618034176613517,-119.00
2025-06-12 13:42:08.373818,599618034176613517,-43.00
2025-06-12 13:42:08.373818,599618034176613517,63.00
2025-06-12 13:42:08.373818,599618034176613517,12.00
2025-06-12 13:42:08.373818,599618034176613517,7.00
2025-06-12 13:42:08.373818,599618034176613517,58.00
2025-06-12 13:42:08.373818,599618034176613517,58.00
2025-06-12 13:42:08.373818,599618034176613517,51.00
2025-06-12 13:42:08.373818,599618034176613517,68.00
2025-06-12 13:42:08.373818,599618034176613517,75.00
2025-06-12 13:42:08.373818,599618034176613517,87.00
2025-06-12 13:42:08.373818,599618034176613517,116.00
2025-06-12 13:42:08.373818,599618034176613517,131.00
2025-06-12 13:42:08.373818,599618034176613517,141.00
2025-06-12 13:42:08.373818,599618034176613517,168.00
2025-06-12 13:42:08.373818,599618034176613517,192.00
2025-06-12 13:42:08.373818,599618034176613517,209.00
2025-06-12 13:42:08.373818,599618034176613517,255.00
2025-06-12 13:42:08.373818,599618034176613517,311.00
2025-06-12 13:42:08.373818,599618034176613517,355.00
2025-06-12 13:42:08.373818,599618034176613517,387.00
2025-06-12 13:42:08.373818,599618034176613517,428.00
2025-06-12 13:42:08.373818,599618034176613517,472.00
2025-06-12 13:42:08.373818,599618034176613517,489.00
2025-06-12 13:42:08.373818,599618034176613517,477.00
2025-06-12 13:42:08.373818,599618034176613517,441.00
2025-06-12 13:42:08.373818,599618034176613517,355.00
2025-06-12 13:42:08.373818,599618034176613517,216.00
2025-06-12 13:42:08.947895,599618034737366508,65.00
2025-06-12 13:42:08.947895,599618034737366508,-60.00
2025-06-12 13:42:08.947895,599618034737366508,-165.00
2025-06-12 13:42:08.947895,599618034737366508,-241.00
2025-06-12 13:42:08.947895,599618034737366508,-282.00
2025-06-12 13:42:08.947895,599618034737366508,-297.00
2025-06-12 13:42:08.947895,599618034737366508,-297.00
2025-06-12 13:42:08.947895,599618034737366508,-299.00
2025-06-12 13:42:08.947895,599618034737366508,-304.00
2025-06-12 13:42:08.947895,599618034737366508,-292.00
2025-06-12 13:42:08.947895,599618034737366508,-265.00
2025-06-12 13:42:08.947895,599618034737366508,-260.00
2025-06-12 13:42:08.947895,599618034737366508,-270.00
2025-06-12 13:42:08.947895,599618034737366508,-260.00
2025-06-12 13:42:08.947895,599618034737366508,-238.00
2025-06-12 13:42:08.947895,599618034737366508,-224.00
2025-06-12 13:42:08.947895,599618034737366508,-221.00
2025-06-12 13:42:08.947895,599618034737366508,-221.00
2025-06-12 13:42:08.947895,599618034737366508,-216.00
2025-06-12 13:42:08.947895,599618034737366508,-204.00
2025-06-12 13:42:08.947895,599618034737366508,-185.00
2025-06-12 13:42:08.947895,599618034737366508,-177.00
2025-06-12 13:42:08.947895,599618034737366508,-175.00
2025-06-12 13:42:08.947895,599618034737366508,-168.00
2025-06-12 13:42:08.947895,599618034737366508,-165.00
2025-06-12 13:42:08.947895,599618034737366508,-160.00
2025-06-12 13:42:08.947895,599618034737366508,-151.00
2025-06-12 13:42:08.947895,599618034737366508,-146.00
2025-06-12 13:42:08.947895,599618034737366508,-143.00
2025-06-12 13:42:08.947895,599618034737366508,-141.00
2025-06-12 13:42:08.947895,599618034737366508,-146.00
2025-06-12 13:42:08.947895,599618034737366508,-141.00
2025-06-12 13:42:08.947895,599618034737366508,-129.00
2025-06-12 13:42:08.947895,599618034737366508,-126.00
2025-06-12 13:42:08.947895,599618034737366508,-131.00
2025-06-12 13:42:08.947895,599618034737366508,-126.00
2025-06-12 13:42:08.947895,599618034737366508,-124.00
2025-06-12 13:42:08.947895,599618034737366508,-124.00
2025-06-12 13:42:08.947895,599618034737366508,-121.00
2025-06-12 13:42:08.947895,599618034737366508,-121.00
2025-06-12 13:42:08.947895,599618034737366508,-119.00
2025-06-12 13:42:08.947895,599618034737366508,-112.00
2025-06-12 13:42:08.947895,599618034737366508,-107.00
2025-06-12 13:42:08.947895,599618034737366508,-104.00
2025-06-12 13:42:08.947895,599618034737366508,-104.00
2025-06-12 13:42:08.947895,599618034737366508,-104.00
2025-06-12 13:42:08.947895,599618034737366508,-99.00
2025-06-12 13:42:08.947895,599618034737366508,-104.00
2025-06-12 13:42:08.947895,599618034737366508,-112.00
2025-06-12 13:42:08.947895,599618034737366508,-112.00
2025-06-12 13:42:08.947895,599618034737366508,-107.00
2025-06-12 13:42:08.947895,599618034737366508,-92.00
2025-06-12 13:42:08.947895,599618034737366508,-77.00
2025-06-12 13:42:08.947895,599618034737366508,-68.00
2025-06-12 13:42:08.947895,599618034737366508,-63.00
2025-06-12 13:42:08.947895,599618034737366508,-70.00
2025-06-12 13:42:08.947895,599618034737366508,-80.00
2025-06-12 13:42:08.947895,599618034737366508,-85.00
2025-06-12 13:42:08.947895,599618034737366508,-90.00
2025-06-12 13:42:08.947895,599618034737366508,-92.00
2025-06-12 13:42:08.947895,599618034737366508,-85.00
2025-06-12 13:42:08.947895,599618034737366508,-77.00
2025-06-12 13:42:08.947895,599618034737366508,-75.00
2025-06-12 13:42:08.947895,599618034737366508,-73.00
2025-06-12 13:42:08.947895,599618034737366508,-73.00
2025-06-12 13:42:08.947895,599618034737366508,-116.00
2025-06-12 13:42:08.947895,599618034737366508,-199.00
2025-06-12 13:42:08.947895,599618034737366508,-85.00
2025-06-12 13:42:08.947895,599618034737366508,526.00
2025-06-12 13:42:08.947895,599618034737366508,1264.00
2025-06-12 13:42:08.947895,599618034737366508,1057.00
2025-06-12 13:42:08.947895,599618034737366508,-163.00
2025-06-12 13:42:08.947895,599618034737366508,-843.00
2025-06-12 13:42:09.485366,599618035298109327,-431.00
2025-06-12 13:42:09.485366,599618035298109327,-85.00
2025-06-12 13:42:09.485366,599618035298109327,-136.00
2025-06-12 13:42:09.485366,599618035298109327,-51.00
2025-06-12 13:42:09.485366,599618035298109327,60.00
2025-06-12 13:42:09.485366,599618035298109327,12.00
2025-06-12 13:42:09.485366,599618035298109327,2.00
2025-06-12 13:42:09.485366,599618035298109327,51.00
2025-06-12 13:42:09.485366,599618035298109327,51.00
2025-06-12 13:42:09.485366,599618035298109327,43.00
2025-06-12 13:42:09.485366,599618035298109327,68.00
2025-06-12 13:42:09.485366,599618035298109327,82.00
2025-06-12 13:42:09.485366,599618035298109327,85.00
2025-06-12 13:42:09.485366,599618035298109327,102.00
2025-06-12 13:42:09.485366,599618035298109327,126.00
2025-06-12 13:42:09.485366,599618035298109327,141.00
2025-06-12 13:42:09.485366,599618035298109327,158.00
2025-06-12 13:42:09.485366,599618035298109327,190.00
2025-06-12 13:42:09.485366,599618035298109327,224.00
2025-06-12 13:42:09.485366,599618035298109327,255.00
2025-06-12 13:42:09.485366,599618035298109327,297.00
2025-06-12 13:42:09.485366,599618035298109327,346.00
2025-06-12 13:42:09.485366,599618035298109327,394.00
2025-06-12 13:42:09.485366,599618035298109327,433.00
2025-06-12 13:42:09.485366,599618035298109327,467.00
2025-06-12 13:42:09.485366,599618035298109327,485.00
2025-06-12 13:42:09.485366,599618035298109327,475.00
2025-06-12 13:42:09.485366,599618035298109327,416.00
2025-06-12 13:42:09.485366,599618035298109327,309.00
2025-06-12 13:42:09.485366,599618035298109327,168.00
2025-06-12 13:42:09.485366,599618035298109327,24.00
2025-06-12 13:42:09.485366,599618035298109327,-97.00
2025-06-12 13:42:09.485366,599618035298109327,-192.00
2025-06-12 13:42:09.485366,599618035298109327,-253.00
2025-06-12 13:42:09.485366,599618035298109327,-282.00
2025-06-12 13:42:09.485366,599618035298109327,-297.00
2025-06-12 13:42:09.485366,599618035298109327,-302.00
2025-06-12 13:42:09.485366,599618035298109327,-299.00
2025-06-12 13:42:09.485366,599618035298109327,-290.00
2025-06-12 13:42:09.485366,599618035298109327,-282.00
2025-06-12 13:42:09.485366,599618035298109327,-272.00
2025-06-12 13:42:09.485366,599618035298109327,-263.00
2025-06-12 13:42:09.485366,599618035298109327,-255.00
2025-06-12 13:42:09.485366,599618035298109327,-246.00
2025-06-12 13:42:09.485366,599618035298109327,-238.00
2025-06-12 13:42:09.485366,599618035298109327,-231.00
2025-06-12 13:42:09.485366,599618035298109327,-221.00
2025-06-12 13:42:09.485366,599618035298109327,-212.00
2025-06-12 13:42:09.485366,599618035298109327,-204.00
2025-06-12 13:42:09.485366,599618035298109327,-199.00
2025-06-12 13:42:09.485366,599618035298109327,-190.00
2025-06-12 13:42:09.485366,599618035298109327,-177.00
2025-06-12 13:42:09.485366,599618035298109327,-168.00
2025-06-12 13:42:09.485366,599618035298109327,-168.00
2025-06-12 13:42:09.485366,599618035298109327,-160.00
2025-06-12 13:42:09.485366,599618035298109327,-146.00
2025-06-12 13:42:09.485366,599618035298109327,-138.00
2025-06-12 13:42:09.485366,599618035298109327,-138.00
2025-06-12 13:42:09.485366,599618035298109327,-134.00
2025-06-12 13:42:09.485366,599618035298109327,-131.00
2025-06-12 13:42:09.485366,599618035298109327,-131.00
2025-06-12 13:42:09.485366,599618035298109327,-124.00
2025-06-12 13:42:09.485366,599618035298109327,-121.00
2025-06-12 13:42:09.485366,599618035298109327,-126.00
2025-06-12 13:42:09.485366,599618035298109327,-129.00
2025-06-12 13:42:09.485366,599618035298109327,-124.00
2025-06-12 13:42:09.485366,599618035298109327,-121.00
2025-06-12 13:42:09.485366,599618035298109327,-119.00
2025-06-12 13:42:09.485366,599618035298109327,-119.00
2025-06-12 13:42:09.485366,599618035298109327,-114.00
2025-06-12 13:42:09.485366,599618035298109327,-112.00
2025-06-12 13:42:09.485366,599618035298109327,-112.00
2025-06-12 13:42:09.485366,599618035298109327,-112.00
2025-06-12 13:42:10.053707,599618035858821626,-109.00
2025-06-12 13:42:10.053707,599618035858821626,-109.00
2025-06-12 13:42:10.053707,599618035858821626,-104.00
2025-06-12 13:42:10.053707,599618035858821626,-102.00
2025-06-12 13:42:10.053707,599618035858821626,-99.00
2025-06-12 13:42:10.053707,599618035858821626,-97.00
2025-06-12 13:42:10.053707,599618035858821626,-97.00
2025-06-12 13:42:10.053707,599618035858821626,-95.00
2025-06-12 13:42:10.053707,599618035858821626,-92.00
2025-06-12 13:42:10.053707,599618035858821626,-90.00
2025-06-12 13:42:10.053707,599618035858821626,-90.00
2025-06-12 13:42:10.053707,599618035858821626,-90.00
2025-06-12 13:42:10.053707,599618035858821626,-97.00
2025-06-12 13:42:10.053707,599618035858821626,-97.00
2025-06-12 13:42:10.053707,599618035858821626,-87.00
2025-06-12 13:42:10.053707,599618035858821626,-73.00
2025-06-12 13:42:10.053707,599618035858821626,-63.00
2025-06-12 13:42:10.053707,599618035858821626,-56.00
2025-06-12 13:42:10.053707,599618035858821626,-53.00
2025-06-12 13:42:10.053707,599618035858821626,-60.00
2025-06-12 13:42:10.053707,599618035858821626,-73.00
2025-06-12 13:42:10.053707,599618035858821626,-80.00
2025-06-12 13:42:10.053707,599618035858821626,-80.00
2025-06-12 13:42:10.053707,599618035858821626,-75.00
2025-06-12 13:42:10.053707,599618035858821626,-70.00
2025-06-12 13:42:10.053707,599618035858821626,-68.00
2025-06-12 13:42:10.053707,599618035858821626,-68.00
2025-06-12 13:42:10.053707,599618035858821626,-68.00
2025-06-12 13:42:10.053707,599618035858821626,-73.00
2025-06-12 13:42:10.053707,599618035858821626,-134.00
2025-06-12 13:42:10.053707,599618035858821626,-216.00
2025-06-12 13:42:10.053707,599618035858821626,-24.00
2025-06-12 13:42:10.053707,599618035858821626,677.00
2025-06-12 13:42:10.053707,599618035858821626,1360.00
2025-06-12 13:42:10.053707,599618035858821626,948.00
2025-06-12 13:42:10.053707,599618035858821626,-331.00
2025-06-12 13:42:10.053707,599618035858821626,-806.00
2025-06-12 13:42:10.053707,599618035858821626,-302.00
2025-06-12 13:42:10.053707,599618035858821626,-63.00
2025-06-12 13:42:10.053707,599618035858821626,-129.00
2025-06-12 13:42:10.053707,599618035858821626,-17.00
2025-06-12 13:42:10.053707,599618035858821626,48.00
2025-06-12 13:42:10.053707,599618035858821626,-14.00
2025-06-12 13:42:10.053707,599618035858821626,0.00
2025-06-12 13:42:10.053707,599618035858821626,43.00
2025-06-12 13:42:10.053707,599618035858821626,36.00
2025-06-12 13:42:10.053707,599618035858821626,41.00
2025-06-12 13:42:10.053707,599618035858821626,65.00
2025-06-12 13:42:10.053707,599618035858821626,75.00
2025-06-12 13:42:10.053707,599618035858821626,82.00
2025-06-12 13:42:10.053707,599618035858821626,102.00
2025-06-12 13:42:10.053707,599618035858821626,116.00
2025-06-12 13:42:10.053707,599618035858821626,134.00
2025-06-12 13:42:10.053707,599618035858821626,158.00
2025-06-12 13:42:10.053707,599618035858821626,185.00
2025-06-12 13:42:10.053707,599618035858821626,214.00
2025-06-12 13:42:10.053707,599618035858821626,251.00
2025-06-12 13:42:10.053707,599618035858821626,294.00
2025-06-12 13:42:10.053707,599618035858821626,341.00
2025-06-12 13:42:10.053707,599618035858821626,385.00
2025-06-12 13:42:10.053707,599618035858821626,428.00
2025-06-12 13:42:10.053707,599618035858821626,460.00
2025-06-12 13:42:10.053707,599618035858821626,477.00
2025-06-12 13:42:10.053707,599618035858821626,467.00
2025-06-12 13:42:10.053707,599618035858821626,419.00
2025-06-12 13:42:10.053707,599618035858821626,316.00
2025-06-12 13:42:10.053707,599618035858821626,175.00
2025-06-12 13:42:10.053707,599618035858821626,29.00
2025-06-12 13:42:10.053707,599618035858821626,-95.00
2025-06-12 13:42:10.053707,599618035858821626,-185.00
2025-06-12 13:42:10.053707,599618035858821626,-246.00
2025-06-12 13:42:10.053707,599618035858821626,-282.00
2025-06-12 13:42:10.053707,599618035858821626,-299.00
2025-06-12 13:42:10.593977,599618036419549185,-304.00
2025-06-12 13:42:10.593977,599618036419549185,-302.00
2025-06-12 13:42:10.593977,599618036419549185,-294.00
2025-06-12 13:42:10.593977,599618036419549185,-287.00
2025-06-12 13:42:10.593977,599618036419549185,-275.00
2025-06-12 13:42:10.593977,599618036419549185,-263.00
2025-06-12 13:42:10.593977,599618036419549185,-253.00
2025-06-12 13:42:10.593977,599618036419549185,-246.00
2025-06-12 13:42:10.593977,599618036419549185,-233.00
2025-06-12 13:42:10.593977,599618036419549185,-221.00
2025-06-12 13:42:10.593977,599618036419549185,-212.00
2025-06-12 13:42:10.593977,599618036419549185,-204.00
2025-06-12 13:42:10.593977,599618036419549185,-197.00
2025-06-12 13:42:10.593977,599618036419549185,-187.00
2025-06-12 13:42:10.593977,599618036419549185,-182.00
2025-06-12 13:42:10.593977,599618036419549185,-177.00
2025-06-12 13:42:10.593977,599618036419549185,-170.00
2025-06-12 13:42:10.593977,599618036419549185,-163.00
2025-06-12 13:42:10.593977,599618036419549185,-158.00
2025-06-12 13:42:10.593977,599618036419549185,-158.00
2025-06-12 13:42:10.593977,599618036419549185,-153.00
2025-06-12 13:42:10.593977,599618036419549185,-148.00
2025-06-12 13:42:10.593977,599618036419549185,-148.00
2025-06-12 13:42:10.593977,599618036419549185,-148.00
2025-06-12 13:42:10.593977,599618036419549185,-146.00
2025-06-12 13:42:10.593977,599618036419549185,-143.00
2025-06-12 13:42:10.593977,599618036419549185,-141.00
2025-06-12 13:42:10.593977,599618036419549185,-141.00
2025-06-12 13:42:10.593977,599618036419549185,-136.00
2025-06-12 13:42:10.593977,599618036419549185,-129.00
2025-06-12 13:42:10.593977,599618036419549185,-126.00
2025-06-12 13:42:10.593977,599618036419549185,-126.00
2025-06-12 13:42:10.593977,599618036419549185,-121.00
2025-06-12 13:42:10.593977,599618036419549185,-119.00
2025-06-12 13:42:10.593977,599618036419549185,-114.00
2025-06-12 13:42:10.593977,599618036419549185,-109.00
2025-06-12 13:42:10.593977,599618036419549185,-107.00
2025-06-12 13:42:10.593977,599618036419549185,-104.00
2025-06-12 13:42:10.593977,599618036419549185,-97.00
2025-06-12 13:42:10.593977,599618036419549185,-92.00
2025-06-12 13:42:10.593977,599618036419549185,-90.00
2025-06-12 13:42:10.593977,599618036419549185,-85.00
2025-06-12 13:42:10.593977,599618036419549185,-77.00
2025-06-12 13:42:10.593977,599618036419549185,-75.00
2025-06-12 13:42:10.593977,599618036419549185,-73.00
2025-06-12 13:42:10.593977,599618036419549185,-73.00
2025-06-12 13:42:10.593977,599618036419549185,-77.00
2025-06-12 13:42:10.593977,599618036419549185,-80.00
2025-06-12 13:42:10.593977,599618036419549185,-77.00
2025-06-12 13:42:10.593977,599618036419549185,-68.00
2025-06-12 13:42:10.593977,599618036419549185,-58.00
2025-06-12 13:42:10.593977,599618036419549185,-48.00
2025-06-12 13:42:10.593977,599618036419549185,-38.00
2025-06-12 13:42:10.593977,599618036419549185,-34.00
2025-06-12 13:42:10.593977,599618036419549185,-43.00
2025-06-12 13:42:10.593977,599618036419549185,-58.00
2025-06-12 13:42:10.593977,599618036419549185,-65.00
2025-06-12 13:42:10.593977,599618036419549185,-63.00
2025-06-12 13:42:10.593977,599618036419549185,-60.00
2025-06-12 13:42:10.593977,599618036419549185,-58.00
2025-06-12 13:42:10.593977,599618036419549185,-56.00
2025-06-12 13:42:10.593977,599618036419549185,-53.00
2025-06-12 13:42:10.593977,599618036419549185,-56.00
2025-06-12 13:42:10.593977,599618036419549185,-68.00
2025-06-12 13:42:10.593977,599618036419549185,-134.00
2025-06-12 13:42:10.593977,599618036419549185,-194.00
2025-06-12 13:42:10.593977,599618036419549185,68.00
2025-06-12 13:42:10.593977,599618036419549185,814.00
2025-06-12 13:42:10.593977,599618036419549185,1374.00
2025-06-12 13:42:10.593977,599618036419549185,748.00
2025-06-12 13:42:10.593977,599618036419549185,-494.00
2025-06-12 13:42:10.593977,599618036419549185,-745.00
2025-06-12 13:42:10.593977,599618036419549185,-214.00
2025-06-12 13:42:11.133289,599618036980276744,-58.00
2025-06-12 13:42:11.133289,599618036980276744,-102.00
2025-06-12 13:42:11.133289,599618036980276744,19.00
2025-06-12 13:42:11.133289,599618036980276744,53.00
2025-06-12 13:42:11.133289,599618036980276744,-2.00
2025-06-12 13:42:11.133289,599618036980276744,29.00
2025-06-12 13:42:11.133289,599618036980276744,60.00
2025-06-12 13:42:11.133289,599618036980276744,51.00
2025-06-12 13:42:11.133289,599618036980276744,60.00
2025-06-12 13:42:11.133289,599618036980276744,80.00
2025-06-12 13:42:11.133289,599618036980276744,87.00
2025-06-12 13:42:11.133289,599618036980276744,97.00
2025-06-12 13:42:11.133289,599618036980276744,114.00
2025-06-12 13:42:11.133289,599618036980276744,131.00
2025-06-12 13:42:11.133289,599618036980276744,148.00
2025-06-12 13:42:11.133289,599618036980276744,170.00
2025-06-12 13:42:11.133289,599618036980276744,199.00
2025-06-12 13:42:11.133289,599618036980276744,233.00
2025-06-12 13:42:11.133289,599618036980276744,272.00
2025-06-12 13:42:11.133289,599618036980276744,316.00
2025-06-12 13:42:11.133289,599618036980276744,360.00
2025-06-12 13:42:11.133289,599618036980276744,402.00
2025-06-12 13:42:11.133289,599618036980276744,441.00
2025-06-12 13:42:11.133289,599618036980276744,472.00
2025-06-12 13:42:11.133289,599618036980276744,485.00
2025-06-12 13:42:11.133289,599618036980276744,467.00
2025-06-12 13:42:11.133289,599618036980276744,409.00
2025-06-12 13:42:11.133289,599618036980276744,297.00
2025-06-12 13:42:11.133289,599618036980276744,146.00
2025-06-12 13:42:11.133289,599618036980276744,0.00
2025-06-12 13:42:11.133289,599618036980276744,-114.00
2025-06-12 13:42:11.133289,599618036980276744,-199.00
2025-06-12 13:42:11.133289,599618036980276744,-253.00
2025-06-12 13:42:11.133289,599618036980276744,-282.00
2025-06-12 13:42:11.133289,599618036980276744,-292.00
2025-06-12 13:42:11.133289,599618036980276744,-294.00
2025-06-12 13:42:11.133289,599618036980276744,-292.00
2025-06-12 13:42:11.133289,599618036980276744,-285.00
2025-06-12 13:42:11.133289,599618036980276744,-272.00
2025-06-12 13:42:11.133289,599618036980276744,-263.00
2025-06-12 13:42:11.133289,599618036980276744,-251.00
2025-06-12 13:42:11.133289,599618036980276744,-241.00
2025-06-12 13:42:11.133289,599618036980276744,-231.00
2025-06-12 13:42:11.133289,599618036980276744,-224.00
2025-06-12 13:42:11.133289,599618036980276744,-216.00
2025-06-12 13:42:11.133289,599618036980276744,-204.00
2025-06-12 13:42:11.133289,599618036980276744,-197.00
2025-06-12 13:42:11.133289,599618036980276744,-190.00
2025-06-12 13:42:11.133289,599618036980276744,-182.00
2025-06-12 13:42:11.133289,599618036980276744,-175.00
2025-06-12 13:42:11.133289,599618036980276744,-168.00
2025-06-12 13:42:11.133289,599618036980276744,-163.00
2025-06-12 13:42:11.133289,599618036980276744,-155.00
2025-06-12 13:42:11.133289,599618036980276744,-148.00
2025-06-12 13:42:11.133289,599618036980276744,-146.00
2025-06-12 13:42:11.133289,599618036980276744,-141.00
2025-06-12 13:42:11.133289,599618036980276744,-138.00
2025-06-12 13:42:11.133289,599618036980276744,-131.00
2025-06-12 13:42:11.133289,599618036980276744,-126.00
2025-06-12 13:42:11.133289,599618036980276744,-126.00
2025-06-12 13:42:11.133289,599618036980276744,-121.00
2025-06-12 13:42:11.133289,599618036980276744,-116.00
2025-06-12 13:42:11.133289,599618036980276744,-114.00
2025-06-12 13:42:11.133289,599618036980276744,-114.00
2025-06-12 13:42:11.133289,599618036980276744,-112.00
2025-06-12 13:42:11.133289,599618036980276744,-112.00
2025-06-12 13:42:11.133289,599618036980276744,-109.00
2025-06-12 13:42:11.133289,599618036980276744,-107.00
2025-06-12 13:42:11.133289,599618036980276744,-104.00
2025-06-12 13:42:11.133289,599618036980276744,-104.00
2025-06-12 13:42:11.133289,599618036980276744,-99.00
2025-06-12 13:42:11.133289,599618036980276744,-97.00
2025-06-12 13:42:11.133289,599618036980276744,-97.00
2025-06-12 13:42:11.735661,599618037541004305,-99.00
2025-06-12 13:42:11.735661,599618037541004305,-107.00
2025-06-12 13:42:11.735661,599618037541004305,-109.00
2025-06-12 13:42:11.735661,599618037541004305,-99.00
2025-06-12 13:42:11.735661,599618037541004305,-85.00
2025-06-12 13:42:11.735661,599618037541004305,-73.00
2025-06-12 13:42:11.735661,599618037541004305,-60.00
2025-06-12 13:42:11.735661,599618037541004305,-56.00
2025-06-12 13:42:11.735661,599618037541004305,-60.00
2025-06-12 13:42:11.735661,599618037541004305,-73.00
2025-06-12 13:42:11.735661,599618037541004305,-85.00
2025-06-12 13:42:11.735661,599618037541004305,-85.00
2025-06-12 13:42:11.735661,599618037541004305,-82.00
2025-06-12 13:42:11.735661,599618037541004305,-80.00
2025-06-12 13:42:11.735661,599618037541004305,-77.00
2025-06-12 13:42:11.735661,599618037541004305,-70.00
2025-06-12 13:42:11.735661,599618037541004305,-68.00
2025-06-12 13:42:11.735661,599618037541004305,-80.00
2025-06-12 13:42:11.735661,599618037541004305,-129.00
2025-06-12 13:42:11.735661,599618037541004305,-209.00
2025-06-12 13:42:11.735661,599618037541004305,-53.00
2025-06-12 13:42:11.735661,599618037541004305,604.00
2025-06-12 13:42:11.735661,599618037541004305,1299.00
2025-06-12 13:42:11.735661,599618037541004305,955.00
2025-06-12 13:42:11.735661,599618037541004305,-297.00
2025-06-12 13:42:11.735661,599618037541004305,-831.00
2025-06-12 13:42:11.735661,599618037541004305,-346.00
2025-06-12 13:42:11.735661,599618037541004305,-60.00
2025-06-12 13:42:11.735661,599618037541004305,-119.00
2025-06-12 13:42:11.735661,599618037541004305,-19.00
2025-06-12 13:42:11.735661,599618037541004305,53.00
2025-06-12 13:42:11.735661,599618037541004305,2.00
2025-06-12 13:42:11.735661,599618037541004305,21.00
2025-06-12 13:42:11.735661,599618037541004305,60.00
2025-06-12 13:42:11.735661,599618037541004305,41.00
2025-06-12 13:42:11.735661,599618037541004305,38.00
2025-06-12 13:42:11.735661,599618037541004305,65.00
2025-06-12 13:42:11.735661,599618037541004305,75.00
2025-06-12 13:42:11.735661,599618037541004305,87.00
2025-06-12 13:42:11.735661,599618037541004305,107.00
2025-06-12 13:42:11.735661,599618037541004305,124.00
2025-06-12 13:42:11.735661,599618037541004305,143.00
2025-06-12 13:42:11.735661,599618037541004305,168.00
2025-06-12 13:42:11.735661,599618037541004305,192.00
2025-06-12 13:42:11.735661,599618037541004305,221.00
2025-06-12 13:42:11.735661,599618037541004305,263.00
2025-06-12 13:42:11.735661,599618037541004305,304.00
2025-06-12 13:42:11.735661,599618037541004305,348.00
2025-06-12 13:42:11.735661,599618037541004305,402.00
2025-06-12 13:42:11.735661,599618037541004305,446.00
2025-06-12 13:42:11.735661,599618037541004305,465.00
2025-06-12 13:42:11.735661,599618037541004305,477.00
2025-06-12 13:42:11.735661,599618037541004305,463.00
2025-06-12 13:42:11.735661,599618037541004305,397.00
2025-06-12 13:42:11.735661,599618037541004305,287.00
2025-06-12 13:42:11.735661,599618037541004305,148.00
2025-06-12 13:42:11.735661,599618037541004305,-4.00
2025-06-12 13:42:11.735661,599618037541004305,-129.00
2025-06-12 13:42:11.735661,599618037541004305,-202.00
2025-06-12 13:42:11.735661,599618037541004305,-258.00
2025-06-12 13:42:11.735661,599618037541004305,-299.00
2025-06-12 13:42:11.735661,599618037541004305,-307.00
2025-06-12 13:42:11.735661,599618037541004305,-307.00
2025-06-12 13:42:11.735661,599618037541004305,-307.00
2025-06-12 13:42:11.735661,599618037541004305,-294.00
2025-06-12 13:42:11.735661,599618037541004305,-277.00
2025-06-12 13:42:11.735661,599618037541004305,-270.00
2025-06-12 13:42:11.735661,599618037541004305,-275.00
2025-06-12 13:42:11.735661,599618037541004305,-263.00
2025-06-12 13:42:11.735661,599618037541004305,-238.00
2025-06-12 13:42:11.735661,599618037541004305,-233.00
2025-06-12 13:42:11.735661,599618037541004305,-236.00
2025-06-12 13:42:11.735661,599618037541004305,-219.00
2025-06-12 13:42:12.306276,599618038101731864,-204.00
2025-06-12 13:42:12.306276,599618038101731864,-207.00
2025-06-12 13:42:12.306276,599618038101731864,-192.00
2025-06-12 13:42:12.306276,599618038101731864,-165.00
2025-06-12 13:42:12.306276,599618038101731864,-165.00
2025-06-12 13:42:12.306276,599618038101731864,-173.00
2025-06-12 13:42:12.306276,599618038101731864,-160.00
2025-06-12 13:42:12.306276,599618038101731864,-143.00
2025-06-12 13:42:12.306276,599618038101731864,-141.00
2025-06-12 13:42:12.306276,599618038101731864,-141.00
2025-06-12 13:42:12.306276,599618038101731864,-138.00
2025-06-12 13:42:12.306276,599618038101731864,-134.00
2025-06-12 13:42:12.306276,599618038101731864,-124.00
2025-06-12 13:42:12.306276,599618038101731864,-121.00
2025-06-12 13:42:12.306276,599618038101731864,-116.00
2025-06-12 13:42:12.306276,599618038101731864,-107.00
2025-06-12 13:42:12.306276,599618038101731864,-92.00
2025-06-12 13:42:12.306276,599618038101731864,-90.00
2025-06-12 13:42:12.306276,599618038101731864,-121.00
2025-06-12 13:42:12.306276,599618038101731864,-143.00
2025-06-12 13:42:12.306276,599618038101731864,-114.00
2025-06-12 13:42:12.306276,599618038101731864,-109.00
2025-06-12 13:42:12.306276,599618038101731864,-136.00
2025-06-12 13:42:12.306276,599618038101731864,-134.00
2025-06-12 13:42:12.306276,599618038101731864,-116.00
2025-06-12 13:42:12.306276,599618038101731864,-107.00
2025-06-12 13:42:12.306276,599618038101731864,-75.00
2025-06-12 13:42:12.306276,599618038101731864,-51.00
2025-06-12 13:42:12.306276,599618038101731864,-53.00
2025-06-12 13:42:12.306276,599618038101731864,-58.00
2025-06-12 13:42:12.306276,599618038101731864,-56.00
2025-06-12 13:42:12.306276,599618038101731864,-75.00
2025-06-12 13:42:12.306276,599618038101731864,-90.00
2025-06-12 13:42:12.306276,599618038101731864,-85.00
2025-06-12 13:42:12.306276,599618038101731864,-85.00
2025-06-12 13:42:12.306276,599618038101731864,-92.00
2025-06-12 13:42:12.306276,599618038101731864,-87.00
2025-06-12 13:42:12.306276,599618038101731864,-80.00
2025-06-12 13:42:12.306276,599618038101731864,-99.00
2025-06-12 13:42:12.306276,599618038101731864,-170.00
2025-06-12 13:42:12.306276,599618038101731864,-141.00
2025-06-12 13:42:12.306276,599618038101731864,314.00
2025-06-12 13:42:12.306276,599618038101731864,1084.00
2025-06-12 13:42:12.306276,599618038101731864,1235.00
2025-06-12 13:42:12.306276,599618038101731864,204.00
2025-06-12 13:42:12.306276,599618038101731864,-794.00
2025-06-12 13:42:12.306276,599618038101731864,-609.00
2025-06-12 13:42:12.306276,599618038101731864,-124.00
2025-06-12 13:42:12.306276,599618038101731864,-112.00
2025-06-12 13:42:12.306276,599618038101731864,-75.00
2025-06-12 13:42:12.306276,599618038101731864,70.00
2025-06-12 13:42:12.306276,599618038101731864,43.00
2025-06-12 13:42:12.306276,599618038101731864,7.00
2025-06-12 13:42:12.306276,599618038101731864,56.00
2025-06-12 13:42:12.306276,599618038101731864,68.00
2025-06-12 13:42:12.306276,599618038101731864,58.00
2025-06-12 13:42:12.306276,599618038101731864,82.00
2025-06-12 13:42:12.306276,599618038101731864,97.00
2025-06-12 13:42:12.306276,599618038101731864,99.00
2025-06-12 13:42:12.306276,599618038101731864,114.00
2025-06-12 13:42:12.306276,599618038101731864,129.00
2025-06-12 13:42:12.306276,599618038101731864,141.00
2025-06-12 13:42:12.306276,599618038101731864,165.00
2025-06-12 13:42:12.306276,599618038101731864,197.00
2025-06-12 13:42:12.306276,599618038101731864,226.00
2025-06-12 13:42:12.306276,599618038101731864,260.00
2025-06-12 13:42:12.306276,599618038101731864,304.00
2025-06-12 13:42:12.306276,599618038101731864,350.00
2025-06-12 13:42:12.306276,599618038101731864,392.00
2025-06-12 13:42:12.306276,599618038101731864,431.00
2025-06-12 13:42:12.306276,599618038101731864,458.00
2025-06-12 13:42:12.306276,599618038101731864,475.00
2025-06-12 13:42:12.306276,599618038101731864,467.00
2025-06-12 13:42:12.841916,599618038662459423,416.00
2025-06-12 13:42:12.841916,599618038662459423,309.00
2025-06-12 13:42:12.841916,599618038662459423,168.00
2025-06-12 13:42:12.841916,599618038662459423,24.00
2025-06-12 13:42:12.841916,599618038662459423,-97.00
2025-06-12 13:42:12.841916,599618038662459423,-180.00
2025-06-12 13:42:12.841916,599618038662459423,-231.00
2025-06-12 13:42:12.841916,599618038662459423,-268.00
2025-06-12 13:42:12.841916,599618038662459423,-285.00
2025-06-12 13:42:12.841916,599618038662459423,-287.00
2025-06-12 13:42:12.841916,599618038662459423,-282.00
2025-06-12 13:42:12.841916,599618038662459423,-277.00
2025-06-12 13:42:12.841916,599618038662459423,-268.00
2025-06-12 13:42:12.841916,599618038662459423,-258.00
2025-06-12 13:42:12.841916,599618038662459423,-248.00
2025-06-12 13:42:12.841916,599618038662459423,-241.00
2025-06-12 13:42:12.841916,599618038662459423,-231.00
2025-06-12 13:42:12.841916,599618038662459423,-226.00
2025-06-12 13:42:12.841916,599618038662459423,-216.00
2025-06-12 13:42:12.841916,599618038662459423,-207.00
2025-06-12 13:42:12.841916,599618038662459423,-197.00
2025-06-12 13:42:12.841916,599618038662459423,-194.00
2025-06-12 13:42:12.841916,599618038662459423,-190.00
2025-06-12 13:42:12.841916,599618038662459423,-182.00
2025-06-12 13:42:12.841916,599618038662459423,-180.00
2025-06-12 13:42:12.841916,599618038662459423,-173.00
2025-06-12 13:42:12.841916,599618038662459423,-160.00
2025-06-12 13:42:12.841916,599618038662459423,-151.00
2025-06-12 13:42:12.841916,599618038662459423,-146.00
2025-06-12 13:42:12.841916,599618038662459423,-143.00
2025-06-12 13:42:12.841916,599618038662459423,-141.00
2025-06-12 13:42:12.841916,599618038662459423,-138.00
2025-06-12 13:42:12.841916,599618038662459423,-134.00
2025-06-12 13:42:12.841916,599618038662459423,-126.00
2025-06-12 13:42:12.841916,599618038662459423,-121.00
2025-06-12 13:42:12.841916,599618038662459423,-116.00
2025-06-12 13:42:12.841916,599618038662459423,-112.00
2025-06-12 13:42:12.841916,599618038662459423,-109.00
2025-06-12 13:42:12.841916,599618038662459423,-104.00
2025-06-12 13:42:12.841916,599618038662459423,-102.00
2025-06-12 13:42:12.841916,599618038662459423,-97.00
2025-06-12 13:42:12.841916,599618038662459423,-95.00
2025-06-12 13:42:12.841916,599618038662459423,-95.00
2025-06-12 13:42:12.841916,599618038662459423,-97.00
2025-06-12 13:42:12.841916,599618038662459423,-97.00
2025-06-12 13:42:12.841916,599618038662459423,-87.00
2025-06-12 13:42:12.841916,599618038662459423,-70.00
2025-06-12 13:42:12.841916,599618038662459423,-56.00
2025-06-12 13:42:12.841916,599618038662459423,-46.00
2025-06-12 13:42:12.841916,599618038662459423,-46.00
2025-06-12 13:42:12.841916,599618038662459423,-60.00
2025-06-12 13:42:12.841916,599618038662459423,-63.00
2025-06-12 13:42:12.841916,599618038662459423,-58.00
2025-06-12 13:42:12.841916,599618038662459423,-58.00
2025-06-12 13:42:12.841916,599618038662459423,-56.00
2025-06-12 13:42:12.841916,599618038662459423,-51.00
2025-06-12 13:42:12.841916,599618038662459423,-46.00
2025-06-12 13:42:12.841916,599618038662459423,-41.00
2025-06-12 13:42:12.841916,599618038662459423,-38.00
2025-06-12 13:42:12.841916,599618038662459423,-58.00
2025-06-12 13:42:12.841916,599618038662459423,-136.00
2025-06-12 13:42:12.841916,599618038662459423,-190.00
2025-06-12 13:42:12.841916,599618038662459423,107.00
2025-06-12 13:42:12.841916,599618038662459423,872.00
2025-06-12 13:42:12.841916,599618038662459423,1355.00
2025-06-12 13:42:12.841916,599618038662459423,633.00
2025-06-12 13:42:12.841916,599618038662459423,-558.00
2025-06-12 13:42:12.841916,599618038662459423,-692.00
2025-06-12 13:42:12.841916,599618038662459423,-158.00
2025-06-12 13:42:12.841916,599618038662459423,-43.00
2025-06-12 13:42:12.841916,599618038662459423,-77.00
2025-06-12 13:42:12.841916,599618038662459423,51.00
2025-06-12 13:42:12.841916,599618038662459423,65.00
2025-06-12 13:42:13.414516,599618039223207326,12.00
2025-06-12 13:42:13.414516,599618039223207326,48.00
2025-06-12 13:42:13.414516,599618039223207326,75.00
2025-06-12 13:42:13.414516,599618039223207326,60.00
2025-06-12 13:42:13.414516,599618039223207326,73.00
2025-06-12 13:42:13.414516,599618039223207326,92.00
2025-06-12 13:42:13.414516,599618039223207326,102.00
2025-06-12 13:42:13.414516,599618039223207326,114.00
2025-06-12 13:42:13.414516,599618039223207326,129.00
2025-06-12 13:42:13.414516,599618039223207326,148.00
2025-06-12 13:42:13.414516,599618039223207326,170.00
2025-06-12 13:42:13.414516,599618039223207326,192.00
2025-06-12 13:42:13.414516,599618039223207326,214.00
2025-06-12 13:42:13.414516,599618039223207326,248.00
2025-06-12 13:42:13.414516,599618039223207326,290.00
2025-06-12 13:42:13.414516,599618039223207326,336.00
2025-06-12 13:42:13.414516,599618039223207326,380.00
2025-06-12 13:42:13.414516,599618039223207326,424.00
2025-06-12 13:42:13.414516,599618039223207326,458.00
2025-06-12 13:42:13.414516,599618039223207326,482.00
2025-06-12 13:42:13.414516,599618039223207326,487.00
2025-06-12 13:42:13.414516,599618039223207326,453.00
2025-06-12 13:42:13.414516,599618039223207326,370.00
2025-06-12 13:42:13.414516,599618039223207326,246.00
2025-06-12 13:42:13.414516,599618039223207326,104.00
2025-06-12 13:42:13.414516,599618039223207326,-19.00
2025-06-12 13:42:13.414516,599618039223207326,-112.00
2025-06-12 13:42:13.414516,599618039223207326,-182.00
2025-06-12 13:42:13.414516,599618039223207326,-224.00
2025-06-12 13:42:13.414516,599618039223207326,-241.00
2025-06-12 13:42:13.414516,599618039223207326,-243.00
2025-06-12 13:42:13.414516,599618039223207326,-236.00
2025-06-12 13:42:13.414516,599618039223207326,-226.00
2025-06-12 13:42:13.414516,599618039223207326,-219.00
2025-06-12 13:42:13.414516,599618039223207326,-207.00
2025-06-12 13:42:13.414516,599618039223207326,-192.00
2025-06-12 13:42:13.414516,599618039223207326,-182.00
2025-06-12 13:42:13.414516,599618039223207326,-175.00
2025-06-12 13:42:13.414516,599618039223207326,-165.00
2025-06-12 13:42:13.414516,599618039223207326,-153.00
2025-06-12 13:42:13.414516,599618039223207326,-143.00
2025-06-12 13:42:13.414516,599618039223207326,-131.00
2025-06-12 13:42:13.414516,599618039223207326,-119.00
2025-06-12 13:42:13.414516,599618039223207326,-109.00
2025-06-12 13:42:13.414516,599618039223207326,-104.00
2025-06-12 13:42:13.414516,599618039223207326,-97.00
2025-06-12 13:42:13.414516,599618039223207326,-92.00
2025-06-12 13:42:13.414516,599618039223207326,-87.00
2025-06-12 13:42:13.414516,599618039223207326,-80.00
2025-06-12 13:42:13.414516,599618039223207326,-73.00
2025-06-12 13:42:13.414516,599618039223207326,-70.00
2025-06-12 13:42:13.414516,599618039223207326,-68.00
2025-06-12 13:42:13.414516,599618039223207326,-65.00
2025-06-12 13:42:13.414516,599618039223207326,-63.00
2025-06-12 13:42:13.414516,599618039223207326,-58.00
2025-06-12 13:42:13.414516,599618039223207326,-56.00
2025-06-12 13:42:13.414516,599618039223207326,-56.00
2025-06-12 13:42:13.414516,599618039223207326,-53.00
2025-06-12 13:42:13.414516,599618039223207326,-48.00
2025-06-12 13:42:13.414516,599618039223207326,-51.00
2025-06-12 13:42:13.414516,599618039223207326,-48.00
2025-06-12 13:42:13.414516,599618039223207326,-43.00
2025-06-12 13:42:13.414516,599618039223207326,-41.00
2025-06-12 13:42:13.414516,599618039223207326,-41.00
2025-06-12 13:42:13.414516,599618039223207326,-41.00
2025-06-12 13:42:13.414516,599618039223207326,-41.00
2025-06-12 13:42:13.414516,599618039223207326,-46.00
2025-06-12 13:42:13.414516,599618039223207326,-53.00
2025-06-12 13:42:13.414516,599618039223207326,-43.00
2025-06-12 13:42:13.414516,599618039223207326,-21.00
2025-06-12 13:42:13.414516,599618039223207326,-7.00
2025-06-12 13:42:13.414516,599618039223207326,0.00
2025-06-12 13:42:13.414516,599618039223207326,0.00
2025-06-12 13:42:13.954314,599618039783939971,-14.00
2025-06-12 13:42:13.954314,599618039783939971,-19.00
2025-06-12 13:42:13.954314,599618039783939971,-12.00
2025-06-12 13:42:13.954314,599618039783939971,-17.00
2025-06-12 13:42:13.954314,599618039783939971,-19.00
2025-06-12 13:42:13.954314,599618039783939971,-17.00
2025-06-12 13:42:13.954314,599618039783939971,-14.00
2025-06-12 13:42:13.954314,599618039783939971,-17.00
2025-06-12 13:42:13.954314,599618039783939971,-14.00
2025-06-12 13:42:13.954314,599618039783939971,-19.00
2025-06-12 13:42:13.954314,599618039783939971,-77.00
2025-06-12 13:42:13.954314,599618039783939971,-151.00
2025-06-12 13:42:13.954314,599618039783939971,63.00
2025-06-12 13:42:13.954314,599618039783939971,750.00
2025-06-12 13:42:13.954314,599618039783939971,1325.00
2025-06-12 13:42:13.954314,599618039783939971,818.00
2025-06-12 13:42:13.954314,599618039783939971,-363.00
2025-06-12 13:42:13.954314,599618039783939971,-699.00
2025-06-12 13:42:13.954314,599618039783939971,-229.00
2025-06-12 13:42:13.954314,599618039783939971,-38.00
2025-06-12 13:42:13.954314,599618039783939971,-60.00
2025-06-12 13:42:13.954314,599618039783939971,53.00
2025-06-12 13:42:13.954314,599618039783939971,87.00
2025-06-12 13:42:13.954314,599618039783939971,38.00
2025-06-12 13:42:13.954314,599618039783939971,68.00
2025-06-12 13:42:13.954314,599618039783939971,99.00
2025-06-12 13:42:13.954314,599618039783939971,87.00
2025-06-12 13:42:13.954314,599618039783939971,95.00
2025-06-12 13:42:13.954314,599618039783939971,116.00
2025-06-12 13:42:13.954314,599618039783939971,121.00
2025-06-12 13:42:13.954314,599618039783939971,131.00
2025-06-12 13:42:13.954314,599618039783939971,153.00
2025-06-12 13:42:13.954314,599618039783939971,177.00
2025-06-12 13:42:13.954314,599618039783939971,197.00
2025-06-12 13:42:13.954314,599618039783939971,219.00
2025-06-12 13:42:13.954314,599618039783939971,246.00
2025-06-12 13:42:13.954314,599618039783939971,280.00
2025-06-12 13:42:13.954314,599618039783939971,319.00
2025-06-12 13:42:13.954314,599618039783939971,363.00
2025-06-12 13:42:13.954314,599618039783939971,407.00
2025-06-12 13:42:13.954314,599618039783939971,443.00
2025-06-12 13:42:13.954314,599618039783939971,475.00
2025-06-12 13:42:13.954314,599618039783939971,502.00
2025-06-12 13:42:13.954314,599618039783939971,506.00
2025-06-12 13:42:13.954314,599618039783939971,472.00
2025-06-12 13:42:13.954314,599618039783939971,399.00
2025-06-12 13:42:13.954314,599618039783939971,285.00
2025-06-12 13:42:13.954314,599618039783939971,146.00
2025-06-12 13:42:13.954314,599618039783939971,17.00
2025-06-12 13:42:13.954314,599618039783939971,-82.00
2025-06-12 13:42:13.954314,599618039783939971,-158.00
2025-06-12 13:42:13.954314,599618039783939971,-209.00
2025-06-12 13:42:13.954314,599618039783939971,-231.00
2025-06-12 13:42:13.954314,599618039783939971,-241.00
2025-06-12 13:42:13.954314,599618039783939971,-253.00
2025-06-12 13:42:13.954314,599618039783939971,-248.00
2025-06-12 13:42:13.954314,599618039783939971,-236.00
2025-06-12 13:42:13.954314,599618039783939971,-233.00
2025-06-12 13:42:13.954314,599618039783939971,-229.00
2025-06-12 13:42:13.954314,599618039783939971,-212.00
2025-06-12 13:42:13.954314,599618039783939971,-207.00
2025-06-12 13:42:13.954314,599618039783939971,-202.00
2025-06-12 13:42:13.954314,599618039783939971,-192.00
2025-06-12 13:42:13.954314,599618039783939971,-182.00
2025-06-12 13:42:13.954314,599618039783939971,-175.00
2025-06-12 13:42:13.954314,599618039783939971,-160.00
2025-06-12 13:42:13.954314,599618039783939971,-151.00
2025-06-12 13:42:13.954314,599618039783939971,-151.00
2025-06-12 13:42:13.954314,599618039783939971,-146.00
2025-06-12 13:42:13.954314,599618039783939971,-138.00
2025-06-12 13:42:13.954314,599618039783939971,-136.00
2025-06-12 13:42:13.954314,599618039783939971,-134.00
2025-06-12 13:42:13.954314,599618039783939971,-119.00
2025-06-12 13:42:14.492338,599618040344672618,-119.00
2025-06-12 13:42:14.492338,599618040344672618,-124.00
2025-06-12 13:42:14.492338,599618040344672618,-116.00
2025-06-12 13:42:14.492338,599618040344672618,-107.00
2025-06-12 13:42:14.492338,599618040344672618,-107.00
2025-06-12 13:42:14.492338,599618040344672618,-102.00
2025-06-12 13:42:14.492338,599618040344672618,-95.00
2025-06-12 13:42:14.492338,599618040344672618,-95.00
2025-06-12 13:42:14.492338,599618040344672618,-97.00
2025-06-12 13:42:14.492338,599618040344672618,-95.00
2025-06-12 13:42:14.492338,599618040344672618,-87.00
2025-06-12 13:42:14.492338,599618040344672618,-82.00
2025-06-12 13:42:14.492338,599618040344672618,-85.00
2025-06-12 13:42:14.492338,599618040344672618,-85.00
2025-06-12 13:42:14.492338,599618040344672618,-80.00
2025-06-12 13:42:14.492338,599618040344672618,-80.00
2025-06-12 13:42:14.492338,599618040344672618,-82.00
2025-06-12 13:42:14.492338,599618040344672618,-82.00
2025-06-12 13:42:14.492338,599618040344672618,-80.00
2025-06-12 13:42:14.492338,599618040344672618,-80.00
2025-06-12 13:42:14.492338,599618040344672618,-80.00
2025-06-12 13:42:14.492338,599618040344672618,-82.00
2025-06-12 13:42:14.492338,599618040344672618,-85.00
2025-06-12 13:42:14.492338,599618040344672618,-73.00
2025-06-12 13:42:14.492338,599618040344672618,-58.00
2025-06-12 13:42:14.492338,599618040344672618,-46.00
2025-06-12 13:42:14.492338,599618040344672618,-34.00
2025-06-12 13:42:14.492338,599618040344672618,-43.00
2025-06-12 13:42:14.492338,599618040344672618,-65.00
2025-06-12 13:42:14.492338,599618040344672618,-70.00
2025-06-12 13:42:14.492338,599618040344672618,-65.00
2025-06-12 13:42:14.492338,599618040344672618,-60.00
2025-06-12 13:42:14.492338,599618040344672618,-60.00
2025-06-12 13:42:14.492338,599618040344672618,-60.00
2025-06-12 13:42:14.492338,599618040344672618,-56.00
2025-06-12 13:42:14.492338,599618040344672618,-48.00
2025-06-12 13:42:14.492338,599618040344672618,-51.00
2025-06-12 13:42:14.492338,599618040344672618,-90.00
2025-06-12 13:42:14.492338,599618040344672618,-173.00
2025-06-12 13:42:14.492338,599618040344672618,-121.00
2025-06-12 13:42:14.492338,599618040344672618,387.00
2025-06-12 13:42:14.492338,599618040344672618,1135.00
2025-06-12 13:42:14.492338,599618040344672618,1123.00
2025-06-12 13:42:14.492338,599618040344672618,53.00
2025-06-12 13:42:14.492338,599618040344672618,-726.00
2025-06-12 13:42:14.492338,599618040344672618,-463.00
2025-06-12 13:42:14.492338,599618040344672618,-109.00
2025-06-12 13:42:14.492338,599618040344672618,-112.00
2025-06-12 13:42:14.492338,599618040344672618,-38.00
2025-06-12 13:42:14.492338,599618040344672618,60.00
2025-06-12 13:42:14.492338,599618040344672618,17.00
2025-06-12 13:42:14.492338,599618040344672618,7.00
2025-06-12 13:42:14.492338,599618040344672618,51.00
2025-06-12 13:42:14.492338,599618040344672618,51.00
2025-06-12 13:42:14.492338,599618040344672618,41.00
2025-06-12 13:42:14.492338,599618040344672618,65.00
2025-06-12 13:42:14.492338,599618040344672618,85.00
2025-06-12 13:42:14.492338,599618040344672618,90.00
2025-06-12 13:42:14.492338,599618040344672618,99.00
2025-06-12 13:42:14.492338,599618040344672618,121.00
2025-06-12 13:42:14.492338,599618040344672618,141.00
2025-06-12 13:42:14.492338,599618040344672618,158.00
2025-06-12 13:42:14.492338,599618040344672618,180.00
2025-06-12 13:42:14.492338,599618040344672618,212.00
2025-06-12 13:42:14.492338,599618040344672618,248.00
2025-06-12 13:42:14.492338,599618040344672618,282.00
2025-06-12 13:42:14.492338,599618040344672618,319.00
2025-06-12 13:42:14.492338,599618040344672618,363.00
2025-06-12 13:42:14.492338,599618040344672618,402.00
2025-06-12 13:42:14.492338,599618040344672618,433.00
2025-06-12 13:42:14.492338,599618040344672618,448.00
2025-06-12 13:42:14.492338,599618040344672618,446.00
2025-06-12 13:42:14.492338,599618040344672618,399.00
2025-06-12 13:42:15.092032,599618040905400179,304.00
2025-06-12 13:42:15.092032,599618040905400179,173.00
2025-06-12 13:42:15.092032,599618040905400179,38.00
2025-06-12 13:42:15.092032,599618040905400179,-75.00
2025-06-12 13:42:15.092032,599618040905400179,-158.00
2025-06-12 13:42:15.092032,599618040905400179,-214.00
2025-06-12 13:42:15.092032,599618040905400179,-248.00
2025-06-12 13:42:15.092032,599618040905400179,-268.00
2025-06-12 13:42:15.092032,599618040905400179,-272.00
2025-06-12 13:42:15.092032,599618040905400179,-272.00
2025-06-12 13:42:15.092032,599618040905400179,-265.00
2025-06-12 13:42:15.092032,599618040905400179,-253.00
2025-06-12 13:42:15.092032,599618040905400179,-243.00
2025-06-12 13:42:15.092032,599618040905400179,-241.00
2025-06-12 13:42:15.092032,599618040905400179,-233.00
2025-06-12 13:42:15.092032,599618040905400179,-224.00
2025-06-12 13:42:15.092032,599618040905400179,-216.00
2025-06-12 13:42:15.092032,599618040905400179,-209.00
2025-06-12 13:42:15.092032,599618040905400179,-199.00
2025-06-12 13:42:15.092032,599618040905400179,-192.00
2025-06-12 13:42:15.092032,599618040905400179,-187.00
2025-06-12 13:42:15.092032,599618040905400179,-180.00
2025-06-12 13:42:15.092032,599618040905400179,-170.00
2025-06-12 13:42:15.092032,599618040905400179,-170.00
2025-06-12 13:42:15.092032,599618040905400179,-168.00
2025-06-12 13:42:15.092032,599618040905400179,-160.00
2025-06-12 13:42:15.092032,599618040905400179,-158.00
2025-06-12 13:42:15.092032,599618040905400179,-151.00
2025-06-12 13:42:15.092032,599618040905400179,-143.00
2025-06-12 13:42:15.092032,599618040905400179,-143.00
2025-06-12 13:42:15.092032,599618040905400179,-148.00
2025-06-12 13:42:15.092032,599618040905400179,-143.00
2025-06-12 13:42:15.092032,599618040905400179,-136.00
2025-06-12 13:42:15.092032,599618040905400179,-136.00
2025-06-12 13:42:15.092032,599618040905400179,-141.00
2025-06-12 13:42:15.092032,599618040905400179,-136.00
2025-06-12 13:42:15.092032,599618040905400179,-131.00
2025-06-12 13:42:15.092032,599618040905400179,-131.00
2025-06-12 13:42:15.092032,599618040905400179,-134.00
2025-06-12 13:42:15.092032,599618040905400179,-126.00
2025-06-12 13:42:15.092032,599618040905400179,-116.00
2025-06-12 13:42:15.092032,599618040905400179,-116.00
2025-06-12 13:42:15.092032,599618040905400179,-121.00
2025-06-12 13:42:15.092032,599618040905400179,-121.00
2025-06-12 13:42:15.092032,599618040905400179,-121.00
2025-06-12 13:42:15.092032,599618040905400179,-121.00
2025-06-12 13:42:15.092032,599618040905400179,-116.00
2025-06-12 13:42:15.092032,599618040905400179,-116.00
2025-06-12 13:42:15.092032,599618040905400179,-124.00
2025-06-12 13:42:15.092032,599618040905400179,-121.00
2025-06-12 13:42:15.092032,599618040905400179,-99.00
2025-06-12 13:42:15.092032,599618040905400179,-85.00
2025-06-12 13:42:15.092032,599618040905400179,-80.00
2025-06-12 13:42:15.092032,599618040905400179,-75.00
2025-06-12 13:42:15.092032,599618040905400179,-75.00
2025-06-12 13:42:15.092032,599618040905400179,-87.00
2025-06-12 13:42:15.092032,599618040905400179,-95.00
2025-06-12 13:42:15.092032,599618040905400179,-92.00
2025-06-12 13:42:15.092032,599618040905400179,-92.00
2025-06-12 13:42:15.092032,599618040905400179,-90.00
2025-06-12 13:42:15.092032,599618040905400179,-85.00
2025-06-12 13:42:15.092032,599618040905400179,-87.00
2025-06-12 13:42:15.092032,599618040905400179,-87.00
2025-06-12 13:42:15.092032,599618040905400179,-82.00
2025-06-12 13:42:15.092032,599618040905400179,-119.00
2025-06-12 13:42:15.092032,599618040905400179,-209.00
2025-06-12 13:42:15.092032,599618040905400179,-146.00
2025-06-12 13:42:15.092032,599618040905400179,377.00
2025-06-12 13:42:15.092032,599618040905400179,1104.00
2025-06-12 13:42:15.092032,599618040905400179,1055.00
2025-06-12 13:42:15.092032,599618040905400179,-4.00
2025-06-12 13:42:15.092032,599618040905400179,-726.00
2025-06-12 13:42:15.092032,599618040905400179,-458.00
2025-06-12 13:42:15.661890,599618041466127738,-141.00
2025-06-12 13:42:15.661890,599618041466127738,-146.00
2025-06-12 13:42:15.661890,599618041466127738,-65.00
2025-06-12 13:42:15.661890,599618041466127738,26.00
2025-06-12 13:42:15.661890,599618041466127738,-17.00
2025-06-12 13:42:15.661890,599618041466127738,-24.00
2025-06-12 13:42:15.661890,599618041466127738,17.00
2025-06-12 13:42:15.661890,599618041466127738,17.00
2025-06-12 13:42:15.661890,599618041466127738,17.00
2025-06-12 13:42:15.661890,599618041466127738,36.00
2025-06-12 13:42:15.661890,599618041466127738,46.00
2025-06-12 13:42:15.661890,599618041466127738,56.00
2025-06-12 13:42:15.661890,599618041466127738,75.00
2025-06-12 13:42:15.661890,599618041466127738,92.00
2025-06-12 13:42:15.661890,599618041466127738,109.00
2025-06-12 13:42:15.661890,599618041466127738,134.00
2025-06-12 13:42:15.661890,599618041466127738,155.00
2025-06-12 13:42:15.661890,599618041466127738,180.00
2025-06-12 13:42:15.661890,599618041466127738,214.00
2025-06-12 13:42:15.661890,599618041466127738,251.00
2025-06-12 13:42:15.661890,599618041466127738,294.00
2025-06-12 13:42:15.661890,599618041466127738,343.00
2025-06-12 13:42:15.661890,599618041466127738,382.00
2025-06-12 13:42:15.661890,599618041466127738,407.00
2025-06-12 13:42:15.661890,599618041466127738,424.00
2025-06-12 13:42:15.661890,599618041466127738,421.00
2025-06-12 13:42:15.661890,599618041466127738,375.00
2025-06-12 13:42:15.661890,599618041466127738,277.00
2025-06-12 13:42:15.661890,599618041466127738,146.00
2025-06-12 13:42:15.661890,599618041466127738,14.00
2025-06-12 13:42:15.661890,599618041466127738,-95.00
2025-06-12 13:42:15.661890,599618041466127738,-180.00
2025-06-12 13:42:15.661890,599618041466127738,-231.00
2025-06-12 13:42:15.661890,599618041466127738,-260.00
2025-06-12 13:42:15.661890,599618041466127738,-292.00
2025-06-12 13:42:15.661890,599618041466127738,-297.00
2025-06-12 13:42:15.661890,599618041466127738,-285.00
2025-06-12 13:42:15.661890,599618041466127738,-282.00
2025-06-12 13:42:15.661890,599618041466127738,-272.00
2025-06-12 13:42:15.661890,599618041466127738,-258.00
2025-06-12 13:42:15.661890,599618041466127738,-251.00
2025-06-12 13:42:15.661890,599618041466127738,-248.00
2025-06-12 13:42:15.661890,599618041466127738,-238.00
2025-06-12 13:42:15.661890,599618041466127738,-221.00
2025-06-12 13:42:15.661890,599618041466127738,-207.00
2025-06-12 13:42:15.661890,599618041466127738,-204.00
2025-06-12 13:42:15.661890,599618041466127738,-204.00
2025-06-12 13:42:15.661890,599618041466127738,-194.00
2025-06-12 13:42:15.661890,599618041466127738,-180.00
2025-06-12 13:42:15.661890,599618041466127738,-173.00
2025-06-12 13:42:15.661890,599618041466127738,-175.00
2025-06-12 13:42:15.661890,599618041466127738,-170.00
2025-06-12 13:42:15.661890,599618041466127738,-163.00
2025-06-12 13:42:15.661890,599618041466127738,-160.00
2025-06-12 13:42:15.661890,599618041466127738,-153.00
2025-06-12 13:42:15.661890,599618041466127738,-141.00
2025-06-12 13:42:15.661890,599618041466127738,-134.00
2025-06-12 13:42:15.661890,599618041466127738,-134.00
2025-06-12 13:42:15.661890,599618041466127738,-134.00
2025-06-12 13:42:15.661890,599618041466127738,-131.00
2025-06-12 13:42:15.661890,599618041466127738,-126.00
2025-06-12 13:42:15.661890,599618041466127738,-124.00
2025-06-12 13:42:15.661890,599618041466127738,-124.00
2025-06-12 13:42:15.661890,599618041466127738,-124.00
2025-06-12 13:42:15.661890,599618041466127738,-121.00
2025-06-12 13:42:15.661890,599618041466127738,-116.00
2025-06-12 13:42:15.661890,599618041466127738,-109.00
2025-06-12 13:42:15.661890,599618041466127738,-107.00
2025-06-12 13:42:15.661890,599618041466127738,-112.00
2025-06-12 13:42:15.661890,599618041466127738,-112.00
2025-06-12 13:42:15.661890,599618041466127738,-104.00
2025-06-12 13:42:15.661890,599618041466127738,-107.00
2025-06-12 13:42:15.661890,599618041466127738,-116.00
2025-06-12 13:42:16.232330,599618042026885815,-119.00
2025-06-12 13:42:16.232330,599618042026885815,-114.00
2025-06-12 13:42:16.232330,599618042026885815,-112.00
2025-06-12 13:42:16.232330,599618042026885815,-116.00
2025-06-12 13:42:16.232330,599618042026885815,-124.00
2025-06-12 13:42:16.232330,599618042026885815,-126.00
2025-06-12 13:42:16.232330,599618042026885815,-121.00
2025-06-12 13:42:16.232330,599618042026885815,-124.00
2025-06-12 13:42:16.232330,599618042026885815,-136.00
2025-06-12 13:42:16.232330,599618042026885815,-141.00
2025-06-12 13:42:16.232330,599618042026885815,-126.00
2025-06-12 13:42:16.232330,599618042026885815,-112.00
2025-06-12 13:42:16.232330,599618042026885815,-112.00
2025-06-12 13:42:16.232330,599618042026885815,-102.00
2025-06-12 13:42:16.232330,599618042026885815,-92.00
2025-06-12 13:42:16.232330,599618042026885815,-102.00
2025-06-12 13:42:16.232330,599618042026885815,-121.00
2025-06-12 13:42:16.232330,599618042026885815,-129.00
2025-06-12 13:42:16.232330,599618042026885815,-126.00
2025-06-12 13:42:16.232330,599618042026885815,-126.00
2025-06-12 13:42:16.232330,599618042026885815,-129.00
2025-06-12 13:42:16.232330,599618042026885815,-134.00
2025-06-12 13:42:16.232330,599618042026885815,-131.00
2025-06-12 13:42:16.232330,599618042026885815,-134.00
2025-06-12 13:42:16.232330,599618042026885815,-155.00
2025-06-12 13:42:16.232330,599618042026885815,-231.00
2025-06-12 13:42:16.232330,599618042026885815,-236.00
2025-06-12 13:42:16.232330,599618042026885815,141.00
2025-06-12 13:42:16.232330,599618042026885815,889.00
2025-06-12 13:42:16.232330,599618042026885815,1182.00
2025-06-12 13:42:16.232330,599618042026885815,333.00
2025-06-12 13:42:16.232330,599618042026885815,-706.00
2025-06-12 13:42:16.232330,599618042026885815,-697.00
2025-06-12 13:42:16.232330,599618042026885815,-238.00
2025-06-12 13:42:16.232330,599618042026885815,-175.00
2025-06-12 13:42:16.232330,599618042026885815,-163.00
2025-06-12 13:42:16.232330,599618042026885815,-36.00
2025-06-12 13:42:16.232330,599618042026885815,-36.00
2025-06-12 13:42:16.232330,599618042026885815,-73.00
2025-06-12 13:42:16.232330,599618042026885815,-26.00
2025-06-12 13:42:16.232330,599618042026885815,-12.00
2025-06-12 13:42:16.232330,599618042026885815,-29.00
2025-06-12 13:42:16.232330,599618042026885815,-9.00
2025-06-12 13:42:16.232330,599618042026885815,9.00
2025-06-12 13:42:16.232330,599618042026885815,17.00
2025-06-12 13:42:16.232330,599618042026885815,38.00
2025-06-12 13:42:16.232330,599618042026885815,58.00
2025-06-12 13:42:16.232330,599618042026885815,68.00
2025-06-12 13:42:16.232330,599618042026885815,95.00
2025-06-12 13:42:16.232330,599618042026885815,131.00
2025-06-12 13:42:16.232330,599618042026885815,155.00
2025-06-12 13:42:16.232330,599618042026885815,180.00
2025-06-12 13:42:16.232330,599618042026885815,226.00
2025-06-12 13:42:16.232330,599618042026885815,277.00
2025-06-12 13:42:16.232330,599618042026885815,311.00
2025-06-12 13:42:16.232330,599618042026885815,346.00
2025-06-12 13:42:16.232330,599618042026885815,389.00
2025-06-12 13:42:16.232330,599618042026885815,424.00
2025-06-12 13:42:16.232330,599618042026885815,421.00
2025-06-12 13:42:16.232330,599618042026885815,392.00
2025-06-12 13:42:16.232330,599618042026885815,319.00
2025-06-12 13:42:16.232330,599618042026885815,192.00
2025-06-12 13:42:16.232330,599618042026885815,41.00
2025-06-12 13:42:16.232330,599618042026885815,-82.00
2025-06-12 13:42:16.232330,599618042026885815,-173.00
2025-06-12 13:42:16.232330,599618042026885815,-246.00
2025-06-12 13:42:16.232330,599618042026885815,-292.00
2025-06-12 13:42:16.232330,599618042026885815,-311.00
2025-06-12 13:42:16.232330,599618042026885815,-324.00
2025-06-12 13:42:16.232330,599618042026885815,-329.00
2025-06-12 13:42:16.232330,599618042026885815,-321.00
2025-06-12 13:42:16.232330,599618042026885815,-309.00
2025-06-12 13:42:16.232330,599618042026885815,-294.00
2025-06-12 13:42:16.804337,599618042587613374,-282.00
2025-06-12 13:42:16.804337,599618042587613374,-277.00
2025-06-12 13:42:16.804337,599618042587613374,-272.00
2025-06-12 13:42:16.804337,599618042587613374,-258.00
2025-06-12 13:42:16.804337,599618042587613374,-241.00
2025-06-12 13:42:16.804337,599618042587613374,-233.00
2025-06-12 13:42:16.804337,599618042587613374,-229.00
2025-06-12 13:42:16.804337,599618042587613374,-216.00
2025-06-12 13:42:16.804337,599618042587613374,-199.00
2025-06-12 13:42:16.804337,599618042587613374,-190.00
2025-06-12 13:42:16.804337,599618042587613374,-185.00
2025-06-12 13:42:16.804337,599618042587613374,-187.00
2025-06-12 13:42:16.804337,599618042587613374,-180.00
2025-06-12 13:42:16.804337,599618042587613374,-165.00
2025-06-12 13:42:16.804337,599618042587613374,-155.00
2025-06-12 13:42:16.804337,599618042587613374,-153.00
2025-06-12 13:42:16.804337,599618042587613374,-148.00
2025-06-12 13:42:16.804337,599618042587613374,-143.00
2025-06-12 13:42:16.804337,599618042587613374,-136.00
2025-06-12 13:42:16.804337,599618042587613374,-134.00
2025-06-12 13:42:16.804337,599618042587613374,-129.00
2025-06-12 13:42:16.804337,599618042587613374,-124.00
2025-06-12 13:42:16.804337,599618042587613374,-121.00
2025-06-12 13:42:16.804337,599618042587613374,-121.00
2025-06-12 13:42:16.804337,599618042587613374,-116.00
2025-06-12 13:42:16.804337,599618042587613374,-109.00
2025-06-12 13:42:16.804337,599618042587613374,-104.00
2025-06-12 13:42:16.804337,599618042587613374,-102.00
2025-06-12 13:42:16.804337,599618042587613374,-99.00
2025-06-12 13:42:16.804337,599618042587613374,-95.00
2025-06-12 13:42:16.804337,599618042587613374,-90.00
2025-06-12 13:42:16.804337,599618042587613374,-90.00
2025-06-12 13:42:16.804337,599618042587613374,-85.00
2025-06-12 13:42:16.804337,599618042587613374,-80.00
2025-06-12 13:42:16.804337,599618042587613374,-82.00
2025-06-12 13:42:16.804337,599618042587613374,-85.00
2025-06-12 13:42:16.804337,599618042587613374,-80.00
2025-06-12 13:42:16.804337,599618042587613374,-70.00
2025-06-12 13:42:16.804337,599618042587613374,-53.00
2025-06-12 13:42:16.804337,599618042587613374,-31.00
2025-06-12 13:42:16.804337,599618042587613374,-21.00
2025-06-12 13:42:16.804337,599618042587613374,-56.00
2025-06-12 13:42:16.804337,599618042587613374,-87.00
2025-06-12 13:42:16.804337,599618042587613374,-65.00
2025-06-12 13:42:16.804337,599618042587613374,-38.00
2025-06-12 13:42:16.804337,599618042587613374,-58.00
2025-06-12 13:42:16.804337,599618042587613374,-85.00
2025-06-12 13:42:16.804337,599618042587613374,-85.00
2025-06-12 13:42:16.804337,599618042587613374,-73.00
2025-06-12 13:42:16.804337,599618042587613374,-58.00
2025-06-12 13:42:16.804337,599618042587613374,-53.00
2025-06-12 13:42:16.804337,599618042587613374,-75.00
2025-06-12 13:42:16.804337,599618042587613374,-155.00
2025-06-12 13:42:16.804337,599618042587613374,-182.00
2025-06-12 13:42:16.804337,599618042587613374,194.00
2025-06-12 13:42:16.804337,599618042587613374,1001.00
2025-06-12 13:42:16.804337,599618042587613374,1333.00
2025-06-12 13:42:16.804337,599618042587613374,416.00
2025-06-12 13:42:16.804337,599618042587613374,-697.00
2025-06-12 13:42:16.804337,599618042587613374,-655.00
2025-06-12 13:42:16.804337,599618042587613374,-165.00
2025-06-12 13:42:16.804337,599618042587613374,-126.00
2025-06-12 13:42:16.804337,599618042587613374,-116.00
2025-06-12 13:42:16.804337,599618042587613374,48.00
2025-06-12 13:42:16.804337,599618042587613374,53.00
2025-06-12 13:42:16.804337,599618042587613374,-4.00
2025-06-12 13:42:16.804337,599618042587613374,38.00
2025-06-12 13:42:16.804337,599618042587613374,68.00
2025-06-12 13:42:16.804337,599618042587613374,56.00
2025-06-12 13:42:16.804337,599618042587613374,70.00
2025-06-12 13:42:16.804337,599618042587613374,87.00
2025-06-12 13:42:16.804337,599618042587613374,92.00
2025-06-12 13:42:16.804337,599618042587613374,104.00
2025-06-12 13:42:17.313103,599618043148340933,114.00
2025-06-12 13:42:17.313103,599618043148340933,129.00
2025-06-12 13:42:17.313103,599618043148340933,160.00
2025-06-12 13:42:17.313103,599618043148340933,190.00
2025-06-12 13:42:17.313103,599618043148340933,204.00
2025-06-12 13:42:17.313103,599618043148340933,231.00
2025-06-12 13:42:17.313103,599618043148340933,277.00
2025-06-12 13:42:17.313103,599618043148340933,326.00
2025-06-12 13:42:17.313103,599618043148340933,365.00
2025-06-12 13:42:17.313103,599618043148340933,399.00
2025-06-12 13:42:17.313103,599618043148340933,428.00
2025-06-12 13:42:17.313103,599618043148340933,453.00
2025-06-12 13:42:17.313103,599618043148340933,458.00
2025-06-12 13:42:17.313103,599618043148340933,416.00
2025-06-12 13:42:17.313103,599618043148340933,324.00
2025-06-12 13:42:17.313103,599618043148340933,190.00
2025-06-12 13:42:17.313103,599618043148340933,48.00
2025-06-12 13:42:17.313103,599618043148340933,-77.00
2025-06-12 13:42:17.313103,599618043148340933,-165.00
2025-06-12 13:42:17.313103,599618043148340933,-226.00
2025-06-12 13:42:17.313103,599618043148340933,-268.00
2025-06-12 13:42:17.313103,599618043148340933,-290.00
2025-06-12 13:42:17.313103,599618043148340933,-294.00
2025-06-12 13:42:17.313103,599618043148340933,-292.00
2025-06-12 13:42:17.313103,599618043148340933,-287.00
2025-06-12 13:42:17.313103,599618043148340933,-280.00
2025-06-12 13:42:17.313103,599618043148340933,-265.00
2025-06-12 13:42:17.313103,599618043148340933,-255.00
2025-06-12 13:42:17.313103,599618043148340933,-246.00
2025-06-12 13:42:17.313103,599618043148340933,-236.00
2025-06-12 13:42:17.313103,599618043148340933,-226.00
2025-06-12 13:42:17.313103,599618043148340933,-216.00
2025-06-12 13:42:17.313103,599618043148340933,-212.00
2025-06-12 13:42:17.313103,599618043148340933,-204.00
2025-06-12 13:42:17.313103,599618043148340933,-197.00
2025-06-12 13:42:17.313103,599618043148340933,-187.00
2025-06-12 13:42:17.313103,599618043148340933,-175.00
2025-06-12 13:42:17.313103,599618043148340933,-168.00
2025-06-12 13:42:17.313103,599618043148340933,-160.00
2025-06-12 13:42:17.313103,599618043148340933,-155.00
2025-06-12 13:42:17.313103,599618043148340933,-148.00
2025-06-12 13:42:17.313103,599618043148340933,-138.00
2025-06-12 13:42:17.313103,599618043148340933,-134.00
2025-06-12 13:42:17.313103,599618043148340933,-131.00
2025-06-12 13:42:17.313103,599618043148340933,-126.00
2025-06-12 13:42:17.313103,599618043148340933,-121.00
2025-06-12 13:42:17.313103,599618043148340933,-116.00
2025-06-12 13:42:17.313103,599618043148340933,-116.00
2025-06-12 13:42:17.313103,599618043148340933,-121.00
2025-06-12 13:42:17.313103,599618043148340933,-119.00
2025-06-12 13:42:17.313103,599618043148340933,-107.00
2025-06-12 13:42:17.313103,599618043148340933,-99.00
2025-06-12 13:42:17.313103,599618043148340933,-102.00
2025-06-12 13:42:17.313103,599618043148340933,-104.00
2025-06-12 13:42:17.313103,599618043148340933,-97.00
2025-06-12 13:42:17.313103,599618043148340933,-92.00
2025-06-12 13:42:17.313103,599618043148340933,-95.00
2025-06-12 13:42:17.313103,599618043148340933,-90.00
2025-06-12 13:42:17.313103,599618043148340933,-87.00
2025-06-12 13:42:17.313103,599618043148340933,-87.00
2025-06-12 13:42:17.313103,599618043148340933,-85.00
2025-06-12 13:42:17.313103,599618043148340933,-82.00
2025-06-12 13:42:17.313103,599618043148340933,-87.00
2025-06-12 13:42:17.313103,599618043148340933,-85.00
2025-06-12 13:42:17.313103,599618043148340933,-75.00
2025-06-12 13:42:17.313103,599618043148340933,-70.00
2025-06-12 13:42:17.313103,599618043148340933,-73.00
2025-06-12 13:42:17.313103,599618043148340933,-73.00
2025-06-12 13:42:17.313103,599618043148340933,-80.00
2025-06-12 13:42:17.313103,599618043148340933,-80.00
2025-06-12 13:42:17.313103,599618043148340933,-73.00
2025-06-12 13:42:17.313103,599618043148340933,-58.00
2025-06-12 13:42:17.313103,599618043148340933,-48.00
2025-06-12 13:42:17.881669,599618043709068492,-43.00
2025-06-12 13:42:17.881669,599618043709068492,-38.00
2025-06-12 13:42:17.881669,599618043709068492,-41.00
2025-06-12 13:42:17.881669,599618043709068492,-51.00
2025-06-12 13:42:17.881669,599618043709068492,-58.00
2025-06-12 13:42:17.881669,599618043709068492,-58.00
2025-06-12 13:42:17.881669,599618043709068492,-58.00
2025-06-12 13:42:17.881669,599618043709068492,-56.00
2025-06-12 13:42:17.881669,599618043709068492,-53.00
2025-06-12 13:42:17.881669,599618043709068492,-46.00
2025-06-12 13:42:17.881669,599618043709068492,-43.00
2025-06-12 13:42:17.881669,599618043709068492,-51.00
2025-06-12 13:42:17.881669,599618043709068492,-97.00
2025-06-12 13:42:17.881669,599618043709068492,-177.00
2025-06-12 13:42:17.881669,599618043709068492,-65.00
2025-06-12 13:42:17.881669,599618043709068492,543.00
2025-06-12 13:42:17.881669,599618043709068492,1303.00
2025-06-12 13:42:17.881669,599618043709068492,1138.00
2025-06-12 13:42:17.881669,599618043709068492,-82.00
2025-06-12 13:42:17.881669,599618043709068492,-794.00
2025-06-12 13:42:17.881669,599618043709068492,-387.00
2025-06-12 13:42:17.881669,599618043709068492,-43.00
2025-06-12 13:42:17.881669,599618043709068492,-109.00
2025-06-12 13:42:17.881669,599618043709068492,-31.00
2025-06-12 13:42:17.881669,599618043709068492,73.00
2025-06-12 13:42:17.881669,599618043709068492,17.00
2025-06-12 13:42:17.881669,599618043709068492,7.00
2025-06-12 13:42:17.881669,599618043709068492,58.00
2025-06-12 13:42:17.881669,599618043709068492,58.00
2025-06-12 13:42:17.881669,599618043709068492,53.00
2025-06-12 13:42:17.881669,599618043709068492,75.00
2025-06-12 13:42:17.881669,599618043709068492,85.00
2025-06-12 13:42:17.881669,599618043709068492,92.00
2025-06-12 13:42:17.881669,599618043709068492,109.00
2025-06-12 13:42:17.881669,599618043709068492,129.00
2025-06-12 13:42:17.881669,599618043709068492,143.00
2025-06-12 13:42:17.881669,599618043709068492,163.00
2025-06-12 13:42:17.881669,599618043709068492,190.00
2025-06-12 13:42:17.881669,599618043709068492,221.00
2025-06-12 13:42:17.881669,599618043709068492,255.00
2025-06-12 13:42:17.881669,599618043709068492,294.00
2025-06-12 13:42:17.881669,599618043709068492,336.00
2025-06-12 13:42:17.881669,599618043709068492,377.00
2025-06-12 13:42:17.881669,599618043709068492,414.00
2025-06-12 13:42:17.881669,599618043709068492,448.00
2025-06-12 13:42:17.881669,599618043709068492,467.00
2025-06-12 13:42:17.881669,599618043709068492,458.00
2025-06-12 13:42:17.881669,599618043709068492,404.00
2025-06-12 13:42:17.881669,599618043709068492,304.00
2025-06-12 13:42:17.881669,599618043709068492,170.00
2025-06-12 13:42:17.881669,599618043709068492,29.00
2025-06-12 13:42:17.881669,599618043709068492,-90.00
2025-06-12 13:42:17.881669,599618043709068492,-180.00
2025-06-12 13:42:17.881669,599618043709068492,-238.00
2025-06-12 13:42:17.881669,599618043709068492,-272.00
2025-06-12 13:42:17.881669,599618043709068492,-292.00
2025-06-12 13:42:17.881669,599618043709068492,-299.00
2025-06-12 13:42:17.881669,599618043709068492,-297.00
2025-06-12 13:42:17.881669,599618043709068492,-287.00
2025-06-12 13:42:17.881669,599618043709068492,-280.00
2025-06-12 13:42:17.881669,599618043709068492,-268.00
2025-06-12 13:42:17.881669,599618043709068492,-258.00
2025-06-12 13:42:17.881669,599618043709068492,-248.00
2025-06-12 13:42:17.881669,599618043709068492,-238.00
2025-06-12 13:42:17.881669,599618043709068492,-229.00
2025-06-12 13:42:17.881669,599618043709068492,-221.00
2025-06-12 13:42:17.881669,599618043709068492,-212.00
2025-06-12 13:42:17.881669,599618043709068492,-199.00
2025-06-12 13:42:17.881669,599618043709068492,-192.00
2025-06-12 13:42:17.881669,599618043709068492,-185.00
2025-06-12 13:42:17.881669,599618043709068492,-173.00
2025-06-12 13:42:17.881669,599618043709068492,-165.00
2025-06-12 13:42:17.881669,599618043709068492,-160.00
2025-06-12 13:42:18.483418,599618044269796053,-160.00
2025-06-12 13:42:18.483418,599618044269796053,-155.00
2025-06-12 13:42:18.483418,599618044269796053,-148.00
2025-06-12 13:42:18.483418,599618044269796053,-141.00
2025-06-12 13:42:18.483418,599618044269796053,-136.00
2025-06-12 13:42:18.483418,599618044269796053,-129.00
2025-06-12 13:42:18.483418,599618044269796053,-119.00
2025-06-12 13:42:18.483418,599618044269796053,-114.00
2025-06-12 13:42:18.483418,599618044269796053,-114.00
2025-06-12 13:42:18.483418,599618044269796053,-112.00
2025-06-12 13:42:18.483418,599618044269796053,-104.00
2025-06-12 13:42:18.483418,599618044269796053,-104.00
2025-06-12 13:42:18.483418,599618044269796053,-104.00
2025-06-12 13:42:18.483418,599618044269796053,-102.00
2025-06-12 13:42:18.483418,599618044269796053,-97.00
2025-06-12 13:42:18.483418,599618044269796053,-95.00
2025-06-12 13:42:18.483418,599618044269796053,-95.00
2025-06-12 13:42:18.483418,599618044269796053,-95.00
2025-06-12 13:42:18.483418,599618044269796053,-90.00
2025-06-12 13:42:18.483418,599618044269796053,-87.00
2025-06-12 13:42:18.483418,599618044269796053,-90.00
2025-06-12 13:42:18.483418,599618044269796053,-87.00
2025-06-12 13:42:18.483418,599618044269796053,-85.00
2025-06-12 13:42:18.483418,599618044269796053,-85.00
2025-06-12 13:42:18.483418,599618044269796053,-82.00
2025-06-12 13:42:18.483418,599618044269796053,-80.00
2025-06-12 13:42:18.483418,599618044269796053,-77.00
2025-06-12 13:42:18.483418,599618044269796053,-77.00
2025-06-12 13:42:18.483418,599618044269796053,-77.00
2025-06-12 13:42:18.483418,599618044269796053,-73.00
2025-06-12 13:42:18.483418,599618044269796053,-68.00
2025-06-12 13:42:18.483418,599618044269796053,-70.00
2025-06-12 13:42:18.483418,599618044269796053,-73.00
2025-06-12 13:42:18.483418,599618044269796053,-70.00
2025-06-12 13:42:18.483418,599618044269796053,-68.00
2025-06-12 13:42:18.483418,599618044269796053,-68.00
2025-06-12 13:42:18.483418,599618044269796053,-68.00
2025-06-12 13:42:18.483418,599618044269796053,-65.00
2025-06-12 13:42:18.483418,599618044269796053,-60.00
2025-06-12 13:42:18.483418,599618044269796053,-60.00
2025-06-12 13:42:18.483418,599618044269796053,-68.00
2025-06-12 13:42:18.483418,599618044269796053,-70.00
2025-06-12 13:42:18.483418,599618044269796053,-68.00
2025-06-12 13:42:18.483418,599618044269796053,-58.00
2025-06-12 13:42:18.483418,599618044269796053,-51.00
2025-06-12 13:42:18.483418,599618044269796053,-43.00
2025-06-12 13:42:18.483418,599618044269796053,-29.00
2025-06-12 13:42:18.483418,599618044269796053,-26.00
2025-06-12 13:42:18.483418,599618044269796053,-38.00
2025-06-12 13:42:18.483418,599618044269796053,-56.00
2025-06-12 13:42:18.483418,599618044269796053,-63.00
2025-06-12 13:42:18.483418,599618044269796053,-58.00
2025-06-12 13:42:18.483418,599618044269796053,-53.00
2025-06-12 13:42:18.483418,599618044269796053,-53.00
2025-06-12 13:42:18.483418,599618044269796053,-53.00
2025-06-12 13:42:18.483418,599618044269796053,-53.00
2025-06-12 13:42:18.483418,599618044269796053,-51.00
2025-06-12 13:42:18.483418,599618044269796053,-63.00
2025-06-12 13:42:18.483418,599618044269796053,-136.00
2025-06-12 13:42:18.483418,599618044269796053,-192.00
2025-06-12 13:42:18.483418,599618044269796053,90.00
2025-06-12 13:42:18.483418,599618044269796053,843.00
2025-06-12 13:42:18.483418,599618044269796053,1386.00
2025-06-12 13:42:18.483418,599618044269796053,748.00
2025-06-12 13:42:18.483418,599618044269796053,-487.00
2025-06-12 13:42:18.483418,599618044269796053,-723.00
2025-06-12 13:42:18.483418,599618044269796053,-204.00
2025-06-12 13:42:18.483418,599618044269796053,-68.00
2025-06-12 13:42:18.483418,599618044269796053,-114.00
2025-06-12 13:42:18.483418,599618044269796053,14.00
2025-06-12 13:42:18.483418,599618044269796053,48.00
2025-06-12 13:42:18.483418,599618044269796053,-9.00
2025-06-12 13:42:18.483418,599618044269796053,24.00
2025-06-12 13:42:19.021932,599618044830523612,56.00
2025-06-12 13:42:19.021932,599618044830523612,46.00
2025-06-12 13:42:19.021932,599618044830523612,56.00
2025-06-12 13:42:19.021932,599618044830523612,75.00
2025-06-12 13:42:19.021932,599618044830523612,80.00
2025-06-12 13:42:19.021932,599618044830523612,92.00
2025-06-12 13:42:19.021932,599618044830523612,109.00
2025-06-12 13:42:19.021932,599618044830523612,124.00
2025-06-12 13:42:19.021932,599618044830523612,143.00
2025-06-12 13:42:19.021932,599618044830523612,168.00
2025-06-12 13:42:19.021932,599618044830523612,192.00
2025-06-12 13:42:19.021932,599618044830523612,221.00
2025-06-12 13:42:19.021932,599618044830523612,258.00
2025-06-12 13:42:19.021932,599618044830523612,299.00
2025-06-12 13:42:19.021932,599618044830523612,341.00
2025-06-12 13:42:19.021932,599618044830523612,385.00
2025-06-12 13:42:19.021932,599618044830523612,424.00
2025-06-12 13:42:19.021932,599618044830523612,448.00
2025-06-12 13:42:19.021932,599618044830523612,460.00
2025-06-12 13:42:19.021932,599618044830523612,453.00
2025-06-12 13:42:19.021932,599618044830523612,402.00
2025-06-12 13:42:19.021932,599618044830523612,299.00
2025-06-12 13:42:19.021932,599618044830523612,160.00
2025-06-12 13:42:19.021932,599618044830523612,21.00
2025-06-12 13:42:19.021932,599618044830523612,-95.00
2025-06-12 13:42:19.021932,599618044830523612,-180.00
2025-06-12 13:42:19.021932,599618044830523612,-238.00
2025-06-12 13:42:19.021932,599618044830523612,-275.00
2025-06-12 13:42:19.021932,599618044830523612,-287.00
2025-06-12 13:42:19.021932,599618044830523612,-290.00
2025-06-12 13:42:19.021932,599618044830523612,-297.00
2025-06-12 13:42:19.021932,599618044830523612,-292.00
2025-06-12 13:42:19.021932,599618044830523612,-272.00
2025-06-12 13:42:19.021932,599618044830523612,-258.00
2025-06-12 13:42:19.021932,599618044830523612,-251.00
2025-06-12 13:42:19.021932,599618044830523612,-238.00
2025-06-12 13:42:19.021932,599618044830523612,-229.00
2025-06-12 13:42:19.021932,599618044830523612,-216.00
2025-06-12 13:42:19.021932,599618044830523612,-209.00
2025-06-12 13:42:19.021932,599618044830523612,-204.00
2025-06-12 13:42:19.021932,599618044830523612,-192.00
2025-06-12 13:42:19.021932,599618044830523612,-182.00
2025-06-12 13:42:19.021932,599618044830523612,-175.00
2025-06-12 13:42:19.021932,599618044830523612,-170.00
2025-06-12 13:42:19.021932,599618044830523612,-160.00
2025-06-12 13:42:19.021932,599618044830523612,-153.00
2025-06-12 13:42:19.021932,599618044830523612,-146.00
2025-06-12 13:42:19.021932,599618044830523612,-143.00
2025-06-12 13:42:19.021932,599618044830523612,-143.00
2025-06-12 13:42:19.021932,599618044830523612,-141.00
2025-06-12 13:42:19.021932,599618044830523612,-134.00
2025-06-12 13:42:19.021932,599618044830523612,-129.00
2025-06-12 13:42:19.021932,599618044830523612,-124.00
2025-06-12 13:42:19.021932,599618044830523612,-121.00
2025-06-12 13:42:19.021932,599618044830523612,-116.00
2025-06-12 13:42:19.021932,599618044830523612,-107.00
2025-06-12 13:42:19.021932,599618044830523612,-102.00
2025-06-12 13:42:19.021932,599618044830523612,-112.00
2025-06-12 13:42:19.021932,599618044830523612,-121.00
2025-06-12 13:42:19.021932,599618044830523612,-107.00
2025-06-12 13:42:19.021932,599618044830523612,-92.00
2025-06-12 13:42:19.021932,599618044830523612,-95.00
2025-06-12 13:42:19.021932,599618044830523612,-97.00
2025-06-12 13:42:19.021932,599618044830523612,-87.00
2025-06-12 13:42:19.021932,599618044830523612,-87.00
2025-06-12 13:42:19.021932,599618044830523612,-92.00
2025-06-12 13:42:19.021932,599618044830523612,-87.00
2025-06-12 13:42:19.021932,599618044830523612,-80.00
2025-06-12 13:42:19.021932,599618044830523612,-82.00
2025-06-12 13:42:19.021932,599618044830523612,-85.00
2025-06-12 13:42:19.021932,599618044830523612,-80.00
2025-06-12 13:42:19.021932,599618044830523612,-73.00
2025-06-12 13:42:19.021932,599618044830523612,-75.00
2025-06-12 13:42:19.563862,599618045391281689,-73.00
2025-06-12 13:42:19.563862,599618045391281689,-68.00
2025-06-12 13:42:19.563862,599618045391281689,-65.00
2025-06-12 13:42:19.563862,599618045391281689,-68.00
2025-06-12 13:42:19.563862,599618045391281689,-70.00
2025-06-12 13:42:19.563862,599618045391281689,-68.00
2025-06-12 13:42:19.563862,599618045391281689,-60.00
2025-06-12 13:42:19.563862,599618045391281689,-63.00
2025-06-12 13:42:19.563862,599618045391281689,-63.00
2025-06-12 13:42:19.563862,599618045391281689,-58.00
2025-06-12 13:42:19.563862,599618045391281689,-56.00
2025-06-12 13:42:19.563862,599618045391281689,-53.00
2025-06-12 13:42:19.563862,599618045391281689,-53.00
2025-06-12 13:42:19.563862,599618045391281689,-60.00
2025-06-12 13:42:19.563862,599618045391281689,-63.00
2025-06-12 13:42:19.563862,599618045391281689,-63.00
2025-06-12 13:42:19.563862,599618045391281689,-53.00
2025-06-12 13:42:19.563862,599618045391281689,-38.00
2025-06-12 13:42:19.563862,599618045391281689,-31.00
2025-06-12 13:42:19.563862,599618045391281689,-26.00
2025-06-12 13:42:19.563862,599618045391281689,-21.00
2025-06-12 13:42:19.563862,599618045391281689,-29.00
2025-06-12 13:42:19.563862,599618045391281689,-43.00
2025-06-12 13:42:19.563862,599618045391281689,-43.00
2025-06-12 13:42:19.563862,599618045391281689,-46.00
2025-06-12 13:42:19.563862,599618045391281689,-53.00
2025-06-12 13:42:19.563862,599618045391281689,-46.00
2025-06-12 13:42:19.563862,599618045391281689,-34.00
2025-06-12 13:42:19.563862,599618045391281689,-36.00
2025-06-12 13:42:19.563862,599618045391281689,-38.00
2025-06-12 13:42:19.563862,599618045391281689,-46.00
2025-06-12 13:42:19.563862,599618045391281689,-102.00
2025-06-12 13:42:19.563862,599618045391281689,-175.00
2025-06-12 13:42:19.563862,599618045391281689,17.00
2025-06-12 13:42:19.563862,599618045391281689,701.00
2025-06-12 13:42:19.563862,599618045391281689,1367.00
2025-06-12 13:42:19.563862,599618045391281689,965.00
2025-06-12 13:42:19.563862,599618045391281689,-297.00
2025-06-12 13:42:19.563862,599618045391281689,-777.00
2025-06-12 13:42:19.563862,599618045391281689,-272.00
2025-06-12 13:42:19.563862,599618045391281689,-29.00
2025-06-12 13:42:19.563862,599618045391281689,-119.00
2025-06-12 13:42:19.563862,599618045391281689,-12.00
2025-06-12 13:42:19.563862,599618045391281689,85.00
2025-06-12 13:42:19.563862,599618045391281689,26.00
2025-06-12 13:42:19.563862,599618045391281689,26.00
2025-06-12 13:42:19.563862,599618045391281689,73.00
2025-06-12 13:42:19.563862,599618045391281689,70.00
2025-06-12 13:42:19.563862,599618045391281689,60.00
2025-06-12 13:42:19.563862,599618045391281689,75.00
2025-06-12 13:42:19.563862,599618045391281689,90.00
2025-06-12 13:42:19.563862,599618045391281689,104.00
2025-06-12 13:42:19.563862,599618045391281689,119.00
2025-06-12 13:42:19.563862,599618045391281689,134.00
2025-06-12 13:42:19.563862,599618045391281689,151.00
2025-06-12 13:42:19.563862,599618045391281689,177.00
2025-06-12 13:42:19.563862,599618045391281689,207.00
2025-06-12 13:42:19.563862,599618045391281689,229.00
2025-06-12 13:42:19.563862,599618045391281689,253.00
2025-06-12 13:42:19.563862,599618045391281689,297.00
2025-06-12 13:42:19.563862,599618045391281689,355.00
2025-06-12 13:42:19.563862,599618045391281689,397.00
2025-06-12 13:42:19.563862,599618045391281689,426.00
2025-06-12 13:42:19.563862,599618045391281689,455.00
2025-06-12 13:42:19.563862,599618045391281689,480.00
2025-06-12 13:42:19.563862,599618045391281689,472.00
2025-06-12 13:42:19.563862,599618045391281689,431.00
2025-06-12 13:42:19.563862,599618045391281689,333.00
2025-06-12 13:42:19.563862,599618045391281689,194.00
2025-06-12 13:42:19.563862,599618045391281689,56.00
2025-06-12 13:42:19.563862,599618045391281689,-56.00
2025-06-12 13:42:19.563862,599618045391281689,-153.00
2025-06-12 13:42:19.563862,599618045391281689,-221.00
2025-06-12 13:42:20.134186,599618045952009248,-255.00
2025-06-12 13:42:20.134186,599618045952009248,-280.00
2025-06-12 13:42:20.134186,599618045952009248,-297.00
2025-06-12 13:42:20.134186,599618045952009248,-290.00
2025-06-12 13:42:20.134186,599618045952009248,-272.00
2025-06-12 13:42:20.134186,599618045952009248,-260.00
2025-06-12 13:42:20.134186,599618045952009248,-258.00
2025-06-12 13:42:20.134186,599618045952009248,-253.00
2025-06-12 13:42:20.134186,599618045952009248,-243.00
2025-06-12 13:42:20.134186,599618045952009248,-229.00
2025-06-12 13:42:20.134186,599618045952009248,-219.00
2025-06-12 13:42:20.134186,599618045952009248,-212.00
2025-06-12 13:42:20.134186,599618045952009248,-207.00
2025-06-12 13:42:20.134186,599618045952009248,-199.00
2025-06-12 13:42:20.134186,599618045952009248,-192.00
2025-06-12 13:42:20.134186,599618045952009248,-177.00
2025-06-12 13:42:20.134186,599618045952009248,-168.00
2025-06-12 13:42:20.134186,599618045952009248,-163.00
2025-06-12 13:42:20.134186,599618045952009248,-160.00
2025-06-12 13:42:20.134186,599618045952009248,-155.00
2025-06-12 13:42:20.134186,599618045952009248,-143.00
2025-06-12 13:42:20.134186,599618045952009248,-136.00
2025-06-12 13:42:20.134186,599618045952009248,-141.00
2025-06-12 13:42:20.134186,599618045952009248,-138.00
2025-06-12 13:42:20.134186,599618045952009248,-124.00
2025-06-12 13:42:20.134186,599618045952009248,-119.00
2025-06-12 13:42:20.134186,599618045952009248,-124.00
2025-06-12 13:42:20.134186,599618045952009248,-121.00
2025-06-12 13:42:20.134186,599618045952009248,-119.00
2025-06-12 13:42:20.134186,599618045952009248,-119.00
2025-06-12 13:42:20.134186,599618045952009248,-109.00
2025-06-12 13:42:20.134186,599618045952009248,-107.00
2025-06-12 13:42:20.134186,599618045952009248,-112.00
2025-06-12 13:42:20.134186,599618045952009248,-109.00
2025-06-12 13:42:20.134186,599618045952009248,-107.00
2025-06-12 13:42:20.134186,599618045952009248,-107.00
2025-06-12 13:42:20.134186,599618045952009248,-102.00
2025-06-12 13:42:20.134186,599618045952009248,-92.00
2025-06-12 13:42:20.134186,599618045952009248,-92.00
2025-06-12 13:42:20.134186,599618045952009248,-99.00
2025-06-12 13:42:20.134186,599618045952009248,-99.00
2025-06-12 13:42:20.134186,599618045952009248,-95.00
2025-06-12 13:42:20.134186,599618045952009248,-92.00
2025-06-12 13:42:20.134186,599618045952009248,-90.00
2025-06-12 13:42:20.134186,599618045952009248,-87.00
2025-06-12 13:42:20.134186,599618045952009248,-82.00
2025-06-12 13:42:20.134186,599618045952009248,-80.00
2025-06-12 13:42:20.134186,599618045952009248,-80.00
2025-06-12 13:42:20.134186,599618045952009248,-80.00
2025-06-12 13:42:20.134186,599618045952009248,-75.00
2025-06-12 13:42:20.134186,599618045952009248,-65.00
2025-06-12 13:42:20.134186,599618045952009248,-63.00
2025-06-12 13:42:20.134186,599618045952009248,-70.00
2025-06-12 13:42:20.134186,599618045952009248,-75.00
2025-06-12 13:42:20.134186,599618045952009248,-73.00
2025-06-12 13:42:20.134186,599618045952009248,-70.00
2025-06-12 13:42:20.134186,599618045952009248,-63.00
2025-06-12 13:42:20.134186,599618045952009248,-53.00
2025-06-12 13:42:20.134186,599618045952009248,-38.00
2025-06-12 13:42:20.134186,599618045952009248,-26.00
2025-06-12 13:42:20.134186,599618045952009248,-26.00
2025-06-12 13:42:20.134186,599618045952009248,-43.00
2025-06-12 13:42:20.134186,599618045952009248,-60.00
2025-06-12 13:42:20.134186,599618045952009248,-63.00
2025-06-12 13:42:20.134186,599618045952009248,-60.00
2025-06-12 13:42:20.134186,599618045952009248,-60.00
2025-06-12 13:42:20.134186,599618045952009248,-58.00
2025-06-12 13:42:20.134186,599618045952009248,-48.00
2025-06-12 13:42:20.134186,599618045952009248,-46.00
2025-06-12 13:42:20.134186,599618045952009248,-53.00
2025-06-12 13:42:20.134186,599618045952009248,-80.00
2025-06-12 13:42:20.134186,599618045952009248,-160.00
2025-06-12 13:42:20.134186,599618045952009248,-146.00
2025-06-12 13:42:20.675634,599618046512736807,304.00
2025-06-12 13:42:20.675634,599618046512736807,1099.00
2025-06-12 13:42:20.675634,599618046512736807,1311.00
2025-06-12 13:42:20.675634,599618046512736807,316.00
2025-06-12 13:42:20.675634,599618046512736807,-728.00
2025-06-12 13:42:20.675634,599618046512736807,-592.00
2025-06-12 13:42:20.675634,599618046512736807,-104.00
2025-06-12 13:42:20.675634,599618046512736807,-95.00
2025-06-12 13:42:20.675634,599618046512736807,-82.00
2025-06-12 13:42:20.675634,599618046512736807,63.00
2025-06-12 13:42:20.675634,599618046512736807,43.00
2025-06-12 13:42:20.675634,599618046512736807,-4.00
2025-06-12 13:42:20.675634,599618046512736807,48.00
2025-06-12 13:42:20.675634,599618046512736807,70.00
2025-06-12 13:42:20.675634,599618046512736807,53.00
2025-06-12 13:42:20.675634,599618046512736807,65.00
2025-06-12 13:42:20.675634,599618046512736807,87.00
2025-06-12 13:42:20.675634,599618046512736807,92.00
2025-06-12 13:42:20.675634,599618046512736807,109.00
2025-06-12 13:42:20.675634,599618046512736807,131.00
2025-06-12 13:42:20.675634,599618046512736807,146.00
2025-06-12 13:42:20.675634,599618046512736807,160.00
2025-06-12 13:42:20.675634,599618046512736807,185.00
2025-06-12 13:42:20.675634,599618046512736807,214.00
2025-06-12 13:42:20.675634,599618046512736807,246.00
2025-06-12 13:42:20.675634,599618046512736807,285.00
2025-06-12 13:42:20.675634,599618046512736807,331.00
2025-06-12 13:42:20.675634,599618046512736807,372.00
2025-06-12 13:42:20.675634,599618046512736807,411.00
2025-06-12 13:42:20.675634,599618046512736807,448.00
2025-06-12 13:42:20.675634,599618046512736807,470.00
2025-06-12 13:42:20.675634,599618046512736807,472.00
2025-06-12 13:42:20.675634,599618046512736807,443.00
2025-06-12 13:42:20.675634,599618046512736807,370.00
2025-06-12 13:42:20.675634,599618046512736807,248.00
2025-06-12 13:42:20.675634,599618046512736807,99.00
2025-06-12 13:42:20.675634,599618046512736807,-41.00
2025-06-12 13:42:20.675634,599618046512736807,-138.00
2025-06-12 13:42:20.675634,599618046512736807,-207.00
2025-06-12 13:42:20.675634,599618046512736807,-258.00
2025-06-12 13:42:20.675634,599618046512736807,-287.00
2025-06-12 13:42:20.675634,599618046512736807,-292.00
2025-06-12 13:42:20.675634,599618046512736807,-290.00
2025-06-12 13:42:20.675634,599618046512736807,-285.00
2025-06-12 13:42:20.675634,599618046512736807,-280.00
2025-06-12 13:42:20.675634,599618046512736807,-270.00
2025-06-12 13:42:20.675634,599618046512736807,-260.00
2025-06-12 13:42:20.675634,599618046512736807,-253.00
2025-06-12 13:42:20.675634,599618046512736807,-246.00
2025-06-12 13:42:20.675634,599618046512736807,-238.00
2025-06-12 13:42:20.675634,599618046512736807,-229.00
2025-06-12 13:42:20.675634,599618046512736807,-214.00
2025-06-12 13:42:20.675634,599618046512736807,-204.00
2025-06-12 13:42:20.675634,599618046512736807,-202.00
2025-06-12 13:42:20.675634,599618046512736807,-197.00
2025-06-12 13:42:20.675634,599618046512736807,-187.00
2025-06-12 13:42:20.675634,599618046512736807,-177.00
2025-06-12 13:42:20.675634,599618046512736807,-173.00
2025-06-12 13:42:20.675634,599618046512736807,-163.00
2025-06-12 13:42:20.675634,599618046512736807,-153.00
2025-06-12 13:42:20.675634,599618046512736807,-143.00
2025-06-12 13:42:20.675634,599618046512736807,-141.00
2025-06-12 13:42:20.675634,599618046512736807,-141.00
2025-06-12 13:42:20.675634,599618046512736807,-136.00
2025-06-12 13:42:20.675634,599618046512736807,-124.00
2025-06-12 13:42:20.675634,599618046512736807,-121.00
2025-06-12 13:42:20.675634,599618046512736807,-121.00
2025-06-12 13:42:20.675634,599618046512736807,-121.00
2025-06-12 13:42:20.675634,599618046512736807,-121.00
2025-06-12 13:42:20.675634,599618046512736807,-119.00
2025-06-12 13:42:20.675634,599618046512736807,-114.00
2025-06-12 13:42:20.675634,599618046512736807,-112.00
2025-06-12 13:42:20.675634,599618046512736807,-109.00
2025-06-12 13:42:21.246452,599618047073494884,-104.00
2025-06-12 13:42:21.246452,599618047073494884,-97.00
2025-06-12 13:42:21.246452,599618047073494884,-95.00
2025-06-12 13:42:21.246452,599618047073494884,-102.00
2025-06-12 13:42:21.246452,599618047073494884,-107.00
2025-06-12 13:42:21.246452,599618047073494884,-99.00
2025-06-12 13:42:21.246452,599618047073494884,-90.00
2025-06-12 13:42:21.246452,599618047073494884,-92.00
2025-06-12 13:42:21.246452,599618047073494884,-92.00
2025-06-12 13:42:21.246452,599618047073494884,-80.00
2025-06-12 13:42:21.246452,599618047073494884,-77.00
2025-06-12 13:42:21.246452,599618047073494884,-82.00
2025-06-12 13:42:21.246452,599618047073494884,-87.00
2025-06-12 13:42:21.246452,599618047073494884,-80.00
2025-06-12 13:42:21.246452,599618047073494884,-70.00
2025-06-12 13:42:21.246452,599618047073494884,-77.00
2025-06-12 13:42:21.246452,599618047073494884,-82.00
2025-06-12 13:42:21.246452,599618047073494884,-80.00
2025-06-12 13:42:21.246452,599618047073494884,-73.00
2025-06-12 13:42:21.246452,599618047073494884,-63.00
2025-06-12 13:42:21.246452,599618047073494884,-65.00
2025-06-12 13:42:21.246452,599618047073494884,-75.00
2025-06-12 13:42:21.246452,599618047073494884,-68.00
2025-06-12 13:42:21.246452,599618047073494884,-53.00
2025-06-12 13:42:21.246452,599618047073494884,-63.00
2025-06-12 13:42:21.246452,599618047073494884,-73.00
2025-06-12 13:42:21.246452,599618047073494884,-58.00
2025-06-12 13:42:21.246452,599618047073494884,-53.00
2025-06-12 13:42:21.246452,599618047073494884,-65.00
2025-06-12 13:42:21.246452,599618047073494884,-68.00
2025-06-12 13:42:21.246452,599618047073494884,-58.00
2025-06-12 13:42:21.246452,599618047073494884,-48.00
2025-06-12 13:42:21.246452,599618047073494884,-43.00
2025-06-12 13:42:21.246452,599618047073494884,-43.00
2025-06-12 13:42:21.246452,599618047073494884,-26.00
2025-06-12 13:42:21.246452,599618047073494884,-4.00
2025-06-12 13:42:21.246452,599618047073494884,-17.00
2025-06-12 13:42:21.246452,599618047073494884,-51.00
2025-06-12 13:42:21.246452,599618047073494884,-60.00
2025-06-12 13:42:21.246452,599618047073494884,-51.00
2025-06-12 13:42:21.246452,599618047073494884,-43.00
2025-06-12 13:42:21.246452,599618047073494884,-43.00
2025-06-12 13:42:21.246452,599618047073494884,-48.00
2025-06-12 13:42:21.246452,599618047073494884,-43.00
2025-06-12 13:42:21.246452,599618047073494884,-38.00
2025-06-12 13:42:21.246452,599618047073494884,-51.00
2025-06-12 13:42:21.246452,599618047073494884,-102.00
2025-06-12 13:42:21.246452,599618047073494884,-177.00
2025-06-12 13:42:21.246452,599618047073494884,-56.00
2025-06-12 13:42:21.246452,599618047073494884,543.00
2025-06-12 13:42:21.246452,599618047073494884,1311.00
2025-06-12 13:42:21.246452,599618047073494884,1172.00
2025-06-12 13:42:21.246452,599618047073494884,-58.00
2025-06-12 13:42:21.246452,599618047073494884,-801.00
2025-06-12 13:42:21.246452,599618047073494884,-389.00
2025-06-12 13:42:21.246452,599618047073494884,-36.00
2025-06-12 13:42:21.246452,599618047073494884,-114.00
2025-06-12 13:42:21.246452,599618047073494884,-38.00
2025-06-12 13:42:21.246452,599618047073494884,73.00
2025-06-12 13:42:21.246452,599618047073494884,12.00
2025-06-12 13:42:21.246452,599618047073494884,-2.00
2025-06-12 13:42:21.246452,599618047073494884,51.00
2025-06-12 13:42:21.246452,599618047073494884,51.00
2025-06-12 13:42:21.246452,599618047073494884,41.00
2025-06-12 13:42:21.246452,599618047073494884,60.00
2025-06-12 13:42:21.246452,599618047073494884,75.00
2025-06-12 13:42:21.246452,599618047073494884,85.00
2025-06-12 13:42:21.246452,599618047073494884,92.00
2025-06-12 13:42:21.246452,599618047073494884,104.00
2025-06-12 13:42:21.246452,599618047073494884,124.00
2025-06-12 13:42:21.246452,599618047073494884,143.00
2025-06-12 13:42:21.246452,599618047073494884,168.00
2025-06-12 13:42:21.246452,599618047073494884,202.00
2025-06-12 13:42:21.872899,599618047634222445,236.00
2025-06-12 13:42:21.872899,599618047634222445,272.00
2025-06-12 13:42:21.872899,599618047634222445,314.00
2025-06-12 13:42:21.872899,599618047634222445,353.00
2025-06-12 13:42:21.872899,599618047634222445,397.00
2025-06-12 13:42:21.872899,599618047634222445,438.00
2025-06-12 13:42:21.872899,599618047634222445,460.00
2025-06-12 13:42:21.872899,599618047634222445,455.00
2025-06-12 13:42:21.872899,599618047634222445,419.00
2025-06-12 13:42:21.872899,599618047634222445,343.00
2025-06-12 13:42:21.872899,599618047634222445,219.00
2025-06-12 13:42:21.872899,599618047634222445,77.00
2025-06-12 13:42:21.872899,599618047634222445,-48.00
2025-06-12 13:42:21.872899,599618047634222445,-158.00
2025-06-12 13:42:21.872899,599618047634222445,-226.00
2025-06-12 13:42:21.872899,599618047634222445,-263.00
2025-06-12 13:42:21.872899,599618047634222445,-292.00
2025-06-12 13:42:21.872899,599618047634222445,-309.00
2025-06-12 13:42:21.872899,599618047634222445,-307.00
2025-06-12 13:42:21.872899,599618047634222445,-294.00
2025-06-12 13:42:21.872899,599618047634222445,-292.00
2025-06-12 13:42:21.872899,599618047634222445,-287.00
2025-06-12 13:42:21.872899,599618047634222445,-275.00
2025-06-12 13:42:21.872899,599618047634222445,-260.00
2025-06-12 13:42:21.872899,599618047634222445,-251.00
2025-06-12 13:42:21.872899,599618047634222445,-243.00
2025-06-12 13:42:21.872899,599618047634222445,-233.00
2025-06-12 13:42:21.872899,599618047634222445,-221.00
2025-06-12 13:42:21.872899,599618047634222445,-214.00
2025-06-12 13:42:21.872899,599618047634222445,-209.00
2025-06-12 13:42:21.872899,599618047634222445,-194.00
2025-06-12 13:42:21.872899,599618047634222445,-185.00
2025-06-12 13:42:21.872899,599618047634222445,-182.00
2025-06-12 13:42:21.872899,599618047634222445,-177.00
2025-06-12 13:42:21.872899,599618047634222445,-165.00
2025-06-12 13:42:21.872899,599618047634222445,-158.00
2025-06-12 13:42:21.872899,599618047634222445,-158.00
2025-06-12 13:42:21.872899,599618047634222445,-155.00
2025-06-12 13:42:21.872899,599618047634222445,-148.00
2025-06-12 13:42:21.872899,599618047634222445,-143.00
2025-06-12 13:42:21.872899,599618047634222445,-143.00
2025-06-12 13:42:21.872899,599618047634222445,-136.00
2025-06-12 13:42:21.872899,599618047634222445,-129.00
2025-06-12 13:42:21.872899,599618047634222445,-131.00
2025-06-12 13:42:21.872899,599618047634222445,-129.00
2025-06-12 13:42:21.872899,599618047634222445,-126.00
2025-06-12 13:42:21.872899,599618047634222445,-124.00
2025-06-12 13:42:21.872899,599618047634222445,-121.00
2025-06-12 13:42:21.872899,599618047634222445,-119.00
2025-06-12 13:42:21.872899,599618047634222445,-116.00
2025-06-12 13:42:21.872899,599618047634222445,-114.00
2025-06-12 13:42:21.872899,599618047634222445,-114.00
2025-06-12 13:42:21.872899,599618047634222445,-109.00
2025-06-12 13:42:21.872899,599618047634222445,-107.00
2025-06-12 13:42:21.872899,599618047634222445,-107.00
2025-06-12 13:42:21.872899,599618047634222445,-104.00
2025-06-12 13:42:21.872899,599618047634222445,-99.00
2025-06-12 13:42:21.872899,599618047634222445,-95.00
2025-06-12 13:42:21.872899,599618047634222445,-92.00
2025-06-12 13:42:21.872899,599618047634222445,-90.00
2025-06-12 13:42:21.872899,599618047634222445,-92.00
2025-06-12 13:42:21.872899,599618047634222445,-92.00
2025-06-12 13:42:21.872899,599618047634222445,-87.00
2025-06-12 13:42:21.872899,599618047634222445,-85.00
2025-06-12 13:42:21.872899,599618047634222445,-85.00
2025-06-12 13:42:21.872899,599618047634222445,-82.00
2025-06-12 13:42:21.872899,599618047634222445,-80.00
2025-06-12 13:42:21.872899,599618047634222445,-80.00
2025-06-12 13:42:21.872899,599618047634222445,-77.00
2025-06-12 13:42:21.872899,599618047634222445,-73.00
2025-06-12 13:42:21.872899,599618047634222445,-68.00
2025-06-12 13:42:21.872899,599618047634222445,-73.00
2025-06-12 13:42:21.872899,599618047634222445,-80.00
2025-06-12 13:42:22.383323,599618048194950004,-77.00
2025-06-12 13:42:22.383323,599618048194950004,-65.00
2025-06-12 13:42:22.383323,599618048194950004,-56.00
2025-06-12 13:42:22.383323,599618048194950004,-46.00
2025-06-12 13:42:22.383323,599618048194950004,-31.00
2025-06-12 13:42:22.383323,599618048194950004,-29.00
2025-06-12 13:42:22.383323,599618048194950004,-43.00
2025-06-12 13:42:22.383323,599618048194950004,-60.00
2025-06-12 13:42:22.383323,599618048194950004,-63.00
2025-06-12 13:42:22.383323,599618048194950004,-60.00
2025-06-12 13:42:22.383323,599618048194950004,-58.00
2025-06-12 13:42:22.383323,599618048194950004,-56.00
2025-06-12 13:42:22.383323,599618048194950004,-56.00
2025-06-12 13:42:22.383323,599618048194950004,-51.00
2025-06-12 13:42:22.383323,599618048194950004,-43.00
2025-06-12 13:42:22.383323,599618048194950004,-53.00
2025-06-12 13:42:22.383323,599618048194950004,-119.00
2025-06-12 13:42:22.383323,599618048194950004,-190.00
2025-06-12 13:42:22.383323,599618048194950004,36.00
2025-06-12 13:42:22.383323,599618048194950004,760.00
2025-06-12 13:42:22.383323,599618048194950004,1394.00
2025-06-12 13:42:22.383323,599618048194950004,894.00
2025-06-12 13:42:22.383323,599618048194950004,-380.00
2025-06-12 13:42:22.383323,599618048194950004,-767.00
2025-06-12 13:42:22.383323,599618048194950004,-246.00
2025-06-12 13:42:22.383323,599618048194950004,-41.00
2025-06-12 13:42:22.383323,599618048194950004,-104.00
2025-06-12 13:42:22.383323,599618048194950004,17.00
2025-06-12 13:42:22.383323,599618048194950004,73.00
2025-06-12 13:42:22.383323,599618048194950004,12.00
2025-06-12 13:42:22.383323,599618048194950004,36.00
2025-06-12 13:42:22.383323,599618048194950004,73.00
2025-06-12 13:42:22.383323,599618048194950004,58.00
2025-06-12 13:42:22.383323,599618048194950004,63.00
2025-06-12 13:42:22.383323,599618048194950004,90.00
2025-06-12 13:42:22.383323,599618048194950004,95.00
2025-06-12 13:42:22.383323,599618048194950004,104.00
2025-06-12 13:42:22.383323,599618048194950004,121.00
2025-06-12 13:42:22.383323,599618048194950004,138.00
2025-06-12 13:42:22.383323,599618048194950004,155.00
2025-06-12 13:42:22.383323,599618048194950004,177.00
2025-06-12 13:42:22.383323,599618048194950004,199.00
2025-06-12 13:42:22.383323,599618048194950004,229.00
2025-06-12 13:42:22.383323,599618048194950004,268.00
2025-06-12 13:42:22.383323,599618048194950004,309.00
2025-06-12 13:42:22.383323,599618048194950004,350.00
2025-06-12 13:42:22.383323,599618048194950004,394.00
2025-06-12 13:42:22.383323,599618048194950004,433.00
2025-06-12 13:42:22.383323,599618048194950004,467.00
2025-06-12 13:42:22.383323,599618048194950004,485.00
2025-06-12 13:42:22.383323,599618048194950004,475.00
2025-06-12 13:42:22.383323,599618048194950004,424.00
2025-06-12 13:42:22.383323,599618048194950004,324.00
2025-06-12 13:42:22.383323,599618048194950004,187.00
2025-06-12 13:42:22.383323,599618048194950004,41.00
2025-06-12 13:42:22.383323,599618048194950004,-82.00
2025-06-12 13:42:22.383323,599618048194950004,-173.00
2025-06-12 13:42:22.383323,599618048194950004,-233.00
2025-06-12 13:42:22.383323,599618048194950004,-270.00
2025-06-12 13:42:22.383323,599618048194950004,-285.00
2025-06-12 13:42:22.383323,599618048194950004,-292.00
2025-06-12 13:42:22.383323,599618048194950004,-290.00
2025-06-12 13:42:22.383323,599618048194950004,-280.00
2025-06-12 13:42:22.383323,599618048194950004,-275.00
2025-06-12 13:42:22.383323,599618048194950004,-270.00
2025-06-12 13:42:22.383323,599618048194950004,-258.00
2025-06-12 13:42:22.383323,599618048194950004,-248.00
2025-06-12 13:42:22.383323,599618048194950004,-241.00
2025-06-12 13:42:22.383323,599618048194950004,-233.00
2025-06-12 13:42:22.383323,599618048194950004,-226.00
2025-06-12 13:42:22.383323,599618048194950004,-216.00
2025-06-12 13:42:22.383323,599618048194950004,-204.00
2025-06-12 13:42:22.383323,599618048194950004,-199.00
2025-06-12 13:42:22.953705,599618048755677563,-194.00
2025-06-12 13:42:22.953705,599618048755677563,-185.00
2025-06-12 13:42:22.953705,599618048755677563,-173.00
2025-06-12 13:42:22.953705,599618048755677563,-165.00
2025-06-12 13:42:22.953705,599618048755677563,-158.00
2025-06-12 13:42:22.953705,599618048755677563,-155.00
2025-06-12 13:42:22.953705,599618048755677563,-151.00
2025-06-12 13:42:22.953705,599618048755677563,-141.00
2025-06-12 13:42:22.953705,599618048755677563,-134.00
2025-06-12 13:42:22.953705,599618048755677563,-126.00
2025-06-12 13:42:22.953705,599618048755677563,-124.00
2025-06-12 13:42:22.953705,599618048755677563,-121.00
2025-06-12 13:42:22.953705,599618048755677563,-114.00
2025-06-12 13:42:22.953705,599618048755677563,-109.00
2025-06-12 13:42:22.953705,599618048755677563,-109.00
2025-06-12 13:42:22.953705,599618048755677563,-109.00
2025-06-12 13:42:22.953705,599618048755677563,-104.00
2025-06-12 13:42:22.953705,599618048755677563,-102.00
2025-06-12 13:42:22.953705,599618048755677563,-102.00
2025-06-12 13:42:22.953705,599618048755677563,-99.00
2025-06-12 13:42:22.953705,599618048755677563,-99.00
2025-06-12 13:42:22.953705,599618048755677563,-97.00
2025-06-12 13:42:22.953705,599618048755677563,-95.00
2025-06-12 13:42:22.953705,599618048755677563,-92.00
2025-06-12 13:42:22.953705,599618048755677563,-92.00
2025-06-12 13:42:22.953705,599618048755677563,-90.00
2025-06-12 13:42:22.953705,599618048755677563,-87.00
2025-06-12 13:42:22.953705,599618048755677563,-87.00
2025-06-12 13:42:22.953705,599618048755677563,-85.00
2025-06-12 13:42:22.953705,599618048755677563,-85.00
2025-06-12 13:42:22.953705,599618048755677563,-85.00
2025-06-12 13:42:22.953705,599618048755677563,-82.00
2025-06-12 13:42:22.953705,599618048755677563,-77.00
2025-06-12 13:42:22.953705,599618048755677563,-75.00
2025-06-12 13:42:22.953705,599618048755677563,-75.00
2025-06-12 13:42:22.953705,599618048755677563,-73.00
2025-06-12 13:42:22.953705,599618048755677563,-70.00
2025-06-12 13:42:22.953705,599618048755677563,-70.00
2025-06-12 13:42:22.953705,599618048755677563,-73.00
2025-06-12 13:42:22.953705,599618048755677563,-70.00
2025-06-12 13:42:22.953705,599618048755677563,-65.00
2025-06-12 13:42:22.953705,599618048755677563,-63.00
2025-06-12 13:42:22.953705,599618048755677563,-63.00
2025-06-12 13:42:22.953705,599618048755677563,-70.00
2025-06-12 13:42:22.953705,599618048755677563,-73.00
2025-06-12 13:42:22.953705,599618048755677563,-65.00
2025-06-12 13:42:22.953705,599618048755677563,-58.00
2025-06-12 13:42:22.953705,599618048755677563,-48.00
2025-06-12 13:42:22.953705,599618048755677563,-41.00
2025-06-12 13:42:22.953705,599618048755677563,-31.00
2025-06-12 13:42:22.953705,599618048755677563,-34.00
2025-06-12 13:42:22.953705,599618048755677563,-48.00
2025-06-12 13:42:22.953705,599618048755677563,-65.00
2025-06-12 13:42:22.953705,599618048755677563,-65.00
2025-06-12 13:42:22.953705,599618048755677563,-63.00
2025-06-12 13:42:22.953705,599618048755677563,-60.00
2025-06-12 13:42:22.953705,599618048755677563,-58.00
2025-06-12 13:42:22.953705,599618048755677563,-56.00
2025-06-12 13:42:22.953705,599618048755677563,-56.00
2025-06-12 13:42:22.953705,599618048755677563,-56.00
2025-06-12 13:42:22.953705,599618048755677563,-80.00
2025-06-12 13:42:22.953705,599618048755677563,-163.00
2025-06-12 13:42:22.953705,599618048755677563,-170.00
2025-06-12 13:42:22.953705,599618048755677563,241.00
2025-06-12 13:42:22.953705,599618048755677563,1043.00
2025-06-12 13:42:22.953705,599618048755677563,1342.00
2025-06-12 13:42:22.953705,599618048755677563,411.00
2025-06-12 13:42:22.953705,599618048755677563,-684.00
2025-06-12 13:42:22.953705,599618048755677563,-609.00
2025-06-12 13:42:22.953705,599618048755677563,-107.00
2025-06-12 13:42:22.953705,599618048755677563,-85.00
2025-06-12 13:42:22.953705,599618048755677563,-90.00
2025-06-12 13:42:22.953705,599618048755677563,46.00
2025-06-12 13:42:23.494665,599618049316405122,34.00
2025-06-12 13:42:23.494665,599618049316405122,-7.00
2025-06-12 13:42:23.494665,599618049316405122,41.00
2025-06-12 13:42:23.494665,599618049316405122,58.00
2025-06-12 13:42:23.494665,599618049316405122,43.00
2025-06-12 13:42:23.494665,599618049316405122,65.00
2025-06-12 13:42:23.494665,599618049316405122,87.00
2025-06-12 13:42:23.494665,599618049316405122,87.00
2025-06-12 13:42:23.494665,599618049316405122,99.00
2025-06-12 13:42:23.494665,599618049316405122,121.00
2025-06-12 13:42:23.494665,599618049316405122,136.00
2025-06-12 13:42:23.494665,599618049316405122,153.00
2025-06-12 13:42:23.494665,599618049316405122,175.00
2025-06-12 13:42:23.494665,599618049316405122,204.00
2025-06-12 13:42:23.494665,599618049316405122,238.00
2025-06-12 13:42:23.494665,599618049316405122,272.00
2025-06-12 13:42:23.494665,599618049316405122,311.00
2025-06-12 13:42:23.494665,599618049316405122,358.00
