Timestamp,Device Timestamp (ns),ECG Value (uV)
2025-06-12 19:11:07.208734,599617757985392140,-138.00
2025-06-12 19:11:07.208734,599617757985392140,-140.00
2025-06-12 19:11:07.208734,599617757985392140,-143.00
2025-06-12 19:11:07.208734,599617757985392140,-145.00
2025-06-12 19:11:07.208734,599617757985392140,-133.00
2025-06-12 19:11:07.208734,599617757985392140,-123.00
2025-06-12 19:11:07.208734,599617757985392140,-123.00
2025-06-12 19:11:07.208734,599617757985392140,-121.00
2025-06-12 19:11:07.208734,599617757985392140,-119.00
2025-06-12 19:11:07.208734,599617757985392140,-119.00
2025-06-12 19:11:07.208734,599617757985392140,-121.00
2025-06-12 19:11:07.208734,599617757985392140,-126.00
2025-06-12 19:11:07.208734,599617757985392140,-119.00
2025-06-12 19:11:07.208734,599617757985392140,-114.00
2025-06-12 19:11:07.208734,599617757985392140,-123.00
2025-06-12 19:11:07.208734,599617757985392140,-123.00
2025-06-12 19:11:07.208734,599617757985392140,-119.00
2025-06-12 19:11:07.208734,599617757985392140,-128.00
2025-06-12 19:11:07.208734,599617757985392140,-126.00
2025-06-12 19:11:07.208734,599617757985392140,-97.00
2025-06-12 19:11:07.208734,599617757985392140,-70.00
2025-06-12 19:11:07.208734,599617757985392140,-65.00
2025-06-12 19:11:07.208734,599617757985392140,-77.00
2025-06-12 19:11:07.208734,599617757985392140,-89.00
2025-06-12 19:11:07.208734,599617757985392140,-85.00
2025-06-12 19:11:07.208734,599617757985392140,-80.00
2025-06-12 19:11:07.208734,599617757985392140,-82.00
2025-06-12 19:11:07.208734,599617757985392140,-82.00
2025-06-12 19:11:07.208734,599617757985392140,-80.00
2025-06-12 19:11:07.208734,599617757985392140,-82.00
2025-06-12 19:11:07.208734,599617757985392140,-80.00
2025-06-12 19:11:07.208734,599617757985392140,-80.00
2025-06-12 19:11:07.208734,599617757985392140,-85.00
2025-06-12 19:11:07.208734,599617757985392140,-75.00
2025-06-12 19:11:07.208734,599617757985392140,-65.00
2025-06-12 19:11:07.208734,599617757985392140,-77.00
2025-06-12 19:11:07.208734,599617757985392140,-72.00
2025-06-12 19:11:07.208734,599617757985392140,119.00
2025-06-12 19:11:07.208734,599617757985392140,680.00
2025-06-12 19:11:07.208734,599617757985392140,1360.00
2025-06-12 19:11:07.208734,599617757985392140,1634.00
2025-06-12 19:11:07.208734,599617757985392140,1136.00
2025-06-12 19:11:07.208734,599617757985392140,63.00
2025-06-12 19:11:07.208734,599617757985392140,-529.00
2025-06-12 19:11:07.208734,599617757985392140,-252.00
2025-06-12 19:11:07.208734,599617757985392140,-65.00
2025-06-12 19:11:07.208734,599617757985392140,-223.00
2025-06-12 19:11:07.208734,599617757985392140,-216.00
2025-06-12 19:11:07.208734,599617757985392140,-121.00
2025-06-12 19:11:07.208734,599617757985392140,-150.00
2025-06-12 19:11:07.208734,599617757985392140,-162.00
2025-06-12 19:11:07.208734,599617757985392140,-116.00
2025-06-12 19:11:07.208734,599617757985392140,-111.00
2025-06-12 19:11:07.208734,599617757985392140,-111.00
2025-06-12 19:11:07.208734,599617757985392140,-82.00
2025-06-12 19:11:07.208734,599617757985392140,-72.00
2025-06-12 19:11:07.208734,599617757985392140,-68.00
2025-06-12 19:11:07.208734,599617757985392140,-41.00
2025-06-12 19:11:07.208734,599617757985392140,-19.00
2025-06-12 19:11:07.208734,599617757985392140,-9.00
2025-06-12 19:11:07.208734,599617757985392140,14.00
2025-06-12 19:11:07.208734,599617757985392140,41.00
2025-06-12 19:11:07.208734,599617757985392140,63.00
2025-06-12 19:11:07.208734,599617757985392140,99.00
2025-06-12 19:11:07.208734,599617757985392140,138.00
2025-06-12 19:11:07.208734,599617757985392140,162.00
2025-06-12 19:11:07.208734,599617757985392140,194.00
2025-06-12 19:11:07.208734,599617757985392140,221.00
2025-06-12 19:11:07.208734,599617757985392140,218.00
2025-06-12 19:11:07.208734,599617757985392140,208.00
2025-06-12 19:11:07.208734,599617757985392140,196.00
2025-06-12 19:11:07.208734,599617757985392140,165.00
2025-06-12 19:11:07.208734,599617757985392140,109.00
2025-06-12 19:11:07.808116,599617758546211255,36.00
2025-06-12 19:11:07.808116,599617758546211255,-48.00
2025-06-12 19:11:07.808116,599617758546211255,-123.00
2025-06-12 19:11:07.808116,599617758546211255,-177.00
2025-06-12 19:11:07.808116,599617758546211255,-218.00
2025-06-12 19:11:07.808116,599617758546211255,-240.00
2025-06-12 19:11:07.808116,599617758546211255,-247.00
2025-06-12 19:11:07.808116,599617758546211255,-247.00
2025-06-12 19:11:07.808116,599617758546211255,-242.00
2025-06-12 19:11:07.808116,599617758546211255,-238.00
2025-06-12 19:11:07.808116,599617758546211255,-238.00
2025-06-12 19:11:07.808116,599617758546211255,-230.00
2025-06-12 19:11:07.808116,599617758546211255,-216.00
2025-06-12 19:11:07.808116,599617758546211255,-201.00
2025-06-12 19:11:07.808116,599617758546211255,-189.00
2025-06-12 19:11:07.808116,599617758546211255,-174.00
2025-06-12 19:11:07.808116,599617758546211255,-167.00
2025-06-12 19:11:07.808116,599617758546211255,-167.00
2025-06-12 19:11:07.808116,599617758546211255,-160.00
2025-06-12 19:11:07.808116,599617758546211255,-153.00
2025-06-12 19:11:07.808116,599617758546211255,-150.00
2025-06-12 19:11:07.808116,599617758546211255,-153.00
2025-06-12 19:11:07.808116,599617758546211255,-148.00
2025-06-12 19:11:07.808116,599617758546211255,-138.00
2025-06-12 19:11:07.808116,599617758546211255,-138.00
2025-06-12 19:11:07.808116,599617758546211255,-140.00
2025-06-12 19:11:07.808116,599617758546211255,-138.00
2025-06-12 19:11:07.808116,599617758546211255,-136.00
2025-06-12 19:11:07.808116,599617758546211255,-143.00
2025-06-12 19:11:07.808116,599617758546211255,-148.00
2025-06-12 19:11:07.808116,599617758546211255,-140.00
2025-06-12 19:11:07.808116,599617758546211255,-128.00
2025-06-12 19:11:07.808116,599617758546211255,-133.00
2025-06-12 19:11:07.808116,599617758546211255,-136.00
2025-06-12 19:11:07.808116,599617758546211255,-131.00
2025-06-12 19:11:07.808116,599617758546211255,-128.00
2025-06-12 19:11:07.808116,599617758546211255,-126.00
2025-06-12 19:11:07.808116,599617758546211255,-121.00
2025-06-12 19:11:07.808116,599617758546211255,-114.00
2025-06-12 19:11:07.808116,599617758546211255,-116.00
2025-06-12 19:11:07.808116,599617758546211255,-123.00
2025-06-12 19:11:07.808116,599617758546211255,-126.00
2025-06-12 19:11:07.808116,599617758546211255,-126.00
2025-06-12 19:11:07.808116,599617758546211255,-128.00
2025-06-12 19:11:07.808116,599617758546211255,-133.00
2025-06-12 19:11:07.808116,599617758546211255,-131.00
2025-06-12 19:11:07.808116,599617758546211255,-109.00
2025-06-12 19:11:07.808116,599617758546211255,-80.00
2025-06-12 19:11:07.808116,599617758546211255,-65.00
2025-06-12 19:11:07.808116,599617758546211255,-72.00
2025-06-12 19:11:07.808116,599617758546211255,-92.00
2025-06-12 19:11:07.808116,599617758546211255,-97.00
2025-06-12 19:11:07.808116,599617758546211255,-92.00
2025-06-12 19:11:07.808116,599617758546211255,-89.00
2025-06-12 19:11:07.808116,599617758546211255,-87.00
2025-06-12 19:11:07.808116,599617758546211255,-82.00
2025-06-12 19:11:07.808116,599617758546211255,-80.00
2025-06-12 19:11:07.808116,599617758546211255,-85.00
2025-06-12 19:11:07.808116,599617758546211255,-89.00
2025-06-12 19:11:07.808116,599617758546211255,-87.00
2025-06-12 19:11:07.808116,599617758546211255,-82.00
2025-06-12 19:11:07.808116,599617758546211255,-77.00
2025-06-12 19:11:07.808116,599617758546211255,-80.00
2025-06-12 19:11:07.808116,599617758546211255,-94.00
2025-06-12 19:11:07.808116,599617758546211255,-24.00
2025-06-12 19:11:07.808116,599617758546211255,364.00
2025-06-12 19:11:07.808116,599617758546211255,1032.00
2025-06-12 19:11:07.808116,599617758546211255,1561.00
2025-06-12 19:11:07.808116,599617758546211255,1484.00
2025-06-12 19:11:07.808116,599617758546211255,587.00
2025-06-12 19:11:07.808116,599617758546211255,-376.00
2025-06-12 19:11:07.808116,599617758546211255,-427.00
2025-06-12 19:11:07.808116,599617758546211255,-85.00
2025-06-12 19:11:08.380284,599617759107010022,-143.00
2025-06-12 19:11:08.380284,599617759107010022,-247.00
2025-06-12 19:11:08.380284,599617759107010022,-153.00
2025-06-12 19:11:08.380284,599617759107010022,-133.00
2025-06-12 19:11:08.380284,599617759107010022,-174.00
2025-06-12 19:11:08.380284,599617759107010022,-145.00
2025-06-12 19:11:08.380284,599617759107010022,-121.00
2025-06-12 19:11:08.380284,599617759107010022,-126.00
2025-06-12 19:11:08.380284,599617759107010022,-102.00
2025-06-12 19:11:08.380284,599617759107010022,-72.00
2025-06-12 19:11:08.380284,599617759107010022,-70.00
2025-06-12 19:11:08.380284,599617759107010022,-60.00
2025-06-12 19:11:08.380284,599617759107010022,-46.00
2025-06-12 19:11:08.380284,599617759107010022,-26.00
2025-06-12 19:11:08.380284,599617759107010022,-2.00
2025-06-12 19:11:08.380284,599617759107010022,17.00
2025-06-12 19:11:08.380284,599617759107010022,31.00
2025-06-12 19:11:08.380284,599617759107010022,68.00
2025-06-12 19:11:08.380284,599617759107010022,109.00
2025-06-12 19:11:08.380284,599617759107010022,136.00
2025-06-12 19:11:08.380284,599617759107010022,162.00
2025-06-12 19:11:08.380284,599617759107010022,184.00
2025-06-12 19:11:08.380284,599617759107010022,191.00
2025-06-12 19:11:08.380284,599617759107010022,189.00
2025-06-12 19:11:08.380284,599617759107010022,182.00
2025-06-12 19:11:08.380284,599617759107010022,167.00
2025-06-12 19:11:08.380284,599617759107010022,140.00
2025-06-12 19:11:08.380284,599617759107010022,82.00
2025-06-12 19:11:08.380284,599617759107010022,0.00
2025-06-12 19:11:08.380284,599617759107010022,-75.00
2025-06-12 19:11:08.380284,599617759107010022,-136.00
2025-06-12 19:11:08.380284,599617759107010022,-182.00
2025-06-12 19:11:08.380284,599617759107010022,-211.00
2025-06-12 19:11:08.380284,599617759107010022,-230.00
2025-06-12 19:11:08.380284,599617759107010022,-240.00
2025-06-12 19:11:08.380284,599617759107010022,-235.00
2025-06-12 19:11:08.380284,599617759107010022,-225.00
2025-06-12 19:11:08.380284,599617759107010022,-221.00
2025-06-12 19:11:08.380284,599617759107010022,-213.00
2025-06-12 19:11:08.380284,599617759107010022,-204.00
2025-06-12 19:11:08.380284,599617759107010022,-194.00
2025-06-12 19:11:08.380284,599617759107010022,-184.00
2025-06-12 19:11:08.380284,599617759107010022,-177.00
2025-06-12 19:11:08.380284,599617759107010022,-162.00
2025-06-12 19:11:08.380284,599617759107010022,-157.00
2025-06-12 19:11:08.380284,599617759107010022,-157.00
2025-06-12 19:11:08.380284,599617759107010022,-153.00
2025-06-12 19:11:08.380284,599617759107010022,-145.00
2025-06-12 19:11:08.380284,599617759107010022,-145.00
2025-06-12 19:11:08.380284,599617759107010022,-136.00
2025-06-12 19:11:08.380284,599617759107010022,-133.00
2025-06-12 19:11:08.380284,599617759107010022,-143.00
2025-06-12 19:11:08.380284,599617759107010022,-140.00
2025-06-12 19:11:08.380284,599617759107010022,-126.00
2025-06-12 19:11:08.380284,599617759107010022,-133.00
2025-06-12 19:11:08.380284,599617759107010022,-140.00
2025-06-12 19:11:08.380284,599617759107010022,-133.00
2025-06-12 19:11:08.380284,599617759107010022,-131.00
2025-06-12 19:11:08.380284,599617759107010022,-133.00
2025-06-12 19:11:08.380284,599617759107010022,-131.00
2025-06-12 19:11:08.380284,599617759107010022,-128.00
2025-06-12 19:11:08.380284,599617759107010022,-121.00
2025-06-12 19:11:08.380284,599617759107010022,-119.00
2025-06-12 19:11:08.380284,599617759107010022,-123.00
2025-06-12 19:11:08.380284,599617759107010022,-128.00
2025-06-12 19:11:08.380284,599617759107010022,-121.00
2025-06-12 19:11:08.380284,599617759107010022,-123.00
2025-06-12 19:11:08.380284,599617759107010022,-128.00
2025-06-12 19:11:08.380284,599617759107010022,-123.00
2025-06-12 19:11:08.380284,599617759107010022,-123.00
2025-06-12 19:11:08.380284,599617759107010022,-128.00
2025-06-12 19:11:08.380284,599617759107010022,-116.00
2025-06-12 19:11:08.380284,599617759107010022,-87.00
2025-06-12 19:11:08.926046,599617759667818963,-60.00
2025-06-12 19:11:08.926046,599617759667818963,-65.00
2025-06-12 19:11:08.926046,599617759667818963,-97.00
2025-06-12 19:11:08.926046,599617759667818963,-99.00
2025-06-12 19:11:08.926046,599617759667818963,-82.00
2025-06-12 19:11:08.926046,599617759667818963,-85.00
2025-06-12 19:11:08.926046,599617759667818963,-87.00
2025-06-12 19:11:08.926046,599617759667818963,-82.00
2025-06-12 19:11:08.926046,599617759667818963,-80.00
2025-06-12 19:11:08.926046,599617759667818963,-87.00
2025-06-12 19:11:08.926046,599617759667818963,-87.00
2025-06-12 19:11:08.926046,599617759667818963,-82.00
2025-06-12 19:11:08.926046,599617759667818963,-80.00
2025-06-12 19:11:08.926046,599617759667818963,-77.00
2025-06-12 19:11:08.926046,599617759667818963,-77.00
2025-06-12 19:11:08.926046,599617759667818963,-87.00
2025-06-12 19:11:08.926046,599617759667818963,-12.00
2025-06-12 19:11:08.926046,599617759667818963,393.00
2025-06-12 19:11:08.926046,599617759667818963,1071.00
2025-06-12 19:11:08.926046,599617759667818963,1576.00
2025-06-12 19:11:08.926046,599617759667818963,1433.00
2025-06-12 19:11:08.926046,599617759667818963,490.00
2025-06-12 19:11:08.926046,599617759667818963,-422.00
2025-06-12 19:11:08.926046,599617759667818963,-391.00
2025-06-12 19:11:08.926046,599617759667818963,-53.00
2025-06-12 19:11:08.926046,599617759667818963,-145.00
2025-06-12 19:11:08.926046,599617759667818963,-245.00
2025-06-12 19:11:08.926046,599617759667818963,-145.00
2025-06-12 19:11:08.926046,599617759667818963,-138.00
2025-06-12 19:11:08.926046,599617759667818963,-179.00
2025-06-12 19:11:08.926046,599617759667818963,-138.00
2025-06-12 19:11:08.926046,599617759667818963,-104.00
2025-06-12 19:11:08.926046,599617759667818963,-114.00
2025-06-12 19:11:08.926046,599617759667818963,-104.00
2025-06-12 19:11:08.926046,599617759667818963,-82.00
2025-06-12 19:11:08.926046,599617759667818963,-70.00
2025-06-12 19:11:08.926046,599617759667818963,-63.00
2025-06-12 19:11:08.926046,599617759667818963,-53.00
2025-06-12 19:11:08.926046,599617759667818963,-31.00
2025-06-12 19:11:08.926046,599617759667818963,-2.00
2025-06-12 19:11:08.926046,599617759667818963,17.00
2025-06-12 19:11:08.926046,599617759667818963,38.00
2025-06-12 19:11:08.926046,599617759667818963,75.00
2025-06-12 19:11:08.926046,599617759667818963,106.00
2025-06-12 19:11:08.926046,599617759667818963,128.00
2025-06-12 19:11:08.926046,599617759667818963,153.00
2025-06-12 19:11:08.926046,599617759667818963,182.00
2025-06-12 19:11:08.926046,599617759667818963,199.00
2025-06-12 19:11:08.926046,599617759667818963,191.00
2025-06-12 19:11:08.926046,599617759667818963,170.00
2025-06-12 19:11:08.926046,599617759667818963,150.00
2025-06-12 19:11:08.926046,599617759667818963,119.00
2025-06-12 19:11:08.926046,599617759667818963,55.00
2025-06-12 19:11:08.926046,599617759667818963,-17.00
2025-06-12 19:11:08.926046,599617759667818963,-89.00
2025-06-12 19:11:08.926046,599617759667818963,-150.00
2025-06-12 19:11:08.926046,599617759667818963,-189.00
2025-06-12 19:11:08.926046,599617759667818963,-218.00
2025-06-12 19:11:08.926046,599617759667818963,-235.00
2025-06-12 19:11:08.926046,599617759667818963,-240.00
2025-06-12 19:11:08.926046,599617759667818963,-238.00
2025-06-12 19:11:08.926046,599617759667818963,-233.00
2025-06-12 19:11:08.926046,599617759667818963,-221.00
2025-06-12 19:11:08.926046,599617759667818963,-208.00
2025-06-12 19:11:08.926046,599617759667818963,-206.00
2025-06-12 19:11:08.926046,599617759667818963,-199.00
2025-06-12 19:11:08.926046,599617759667818963,-184.00
2025-06-12 19:11:08.926046,599617759667818963,-170.00
2025-06-12 19:11:08.926046,599617759667818963,-162.00
2025-06-12 19:11:08.926046,599617759667818963,-160.00
2025-06-12 19:11:08.926046,599617759667818963,-150.00
2025-06-12 19:11:08.926046,599617759667818963,-145.00
2025-06-12 19:11:08.926046,599617759667818963,-143.00
2025-06-12 19:11:09.461065,599617760228627902,-138.00
2025-06-12 19:11:09.461065,599617760228627902,-128.00
2025-06-12 19:11:09.461065,599617760228627902,-126.00
2025-06-12 19:11:09.461065,599617760228627902,-133.00
2025-06-12 19:11:09.461065,599617760228627902,-138.00
2025-06-12 19:11:09.461065,599617760228627902,-133.00
2025-06-12 19:11:09.461065,599617760228627902,-133.00
2025-06-12 19:11:09.461065,599617760228627902,-133.00
2025-06-12 19:11:09.461065,599617760228627902,-123.00
2025-06-12 19:11:09.461065,599617760228627902,-123.00
2025-06-12 19:11:09.461065,599617760228627902,-126.00
2025-06-12 19:11:09.461065,599617760228627902,-119.00
2025-06-12 19:11:09.461065,599617760228627902,-114.00
2025-06-12 19:11:09.461065,599617760228627902,-116.00
2025-06-12 19:11:09.461065,599617760228627902,-116.00
2025-06-12 19:11:09.461065,599617760228627902,-116.00
2025-06-12 19:11:09.461065,599617760228627902,-121.00
2025-06-12 19:11:09.461065,599617760228627902,-128.00
2025-06-12 19:11:09.461065,599617760228627902,-126.00
2025-06-12 19:11:09.461065,599617760228627902,-126.00
2025-06-12 19:11:09.461065,599617760228627902,-126.00
2025-06-12 19:11:09.461065,599617760228627902,-99.00
2025-06-12 19:11:09.461065,599617760228627902,-60.00
2025-06-12 19:11:09.461065,599617760228627902,-55.00
2025-06-12 19:11:09.461065,599617760228627902,-85.00
2025-06-12 19:11:09.461065,599617760228627902,-99.00
2025-06-12 19:11:09.461065,599617760228627902,-92.00
2025-06-12 19:11:09.461065,599617760228627902,-85.00
2025-06-12 19:11:09.461065,599617760228627902,-82.00
2025-06-12 19:11:09.461065,599617760228627902,-80.00
2025-06-12 19:11:09.461065,599617760228627902,-82.00
2025-06-12 19:11:09.461065,599617760228627902,-87.00
2025-06-12 19:11:09.461065,599617760228627902,-82.00
2025-06-12 19:11:09.461065,599617760228627902,-77.00
2025-06-12 19:11:09.461065,599617760228627902,-72.00
2025-06-12 19:11:09.461065,599617760228627902,-72.00
2025-06-12 19:11:09.461065,599617760228627902,-77.00
2025-06-12 19:11:09.461065,599617760228627902,-87.00
2025-06-12 19:11:09.461065,599617760228627902,-63.00
2025-06-12 19:11:09.461065,599617760228627902,196.00
2025-06-12 19:11:09.461065,599617760228627902,806.00
2025-06-12 19:11:09.461065,599617760228627902,1438.00
2025-06-12 19:11:09.461065,599617760228627902,1593.00
2025-06-12 19:11:09.461065,599617760228627902,927.00
2025-06-12 19:11:09.461065,599617760228627902,-150.00
2025-06-12 19:11:09.461065,599617760228627902,-510.00
2025-06-12 19:11:09.461065,599617760228627902,-150.00
2025-06-12 19:11:09.461065,599617760228627902,-72.00
2025-06-12 19:11:09.461065,599617760228627902,-233.00
2025-06-12 19:11:09.461065,599617760228627902,-179.00
2025-06-12 19:11:09.461065,599617760228627902,-116.00
2025-06-12 19:11:09.461065,599617760228627902,-160.00
2025-06-12 19:11:09.461065,599617760228627902,-148.00
2025-06-12 19:11:09.461065,599617760228627902,-109.00
2025-06-12 19:11:09.461065,599617760228627902,-111.00
2025-06-12 19:11:09.461065,599617760228627902,-102.00
2025-06-12 19:11:09.461065,599617760228627902,-77.00
2025-06-12 19:11:09.461065,599617760228627902,-68.00
2025-06-12 19:11:09.461065,599617760228627902,-55.00
2025-06-12 19:11:09.461065,599617760228627902,-34.00
2025-06-12 19:11:09.461065,599617760228627902,-17.00
2025-06-12 19:11:09.461065,599617760228627902,-4.00
2025-06-12 19:11:09.461065,599617760228627902,17.00
2025-06-12 19:11:09.461065,599617760228627902,38.00
2025-06-12 19:11:09.461065,599617760228627902,70.00
2025-06-12 19:11:09.461065,599617760228627902,104.00
2025-06-12 19:11:09.461065,599617760228627902,136.00
2025-06-12 19:11:09.461065,599617760228627902,162.00
2025-06-12 19:11:09.461065,599617760228627902,189.00
2025-06-12 19:11:09.461065,599617760228627902,201.00
2025-06-12 19:11:09.461065,599617760228627902,199.00
2025-06-12 19:11:09.461065,599617760228627902,191.00
2025-06-12 19:11:09.461065,599617760228627902,174.00
2025-06-12 19:11:10.031257,599617760789426671,131.00
2025-06-12 19:11:10.031257,599617760789426671,72.00
2025-06-12 19:11:10.031257,599617760789426671,7.00
2025-06-12 19:11:10.031257,599617760789426671,-63.00
2025-06-12 19:11:10.031257,599617760789426671,-128.00
2025-06-12 19:11:10.031257,599617760789426671,-172.00
2025-06-12 19:11:10.031257,599617760789426671,-194.00
2025-06-12 19:11:10.031257,599617760789426671,-216.00
2025-06-12 19:11:10.031257,599617760789426671,-228.00
2025-06-12 19:11:10.031257,599617760789426671,-223.00
2025-06-12 19:11:10.031257,599617760789426671,-218.00
2025-06-12 19:11:10.031257,599617760789426671,-221.00
2025-06-12 19:11:10.031257,599617760789426671,-213.00
2025-06-12 19:11:10.031257,599617760789426671,-199.00
2025-06-12 19:11:10.031257,599617760789426671,-191.00
2025-06-12 19:11:10.031257,599617760789426671,-174.00
2025-06-12 19:11:10.031257,599617760789426671,-153.00
2025-06-12 19:11:10.031257,599617760789426671,-145.00
2025-06-12 19:11:10.031257,599617760789426671,-148.00
2025-06-12 19:11:10.031257,599617760789426671,-145.00
2025-06-12 19:11:10.031257,599617760789426671,-140.00
2025-06-12 19:11:10.031257,599617760789426671,-138.00
2025-06-12 19:11:10.031257,599617760789426671,-138.00
2025-06-12 19:11:10.031257,599617760789426671,-133.00
2025-06-12 19:11:10.031257,599617760789426671,-126.00
2025-06-12 19:11:10.031257,599617760789426671,-126.00
2025-06-12 19:11:10.031257,599617760789426671,-126.00
2025-06-12 19:11:10.031257,599617760789426671,-128.00
2025-06-12 19:11:10.031257,599617760789426671,-126.00
2025-06-12 19:11:10.031257,599617760789426671,-123.00
2025-06-12 19:11:10.031257,599617760789426671,-123.00
2025-06-12 19:11:10.031257,599617760789426671,-121.00
2025-06-12 19:11:10.031257,599617760789426671,-116.00
2025-06-12 19:11:10.031257,599617760789426671,-119.00
2025-06-12 19:11:10.031257,599617760789426671,-121.00
2025-06-12 19:11:10.031257,599617760789426671,-119.00
2025-06-12 19:11:10.031257,599617760789426671,-114.00
2025-06-12 19:11:10.031257,599617760789426671,-121.00
2025-06-12 19:11:10.031257,599617760789426671,-131.00
2025-06-12 19:11:10.031257,599617760789426671,-121.00
2025-06-12 19:11:10.031257,599617760789426671,-82.00
2025-06-12 19:11:10.031257,599617760789426671,-68.00
2025-06-12 19:11:10.031257,599617760789426671,-87.00
2025-06-12 19:11:10.031257,599617760789426671,-97.00
2025-06-12 19:11:10.031257,599617760789426671,-87.00
2025-06-12 19:11:10.031257,599617760789426671,-80.00
2025-06-12 19:11:10.031257,599617760789426671,-80.00
2025-06-12 19:11:10.031257,599617760789426671,-80.00
2025-06-12 19:11:10.031257,599617760789426671,-77.00
2025-06-12 19:11:10.031257,599617760789426671,-70.00
2025-06-12 19:11:10.031257,599617760789426671,-65.00
2025-06-12 19:11:10.031257,599617760789426671,-72.00
2025-06-12 19:11:10.031257,599617760789426671,-77.00
2025-06-12 19:11:10.031257,599617760789426671,-70.00
2025-06-12 19:11:10.031257,599617760789426671,-63.00
2025-06-12 19:11:10.031257,599617760789426671,-70.00
2025-06-12 19:11:10.031257,599617760789426671,-58.00
2025-06-12 19:11:10.031257,599617760789426671,148.00
2025-06-12 19:11:10.031257,599617760789426671,716.00
2025-06-12 19:11:10.031257,599617760789426671,1377.00
2025-06-12 19:11:10.031257,599617760789426671,1625.00
2025-06-12 19:11:10.031257,599617760789426671,1112.00
2025-06-12 19:11:10.031257,599617760789426671,38.00
2025-06-12 19:11:10.031257,599617760789426671,-529.00
2025-06-12 19:11:10.031257,599617760789426671,-240.00
2025-06-12 19:11:10.031257,599617760789426671,-60.00
2025-06-12 19:11:10.031257,599617760789426671,-213.00
2025-06-12 19:11:10.031257,599617760789426671,-196.00
2025-06-12 19:11:10.031257,599617760789426671,-111.00
2025-06-12 19:11:10.031257,599617760789426671,-140.00
2025-06-12 19:11:10.031257,599617760789426671,-143.00
2025-06-12 19:11:10.031257,599617760789426671,-109.00
2025-06-12 19:11:10.031257,599617760789426671,-114.00
2025-06-12 19:11:10.571018,599617761350245782,-99.00
2025-06-12 19:11:10.571018,599617761350245782,-68.00
2025-06-12 19:11:10.571018,599617761350245782,-63.00
2025-06-12 19:11:10.571018,599617761350245782,-60.00
2025-06-12 19:11:10.571018,599617761350245782,-36.00
2025-06-12 19:11:10.571018,599617761350245782,-4.00
2025-06-12 19:11:10.571018,599617761350245782,9.00
2025-06-12 19:11:10.571018,599617761350245782,21.00
2025-06-12 19:11:10.571018,599617761350245782,53.00
2025-06-12 19:11:10.571018,599617761350245782,87.00
2025-06-12 19:11:10.571018,599617761350245782,119.00
2025-06-12 19:11:10.571018,599617761350245782,155.00
2025-06-12 19:11:10.571018,599617761350245782,199.00
2025-06-12 19:11:10.571018,599617761350245782,223.00
2025-06-12 19:11:10.571018,599617761350245782,216.00
2025-06-12 19:11:10.571018,599617761350245782,211.00
2025-06-12 19:11:10.571018,599617761350245782,216.00
2025-06-12 19:11:10.571018,599617761350245782,194.00
2025-06-12 19:11:10.571018,599617761350245782,148.00
2025-06-12 19:11:10.571018,599617761350245782,92.00
2025-06-12 19:11:10.571018,599617761350245782,17.00
2025-06-12 19:11:10.571018,599617761350245782,-63.00
2025-06-12 19:11:10.571018,599617761350245782,-126.00
2025-06-12 19:11:10.571018,599617761350245782,-182.00
2025-06-12 19:11:10.571018,599617761350245782,-216.00
2025-06-12 19:11:10.571018,599617761350245782,-223.00
2025-06-12 19:11:10.571018,599617761350245782,-233.00
2025-06-12 19:11:10.571018,599617761350245782,-245.00
2025-06-12 19:11:10.571018,599617761350245782,-242.00
2025-06-12 19:11:10.571018,599617761350245782,-230.00
2025-06-12 19:11:10.571018,599617761350245782,-223.00
2025-06-12 19:11:10.571018,599617761350245782,-216.00
2025-06-12 19:11:10.571018,599617761350245782,-208.00
2025-06-12 19:11:10.571018,599617761350245782,-196.00
2025-06-12 19:11:10.571018,599617761350245782,-179.00
2025-06-12 19:11:10.571018,599617761350245782,-165.00
2025-06-12 19:11:10.571018,599617761350245782,-157.00
2025-06-12 19:11:10.571018,599617761350245782,-153.00
2025-06-12 19:11:10.571018,599617761350245782,-148.00
2025-06-12 19:11:10.571018,599617761350245782,-143.00
2025-06-12 19:11:10.571018,599617761350245782,-145.00
2025-06-12 19:11:10.571018,599617761350245782,-145.00
2025-06-12 19:11:10.571018,599617761350245782,-133.00
2025-06-12 19:11:10.571018,599617761350245782,-121.00
2025-06-12 19:11:10.571018,599617761350245782,-123.00
2025-06-12 19:11:10.571018,599617761350245782,-131.00
2025-06-12 19:11:10.571018,599617761350245782,-131.00
2025-06-12 19:11:10.571018,599617761350245782,-126.00
2025-06-12 19:11:10.571018,599617761350245782,-133.00
2025-06-12 19:11:10.571018,599617761350245782,-148.00
2025-06-12 19:11:10.571018,599617761350245782,-145.00
2025-06-12 19:11:10.571018,599617761350245782,-128.00
2025-06-12 19:11:10.571018,599617761350245782,-128.00
2025-06-12 19:11:10.571018,599617761350245782,-128.00
2025-06-12 19:11:10.571018,599617761350245782,-109.00
2025-06-12 19:11:10.571018,599617761350245782,-92.00
2025-06-12 19:11:10.571018,599617761350245782,-102.00
2025-06-12 19:11:10.571018,599617761350245782,-116.00
2025-06-12 19:11:10.571018,599617761350245782,-109.00
2025-06-12 19:11:10.571018,599617761350245782,-102.00
2025-06-12 19:11:10.571018,599617761350245782,-97.00
2025-06-12 19:11:10.571018,599617761350245782,-92.00
2025-06-12 19:11:10.571018,599617761350245782,-85.00
2025-06-12 19:11:10.571018,599617761350245782,-82.00
2025-06-12 19:11:10.571018,599617761350245782,-87.00
2025-06-12 19:11:10.571018,599617761350245782,-89.00
2025-06-12 19:11:10.571018,599617761350245782,-85.00
2025-06-12 19:11:10.571018,599617761350245782,-80.00
2025-06-12 19:11:10.571018,599617761350245782,-77.00
2025-06-12 19:11:10.571018,599617761350245782,-75.00
2025-06-12 19:11:10.571018,599617761350245782,-46.00
2025-06-12 19:11:10.571018,599617761350245782,196.00
2025-06-12 19:11:10.571018,599617761350245782,801.00
2025-06-12 19:11:11.171790,599617761911034381,1440.00
2025-06-12 19:11:11.171790,599617761911034381,1605.00
2025-06-12 19:11:11.171790,599617761911034381,995.00
2025-06-12 19:11:11.171790,599617761911034381,-77.00
2025-06-12 19:11:11.171790,599617761911034381,-539.00
2025-06-12 19:11:11.171790,599617761911034381,-218.00
2025-06-12 19:11:11.171790,599617761911034381,-87.00
2025-06-12 19:11:11.171790,599617761911034381,-240.00
2025-06-12 19:11:11.171790,599617761911034381,-204.00
2025-06-12 19:11:11.171790,599617761911034381,-128.00
2025-06-12 19:11:11.171790,599617761911034381,-160.00
2025-06-12 19:11:11.171790,599617761911034381,-155.00
2025-06-12 19:11:11.171790,599617761911034381,-116.00
2025-06-12 19:11:11.171790,599617761911034381,-111.00
2025-06-12 19:11:11.171790,599617761911034381,-106.00
2025-06-12 19:11:11.171790,599617761911034381,-87.00
2025-06-12 19:11:11.171790,599617761911034381,-72.00
2025-06-12 19:11:11.171790,599617761911034381,-65.00
2025-06-12 19:11:11.171790,599617761911034381,-46.00
2025-06-12 19:11:11.171790,599617761911034381,-21.00
2025-06-12 19:11:11.171790,599617761911034381,-4.00
2025-06-12 19:11:11.171790,599617761911034381,19.00
2025-06-12 19:11:11.171790,599617761911034381,51.00
2025-06-12 19:11:11.171790,599617761911034381,77.00
2025-06-12 19:11:11.171790,599617761911034381,111.00
2025-06-12 19:11:11.171790,599617761911034381,148.00
2025-06-12 19:11:11.171790,599617761911034381,174.00
2025-06-12 19:11:11.171790,599617761911034381,196.00
2025-06-12 19:11:11.171790,599617761911034381,218.00
2025-06-12 19:11:11.171790,599617761911034381,208.00
2025-06-12 19:11:11.171790,599617761911034381,187.00
2025-06-12 19:11:11.171790,599617761911034381,167.00
2025-06-12 19:11:11.171790,599617761911034381,126.00
2025-06-12 19:11:11.171790,599617761911034381,48.00
2025-06-12 19:11:11.171790,599617761911034381,-34.00
2025-06-12 19:11:11.171790,599617761911034381,-104.00
2025-06-12 19:11:11.171790,599617761911034381,-160.00
2025-06-12 19:11:11.171790,599617761911034381,-204.00
2025-06-12 19:11:11.171790,599617761911034381,-230.00
2025-06-12 19:11:11.171790,599617761911034381,-242.00
2025-06-12 19:11:11.171790,599617761911034381,-245.00
2025-06-12 19:11:11.171790,599617761911034381,-238.00
2025-06-12 19:11:11.171790,599617761911034381,-240.00
2025-06-12 19:11:11.171790,599617761911034381,-238.00
2025-06-12 19:11:11.171790,599617761911034381,-225.00
2025-06-12 19:11:11.171790,599617761911034381,-213.00
2025-06-12 19:11:11.171790,599617761911034381,-201.00
2025-06-12 19:11:11.171790,599617761911034381,-189.00
2025-06-12 19:11:11.171790,599617761911034381,-179.00
2025-06-12 19:11:11.171790,599617761911034381,-174.00
2025-06-12 19:11:11.171790,599617761911034381,-172.00
2025-06-12 19:11:11.171790,599617761911034381,-155.00
2025-06-12 19:11:11.171790,599617761911034381,-143.00
2025-06-12 19:11:11.171790,599617761911034381,-143.00
2025-06-12 19:11:11.171790,599617761911034381,-143.00
2025-06-12 19:11:11.171790,599617761911034381,-138.00
2025-06-12 19:11:11.171790,599617761911034381,-136.00
2025-06-12 19:11:11.171790,599617761911034381,-136.00
2025-06-12 19:11:11.171790,599617761911034381,-140.00
2025-06-12 19:11:11.171790,599617761911034381,-143.00
2025-06-12 19:11:11.171790,599617761911034381,-136.00
2025-06-12 19:11:11.171790,599617761911034381,-140.00
2025-06-12 19:11:11.171790,599617761911034381,-155.00
2025-06-12 19:11:11.171790,599617761911034381,-155.00
2025-06-12 19:11:11.171790,599617761911034381,-155.00
2025-06-12 19:11:11.171790,599617761911034381,-157.00
2025-06-12 19:11:11.171790,599617761911034381,-136.00
2025-06-12 19:11:11.171790,599617761911034381,-106.00
2025-06-12 19:11:11.171790,599617761911034381,-99.00
2025-06-12 19:11:11.171790,599617761911034381,-116.00
2025-06-12 19:11:11.171790,599617761911034381,-126.00
2025-06-12 19:11:11.171790,599617761911034381,-119.00
2025-06-12 19:11:11.171790,599617761911034381,-111.00
2025-06-12 19:11:11.742093,599617762471822976,-116.00
2025-06-12 19:11:11.742093,599617762471822976,-109.00
2025-06-12 19:11:11.742093,599617762471822976,-97.00
2025-06-12 19:11:11.742093,599617762471822976,-104.00
2025-06-12 19:11:11.742093,599617762471822976,-109.00
2025-06-12 19:11:11.742093,599617762471822976,-97.00
2025-06-12 19:11:11.742093,599617762471822976,-94.00
2025-06-12 19:11:11.742093,599617762471822976,-97.00
2025-06-12 19:11:11.742093,599617762471822976,-97.00
2025-06-12 19:11:11.742093,599617762471822976,-111.00
2025-06-12 19:11:11.742093,599617762471822976,-51.00
2025-06-12 19:11:11.742093,599617762471822976,340.00
2025-06-12 19:11:11.742093,599617762471822976,1049.00
2025-06-12 19:11:11.742093,599617762471822976,1632.00
2025-06-12 19:11:11.742093,599617762471822976,1576.00
2025-06-12 19:11:11.742093,599617762471822976,665.00
2025-06-12 19:11:11.742093,599617762471822976,-344.00
2025-06-12 19:11:11.742093,599617762471822976,-437.00
2025-06-12 19:11:11.742093,599617762471822976,-99.00
2025-06-12 19:11:11.742093,599617762471822976,-153.00
2025-06-12 19:11:11.742093,599617762471822976,-259.00
2025-06-12 19:11:11.742093,599617762471822976,-167.00
2025-06-12 19:11:11.742093,599617762471822976,-150.00
2025-06-12 19:11:11.742093,599617762471822976,-187.00
2025-06-12 19:11:11.742093,599617762471822976,-155.00
2025-06-12 19:11:11.742093,599617762471822976,-133.00
2025-06-12 19:11:11.742093,599617762471822976,-140.00
2025-06-12 19:11:11.742093,599617762471822976,-126.00
2025-06-12 19:11:11.742093,599617762471822976,-99.00
2025-06-12 19:11:11.742093,599617762471822976,-82.00
2025-06-12 19:11:11.742093,599617762471822976,-68.00
2025-06-12 19:11:11.742093,599617762471822976,-53.00
2025-06-12 19:11:11.742093,599617762471822976,-38.00
2025-06-12 19:11:11.742093,599617762471822976,-24.00
2025-06-12 19:11:11.742093,599617762471822976,0.00
2025-06-12 19:11:11.742093,599617762471822976,31.00
2025-06-12 19:11:11.742093,599617762471822976,58.00
2025-06-12 19:11:11.742093,599617762471822976,85.00
2025-06-12 19:11:11.742093,599617762471822976,123.00
2025-06-12 19:11:11.742093,599617762471822976,155.00
2025-06-12 19:11:11.742093,599617762471822976,160.00
2025-06-12 19:11:11.742093,599617762471822976,155.00
2025-06-12 19:11:11.742093,599617762471822976,150.00
2025-06-12 19:11:11.742093,599617762471822976,136.00
2025-06-12 19:11:11.742093,599617762471822976,109.00
2025-06-12 19:11:11.742093,599617762471822976,63.00
2025-06-12 19:11:11.742093,599617762471822976,4.00
2025-06-12 19:11:11.742093,599617762471822976,-53.00
2025-06-12 19:11:11.742093,599617762471822976,-116.00
2025-06-12 19:11:11.742093,599617762471822976,-172.00
2025-06-12 19:11:11.742093,599617762471822976,-206.00
2025-06-12 19:11:11.742093,599617762471822976,-225.00
2025-06-12 19:11:11.742093,599617762471822976,-235.00
2025-06-12 19:11:11.742093,599617762471822976,-235.00
2025-06-12 19:11:11.742093,599617762471822976,-223.00
2025-06-12 19:11:11.742093,599617762471822976,-211.00
2025-06-12 19:11:11.742093,599617762471822976,-208.00
2025-06-12 19:11:11.742093,599617762471822976,-204.00
2025-06-12 19:11:11.742093,599617762471822976,-191.00
2025-06-12 19:11:11.742093,599617762471822976,-182.00
2025-06-12 19:11:11.742093,599617762471822976,-177.00
2025-06-12 19:11:11.742093,599617762471822976,-172.00
2025-06-12 19:11:11.742093,599617762471822976,-165.00
2025-06-12 19:11:11.742093,599617762471822976,-155.00
2025-06-12 19:11:11.742093,599617762471822976,-145.00
2025-06-12 19:11:11.742093,599617762471822976,-131.00
2025-06-12 19:11:11.742093,599617762471822976,-131.00
2025-06-12 19:11:11.742093,599617762471822976,-143.00
2025-06-12 19:11:11.742093,599617762471822976,-140.00
2025-06-12 19:11:11.742093,599617762471822976,-133.00
2025-06-12 19:11:11.742093,599617762471822976,-136.00
2025-06-12 19:11:11.742093,599617762471822976,-136.00
2025-06-12 19:11:11.742093,599617762471822976,-136.00
2025-06-12 19:11:12.280501,599617763032626829,-136.00
2025-06-12 19:11:12.280501,599617763032626829,-136.00
2025-06-12 19:11:12.280501,599617763032626829,-143.00
2025-06-12 19:11:12.280501,599617763032626829,-155.00
2025-06-12 19:11:12.280501,599617763032626829,-162.00
2025-06-12 19:11:12.280501,599617763032626829,-143.00
2025-06-12 19:11:12.280501,599617763032626829,-109.00
2025-06-12 19:11:12.280501,599617763032626829,-94.00
2025-06-12 19:11:12.280501,599617763032626829,-97.00
2025-06-12 19:11:12.280501,599617763032626829,-99.00
2025-06-12 19:11:12.280501,599617763032626829,-109.00
2025-06-12 19:11:12.280501,599617763032626829,-116.00
2025-06-12 19:11:12.280501,599617763032626829,-109.00
2025-06-12 19:11:12.280501,599617763032626829,-104.00
2025-06-12 19:11:12.280501,599617763032626829,-99.00
2025-06-12 19:11:12.280501,599617763032626829,-89.00
2025-06-12 19:11:12.280501,599617763032626829,-92.00
2025-06-12 19:11:12.280501,599617763032626829,-102.00
2025-06-12 19:11:12.280501,599617763032626829,-102.00
2025-06-12 19:11:12.280501,599617763032626829,-92.00
2025-06-12 19:11:12.280501,599617763032626829,-82.00
2025-06-12 19:11:12.280501,599617763032626829,-77.00
2025-06-12 19:11:12.280501,599617763032626829,-94.00
2025-06-12 19:11:12.280501,599617763032626829,9.00
2025-06-12 19:11:12.280501,599617763032626829,510.00
2025-06-12 19:11:12.280501,599617763032626829,1268.00
2025-06-12 19:11:12.280501,599617763032626829,1744.00
2025-06-12 19:11:12.280501,599617763032626829,1457.00
2025-06-12 19:11:12.280501,599617763032626829,391.00
2025-06-12 19:11:12.280501,599617763032626829,-466.00
2025-06-12 19:11:12.280501,599617763032626829,-361.00
2025-06-12 19:11:12.280501,599617763032626829,-72.00
2025-06-12 19:11:12.280501,599617763032626829,-194.00
2025-06-12 19:11:12.280501,599617763032626829,-255.00
2025-06-12 19:11:12.280501,599617763032626829,-160.00
2025-06-12 19:11:12.280501,599617763032626829,-157.00
2025-06-12 19:11:12.280501,599617763032626829,-172.00
2025-06-12 19:11:12.280501,599617763032626829,-143.00
2025-06-12 19:11:12.280501,599617763032626829,-145.00
2025-06-12 19:11:12.280501,599617763032626829,-140.00
2025-06-12 19:11:12.280501,599617763032626829,-99.00
2025-06-12 19:11:12.280501,599617763032626829,-82.00
2025-06-12 19:11:12.280501,599617763032626829,-80.00
2025-06-12 19:11:12.280501,599617763032626829,-65.00
2025-06-12 19:11:12.280501,599617763032626829,-46.00
2025-06-12 19:11:12.280501,599617763032626829,-21.00
2025-06-12 19:11:12.280501,599617763032626829,7.00
2025-06-12 19:11:12.280501,599617763032626829,29.00
2025-06-12 19:11:12.280501,599617763032626829,53.00
2025-06-12 19:11:12.280501,599617763032626829,92.00
2025-06-12 19:11:12.280501,599617763032626829,133.00
2025-06-12 19:11:12.280501,599617763032626829,160.00
2025-06-12 19:11:12.280501,599617763032626829,170.00
2025-06-12 19:11:12.280501,599617763032626829,189.00
2025-06-12 19:11:12.280501,599617763032626829,199.00
2025-06-12 19:11:12.280501,599617763032626829,187.00
2025-06-12 19:11:12.280501,599617763032626829,162.00
2025-06-12 19:11:12.280501,599617763032626829,131.00
2025-06-12 19:11:12.280501,599617763032626829,75.00
2025-06-12 19:11:12.280501,599617763032626829,-7.00
2025-06-12 19:11:12.280501,599617763032626829,-80.00
2025-06-12 19:11:12.280501,599617763032626829,-140.00
2025-06-12 19:11:12.280501,599617763032626829,-199.00
2025-06-12 19:11:12.280501,599617763032626829,-235.00
2025-06-12 19:11:12.280501,599617763032626829,-245.00
2025-06-12 19:11:12.280501,599617763032626829,-245.00
2025-06-12 19:11:12.280501,599617763032626829,-245.00
2025-06-12 19:11:12.280501,599617763032626829,-247.00
2025-06-12 19:11:12.280501,599617763032626829,-238.00
2025-06-12 19:11:12.280501,599617763032626829,-223.00
2025-06-12 19:11:12.280501,599617763032626829,-216.00
2025-06-12 19:11:12.280501,599617763032626829,-208.00
2025-06-12 19:11:12.280501,599617763032626829,-194.00
2025-06-12 19:11:12.851607,599617763593430684,-187.00
2025-06-12 19:11:12.851607,599617763593430684,-187.00
2025-06-12 19:11:12.851607,599617763593430684,-179.00
2025-06-12 19:11:12.851607,599617763593430684,-162.00
2025-06-12 19:11:12.851607,599617763593430684,-155.00
2025-06-12 19:11:12.851607,599617763593430684,-160.00
2025-06-12 19:11:12.851607,599617763593430684,-160.00
2025-06-12 19:11:12.851607,599617763593430684,-150.00
2025-06-12 19:11:12.851607,599617763593430684,-140.00
2025-06-12 19:11:12.851607,599617763593430684,-140.00
2025-06-12 19:11:12.851607,599617763593430684,-138.00
2025-06-12 19:11:12.851607,599617763593430684,-136.00
2025-06-12 19:11:12.851607,599617763593430684,-143.00
2025-06-12 19:11:12.851607,599617763593430684,-145.00
2025-06-12 19:11:12.851607,599617763593430684,-153.00
2025-06-12 19:11:12.851607,599617763593430684,-165.00
2025-06-12 19:11:12.851607,599617763593430684,-167.00
2025-06-12 19:11:12.851607,599617763593430684,-157.00
2025-06-12 19:11:12.851607,599617763593430684,-148.00
2025-06-12 19:11:12.851607,599617763593430684,-126.00
2025-06-12 19:11:12.851607,599617763593430684,-102.00
2025-06-12 19:11:12.851607,599617763593430684,-109.00
2025-06-12 19:11:12.851607,599617763593430684,-133.00
2025-06-12 19:11:12.851607,599617763593430684,-133.00
2025-06-12 19:11:12.851607,599617763593430684,-121.00
2025-06-12 19:11:12.851607,599617763593430684,-119.00
2025-06-12 19:11:12.851607,599617763593430684,-119.00
2025-06-12 19:11:12.851607,599617763593430684,-116.00
2025-06-12 19:11:12.851607,599617763593430684,-114.00
2025-06-12 19:11:12.851607,599617763593430684,-104.00
2025-06-12 19:11:12.851607,599617763593430684,-104.00
2025-06-12 19:11:12.851607,599617763593430684,-109.00
2025-06-12 19:11:12.851607,599617763593430684,-109.00
2025-06-12 19:11:12.851607,599617763593430684,-106.00
2025-06-12 19:11:12.851607,599617763593430684,-109.00
2025-06-12 19:11:12.851607,599617763593430684,-123.00
2025-06-12 19:11:12.851607,599617763593430684,-51.00
2025-06-12 19:11:12.851607,599617763593430684,347.00
2025-06-12 19:11:12.851607,599617763593430684,1049.00
2025-06-12 19:11:12.851607,599617763593430684,1617.00
2025-06-12 19:11:12.851607,599617763593430684,1549.00
2025-06-12 19:11:12.851607,599617763593430684,638.00
2025-06-12 19:11:12.851607,599617763593430684,-361.00
2025-06-12 19:11:12.851607,599617763593430684,-449.00
2025-06-12 19:11:12.851607,599617763593430684,-114.00
2025-06-12 19:11:12.851607,599617763593430684,-172.00
2025-06-12 19:11:12.851607,599617763593430684,-281.00
2025-06-12 19:11:12.851607,599617763593430684,-182.00
2025-06-12 19:11:12.851607,599617763593430684,-162.00
2025-06-12 19:11:12.851607,599617763593430684,-206.00
2025-06-12 19:11:12.851607,599617763593430684,-170.00
2025-06-12 19:11:12.851607,599617763593430684,-136.00
2025-06-12 19:11:12.851607,599617763593430684,-148.00
2025-06-12 19:11:12.851607,599617763593430684,-140.00
2025-06-12 19:11:12.851607,599617763593430684,-114.00
2025-06-12 19:11:12.851607,599617763593430684,-102.00
2025-06-12 19:11:12.851607,599617763593430684,-92.00
2025-06-12 19:11:12.851607,599617763593430684,-72.00
2025-06-12 19:11:12.851607,599617763593430684,-51.00
2025-06-12 19:11:12.851607,599617763593430684,-34.00
2025-06-12 19:11:12.851607,599617763593430684,-7.00
2025-06-12 19:11:12.851607,599617763593430684,24.00
2025-06-12 19:11:12.851607,599617763593430684,53.00
2025-06-12 19:11:12.851607,599617763593430684,82.00
2025-06-12 19:11:12.851607,599617763593430684,111.00
2025-06-12 19:11:12.851607,599617763593430684,136.00
2025-06-12 19:11:12.851607,599617763593430684,153.00
2025-06-12 19:11:12.851607,599617763593430684,157.00
2025-06-12 19:11:12.851607,599617763593430684,150.00
2025-06-12 19:11:12.851607,599617763593430684,128.00
2025-06-12 19:11:12.851607,599617763593430684,99.00
2025-06-12 19:11:12.851607,599617763593430684,53.00
2025-06-12 19:11:12.851607,599617763593430684,-4.00
2025-06-12 19:11:13.389048,599617764154219279,-72.00
2025-06-12 19:11:13.389048,599617764154219279,-140.00
2025-06-12 19:11:13.389048,599617764154219279,-191.00
2025-06-12 19:11:13.389048,599617764154219279,-216.00
2025-06-12 19:11:13.389048,599617764154219279,-228.00
2025-06-12 19:11:13.389048,599617764154219279,-238.00
2025-06-12 19:11:13.389048,599617764154219279,-230.00
2025-06-12 19:11:13.389048,599617764154219279,-218.00
2025-06-12 19:11:13.389048,599617764154219279,-221.00
2025-06-12 19:11:13.389048,599617764154219279,-213.00
2025-06-12 19:11:13.389048,599617764154219279,-194.00
2025-06-12 19:11:13.389048,599617764154219279,-182.00
2025-06-12 19:11:13.389048,599617764154219279,-179.00
2025-06-12 19:11:13.389048,599617764154219279,-172.00
2025-06-12 19:11:13.389048,599617764154219279,-162.00
2025-06-12 19:11:13.389048,599617764154219279,-153.00
2025-06-12 19:11:13.389048,599617764154219279,-148.00
2025-06-12 19:11:13.389048,599617764154219279,-143.00
2025-06-12 19:11:13.389048,599617764154219279,-140.00
2025-06-12 19:11:13.389048,599617764154219279,-133.00
2025-06-12 19:11:13.389048,599617764154219279,-128.00
2025-06-12 19:11:13.389048,599617764154219279,-123.00
2025-06-12 19:11:13.389048,599617764154219279,-126.00
2025-06-12 19:11:13.389048,599617764154219279,-128.00
2025-06-12 19:11:13.389048,599617764154219279,-123.00
2025-06-12 19:11:13.389048,599617764154219279,-126.00
2025-06-12 19:11:13.389048,599617764154219279,-128.00
2025-06-12 19:11:13.389048,599617764154219279,-123.00
2025-06-12 19:11:13.389048,599617764154219279,-119.00
2025-06-12 19:11:13.389048,599617764154219279,-121.00
2025-06-12 19:11:13.389048,599617764154219279,-123.00
2025-06-12 19:11:13.389048,599617764154219279,-128.00
2025-06-12 19:11:13.389048,599617764154219279,-133.00
2025-06-12 19:11:13.389048,599617764154219279,-136.00
2025-06-12 19:11:13.389048,599617764154219279,-138.00
2025-06-12 19:11:13.389048,599617764154219279,-136.00
2025-06-12 19:11:13.389048,599617764154219279,-114.00
2025-06-12 19:11:13.389048,599617764154219279,-80.00
2025-06-12 19:11:13.389048,599617764154219279,-70.00
2025-06-12 19:11:13.389048,599617764154219279,-89.00
2025-06-12 19:11:13.389048,599617764154219279,-104.00
2025-06-12 19:11:13.389048,599617764154219279,-99.00
2025-06-12 19:11:13.389048,599617764154219279,-94.00
2025-06-12 19:11:13.389048,599617764154219279,-94.00
2025-06-12 19:11:13.389048,599617764154219279,-87.00
2025-06-12 19:11:13.389048,599617764154219279,-80.00
2025-06-12 19:11:13.389048,599617764154219279,-85.00
2025-06-12 19:11:13.389048,599617764154219279,-82.00
2025-06-12 19:11:13.389048,599617764154219279,-77.00
2025-06-12 19:11:13.389048,599617764154219279,-82.00
2025-06-12 19:11:13.389048,599617764154219279,-82.00
2025-06-12 19:11:13.389048,599617764154219279,-75.00
2025-06-12 19:11:13.389048,599617764154219279,-77.00
2025-06-12 19:11:13.389048,599617764154219279,-94.00
2025-06-12 19:11:13.389048,599617764154219279,46.00
2025-06-12 19:11:13.389048,599617764154219279,566.00
2025-06-12 19:11:13.389048,599617764154219279,1268.00
2025-06-12 19:11:13.389048,599617764154219279,1666.00
2025-06-12 19:11:13.389048,599617764154219279,1331.00
2025-06-12 19:11:13.389048,599617764154219279,279.00
2025-06-12 19:11:13.389048,599617764154219279,-480.00
2025-06-12 19:11:13.389048,599617764154219279,-303.00
2025-06-12 19:11:13.389048,599617764154219279,-53.00
2025-06-12 19:11:13.389048,599617764154219279,-208.00
2025-06-12 19:11:13.389048,599617764154219279,-250.00
2025-06-12 19:11:13.389048,599617764154219279,-145.00
2025-06-12 19:11:13.389048,599617764154219279,-160.00
2025-06-12 19:11:13.389048,599617764154219279,-187.00
2025-06-12 19:11:13.389048,599617764154219279,-145.00
2025-06-12 19:11:13.389048,599617764154219279,-126.00
2025-06-12 19:11:13.389048,599617764154219279,-128.00
2025-06-12 19:11:13.389048,599617764154219279,-119.00
2025-06-12 19:11:13.389048,599617764154219279,-104.00
2025-06-12 19:11:13.933381,599617764715038390,-92.00
2025-06-12 19:11:13.933381,599617764715038390,-75.00
2025-06-12 19:11:13.933381,599617764715038390,-55.00
2025-06-12 19:11:13.933381,599617764715038390,-41.00
2025-06-12 19:11:13.933381,599617764715038390,-17.00
2025-06-12 19:11:13.933381,599617764715038390,4.00
2025-06-12 19:11:13.933381,599617764715038390,24.00
2025-06-12 19:11:13.933381,599617764715038390,63.00
2025-06-12 19:11:13.933381,599617764715038390,102.00
2025-06-12 19:11:13.933381,599617764715038390,121.00
2025-06-12 19:11:13.933381,599617764715038390,148.00
2025-06-12 19:11:13.933381,599617764715038390,162.00
2025-06-12 19:11:13.933381,599617764715038390,150.00
2025-06-12 19:11:13.933381,599617764715038390,140.00
2025-06-12 19:11:13.933381,599617764715038390,126.00
2025-06-12 19:11:13.933381,599617764715038390,89.00
2025-06-12 19:11:13.933381,599617764715038390,34.00
2025-06-12 19:11:13.933381,599617764715038390,-26.00
2025-06-12 19:11:13.933381,599617764715038390,-92.00
2025-06-12 19:11:13.933381,599617764715038390,-148.00
2025-06-12 19:11:13.933381,599617764715038390,-194.00
2025-06-12 19:11:13.933381,599617764715038390,-223.00
2025-06-12 19:11:13.933381,599617764715038390,-233.00
2025-06-12 19:11:13.933381,599617764715038390,-235.00
2025-06-12 19:11:13.933381,599617764715038390,-242.00
2025-06-12 19:11:13.933381,599617764715038390,-245.00
2025-06-12 19:11:13.933381,599617764715038390,-230.00
2025-06-12 19:11:13.933381,599617764715038390,-213.00
2025-06-12 19:11:13.933381,599617764715038390,-206.00
2025-06-12 19:11:13.933381,599617764715038390,-206.00
2025-06-12 19:11:13.933381,599617764715038390,-199.00
2025-06-12 19:11:13.933381,599617764715038390,-189.00
2025-06-12 19:11:13.933381,599617764715038390,-182.00
2025-06-12 19:11:13.933381,599617764715038390,-172.00
2025-06-12 19:11:13.933381,599617764715038390,-162.00
2025-06-12 19:11:13.933381,599617764715038390,-165.00
2025-06-12 19:11:13.933381,599617764715038390,-165.00
2025-06-12 19:11:13.933381,599617764715038390,-153.00
2025-06-12 19:11:13.933381,599617764715038390,-143.00
2025-06-12 19:11:13.933381,599617764715038390,-143.00
2025-06-12 19:11:13.933381,599617764715038390,-148.00
2025-06-12 19:11:13.933381,599617764715038390,-153.00
2025-06-12 19:11:13.933381,599617764715038390,-148.00
2025-06-12 19:11:13.933381,599617764715038390,-143.00
2025-06-12 19:11:13.933381,599617764715038390,-148.00
2025-06-12 19:11:13.933381,599617764715038390,-150.00
2025-06-12 19:11:13.933381,599617764715038390,-140.00
2025-06-12 19:11:13.933381,599617764715038390,-138.00
2025-06-12 19:11:13.933381,599617764715038390,-143.00
2025-06-12 19:11:13.933381,599617764715038390,-138.00
2025-06-12 19:11:13.933381,599617764715038390,-138.00
2025-06-12 19:11:13.933381,599617764715038390,-143.00
2025-06-12 19:11:13.933381,599617764715038390,-136.00
2025-06-12 19:11:13.933381,599617764715038390,-131.00
2025-06-12 19:11:13.933381,599617764715038390,-136.00
2025-06-12 19:11:13.933381,599617764715038390,-140.00
2025-06-12 19:11:13.933381,599617764715038390,-148.00
2025-06-12 19:11:13.933381,599617764715038390,-153.00
2025-06-12 19:11:13.933381,599617764715038390,-145.00
2025-06-12 19:11:13.933381,599617764715038390,-133.00
2025-06-12 19:11:13.933381,599617764715038390,-114.00
2025-06-12 19:11:13.933381,599617764715038390,-92.00
2025-06-12 19:11:13.933381,599617764715038390,-94.00
2025-06-12 19:11:13.933381,599617764715038390,-114.00
2025-06-12 19:11:13.933381,599617764715038390,-116.00
2025-06-12 19:11:13.933381,599617764715038390,-102.00
2025-06-12 19:11:13.933381,599617764715038390,-104.00
2025-06-12 19:11:13.933381,599617764715038390,-102.00
2025-06-12 19:11:13.933381,599617764715038390,-92.00
2025-06-12 19:11:13.933381,599617764715038390,-92.00
2025-06-12 19:11:13.933381,599617764715038390,-99.00
2025-06-12 19:11:13.933381,599617764715038390,-99.00
2025-06-12 19:11:13.933381,599617764715038390,-97.00
2025-06-12 19:11:14.534037,599617765275832075,-94.00
2025-06-12 19:11:14.534037,599617765275832075,-92.00
2025-06-12 19:11:14.534037,599617765275832075,-92.00
2025-06-12 19:11:14.534037,599617765275832075,-104.00
2025-06-12 19:11:14.534037,599617765275832075,-41.00
2025-06-12 19:11:14.534037,599617765275832075,330.00
2025-06-12 19:11:14.534037,599617765275832075,1010.00
2025-06-12 19:11:14.534037,599617765275832075,1588.00
2025-06-12 19:11:14.534037,599617765275832075,1559.00
2025-06-12 19:11:14.534037,599617765275832075,658.00
2025-06-12 19:11:14.534037,599617765275832075,-361.00
2025-06-12 19:11:14.534037,599617765275832075,-444.00
2025-06-12 19:11:14.534037,599617765275832075,-89.00
2025-06-12 19:11:14.534037,599617765275832075,-150.00
2025-06-12 19:11:14.534037,599617765275832075,-272.00
2025-06-12 19:11:14.534037,599617765275832075,-177.00
2025-06-12 19:11:14.534037,599617765275832075,-153.00
2025-06-12 19:11:14.534037,599617765275832075,-191.00
2025-06-12 19:11:14.534037,599617765275832075,-165.00
2025-06-12 19:11:14.534037,599617765275832075,-140.00
2025-06-12 19:11:14.534037,599617765275832075,-138.00
2025-06-12 19:11:14.534037,599617765275832075,-121.00
2025-06-12 19:11:14.534037,599617765275832075,-99.00
2025-06-12 19:11:14.534037,599617765275832075,-89.00
2025-06-12 19:11:14.534037,599617765275832075,-77.00
2025-06-12 19:11:14.534037,599617765275832075,-60.00
2025-06-12 19:11:14.534037,599617765275832075,-43.00
2025-06-12 19:11:14.534037,599617765275832075,-21.00
2025-06-12 19:11:14.534037,599617765275832075,-2.00
2025-06-12 19:11:14.534037,599617765275832075,21.00
2025-06-12 19:11:14.534037,599617765275832075,60.00
2025-06-12 19:11:14.534037,599617765275832075,94.00
2025-06-12 19:11:14.534037,599617765275832075,114.00
2025-06-12 19:11:14.534037,599617765275832075,140.00
2025-06-12 19:11:14.534037,599617765275832075,165.00
2025-06-12 19:11:14.534037,599617765275832075,165.00
2025-06-12 19:11:14.534037,599617765275832075,160.00
2025-06-12 19:11:14.534037,599617765275832075,150.00
2025-06-12 19:11:14.534037,599617765275832075,119.00
2025-06-12 19:11:14.534037,599617765275832075,77.00
2025-06-12 19:11:14.534037,599617765275832075,24.00
2025-06-12 19:11:14.534037,599617765275832075,-46.00
2025-06-12 19:11:14.534037,599617765275832075,-114.00
2025-06-12 19:11:14.534037,599617765275832075,-157.00
2025-06-12 19:11:14.534037,599617765275832075,-196.00
2025-06-12 19:11:14.534037,599617765275832075,-228.00
2025-06-12 19:11:14.534037,599617765275832075,-230.00
2025-06-12 19:11:14.534037,599617765275832075,-228.00
2025-06-12 19:11:14.534037,599617765275832075,-235.00
2025-06-12 19:11:14.534037,599617765275832075,-225.00
2025-06-12 19:11:14.534037,599617765275832075,-211.00
2025-06-12 19:11:14.534037,599617765275832075,-208.00
2025-06-12 19:11:14.534037,599617765275832075,-201.00
2025-06-12 19:11:14.534037,599617765275832075,-189.00
2025-06-12 19:11:14.534037,599617765275832075,-184.00
2025-06-12 19:11:14.534037,599617765275832075,-174.00
2025-06-12 19:11:14.534037,599617765275832075,-160.00
2025-06-12 19:11:14.534037,599617765275832075,-155.00
2025-06-12 19:11:14.534037,599617765275832075,-153.00
2025-06-12 19:11:14.534037,599617765275832075,-145.00
2025-06-12 19:11:14.534037,599617765275832075,-140.00
2025-06-12 19:11:14.534037,599617765275832075,-148.00
2025-06-12 19:11:14.534037,599617765275832075,-145.00
2025-06-12 19:11:14.534037,599617765275832075,-131.00
2025-06-12 19:11:14.534037,599617765275832075,-126.00
2025-06-12 19:11:14.534037,599617765275832075,-136.00
2025-06-12 19:11:14.534037,599617765275832075,-136.00
2025-06-12 19:11:14.534037,599617765275832075,-131.00
2025-06-12 19:11:14.534037,599617765275832075,-131.00
2025-06-12 19:11:14.534037,599617765275832075,-133.00
2025-06-12 19:11:14.534037,599617765275832075,-133.00
2025-06-12 19:11:14.534037,599617765275832075,-126.00
2025-06-12 19:11:14.534037,599617765275832075,-123.00
2025-06-12 19:11:15.098845,599617765836625756,-133.00
2025-06-12 19:11:15.098845,599617765836625756,-133.00
2025-06-12 19:11:15.098845,599617765836625756,-119.00
2025-06-12 19:11:15.098845,599617765836625756,-114.00
2025-06-12 19:11:15.098845,599617765836625756,-119.00
2025-06-12 19:11:15.098845,599617765836625756,-119.00
2025-06-12 19:11:15.098845,599617765836625756,-116.00
2025-06-12 19:11:15.098845,599617765836625756,-116.00
2025-06-12 19:11:15.098845,599617765836625756,-116.00
2025-06-12 19:11:15.098845,599617765836625756,-119.00
2025-06-12 19:11:15.098845,599617765836625756,-126.00
2025-06-12 19:11:15.098845,599617765836625756,-123.00
2025-06-12 19:11:15.098845,599617765836625756,-116.00
2025-06-12 19:11:15.098845,599617765836625756,-104.00
2025-06-12 19:11:15.098845,599617765836625756,-82.00
2025-06-12 19:11:15.098845,599617765836625756,-68.00
2025-06-12 19:11:15.098845,599617765836625756,-77.00
2025-06-12 19:11:15.098845,599617765836625756,-92.00
2025-06-12 19:11:15.098845,599617765836625756,-89.00
2025-06-12 19:11:15.098845,599617765836625756,-85.00
2025-06-12 19:11:15.098845,599617765836625756,-87.00
2025-06-12 19:11:15.098845,599617765836625756,-85.00
2025-06-12 19:11:15.098845,599617765836625756,-80.00
2025-06-12 19:11:15.098845,599617765836625756,-80.00
2025-06-12 19:11:15.098845,599617765836625756,-80.00
2025-06-12 19:11:15.098845,599617765836625756,-80.00
2025-06-12 19:11:15.098845,599617765836625756,-70.00
2025-06-12 19:11:15.098845,599617765836625756,-65.00
2025-06-12 19:11:15.098845,599617765836625756,-65.00
2025-06-12 19:11:15.098845,599617765836625756,-72.00
2025-06-12 19:11:15.098845,599617765836625756,-85.00
2025-06-12 19:11:15.098845,599617765836625756,60.00
2025-06-12 19:11:15.098845,599617765836625756,570.00
2025-06-12 19:11:15.098845,599617765836625756,1277.00
2025-06-12 19:11:15.098845,599617765836625756,1705.00
2025-06-12 19:11:15.098845,599617765836625756,1365.00
2025-06-12 19:11:15.098845,599617765836625756,264.00
2025-06-12 19:11:15.098845,599617765836625756,-507.00
2025-06-12 19:11:15.098845,599617765836625756,-301.00
2025-06-12 19:11:15.098845,599617765836625756,-43.00
2025-06-12 19:11:15.098845,599617765836625756,-196.00
2025-06-12 19:11:15.098845,599617765836625756,-235.00
2025-06-12 19:11:15.098845,599617765836625756,-136.00
2025-06-12 19:11:15.098845,599617765836625756,-153.00
2025-06-12 19:11:15.098845,599617765836625756,-172.00
2025-06-12 19:11:15.098845,599617765836625756,-131.00
2025-06-12 19:11:15.098845,599617765836625756,-119.00
2025-06-12 19:11:15.098845,599617765836625756,-121.00
2025-06-12 19:11:15.098845,599617765836625756,-104.00
2025-06-12 19:11:15.098845,599617765836625756,-89.00
2025-06-12 19:11:15.098845,599617765836625756,-72.00
2025-06-12 19:11:15.098845,599617765836625756,-46.00
2025-06-12 19:11:15.098845,599617765836625756,-31.00
2025-06-12 19:11:15.098845,599617765836625756,-21.00
2025-06-12 19:11:15.098845,599617765836625756,0.00
2025-06-12 19:11:15.098845,599617765836625756,26.00
2025-06-12 19:11:15.098845,599617765836625756,60.00
2025-06-12 19:11:15.098845,599617765836625756,89.00
2025-06-12 19:11:15.098845,599617765836625756,109.00
2025-06-12 19:11:15.098845,599617765836625756,140.00
2025-06-12 19:11:15.098845,599617765836625756,174.00
2025-06-12 19:11:15.098845,599617765836625756,187.00
2025-06-12 19:11:15.098845,599617765836625756,184.00
2025-06-12 19:11:15.098845,599617765836625756,179.00
2025-06-12 19:11:15.098845,599617765836625756,160.00
2025-06-12 19:11:15.098845,599617765836625756,126.00
2025-06-12 19:11:15.098845,599617765836625756,87.00
2025-06-12 19:11:15.098845,599617765836625756,31.00
2025-06-12 19:11:15.098845,599617765836625756,-43.00
2025-06-12 19:11:15.098845,599617765836625756,-109.00
2025-06-12 19:11:15.098845,599617765836625756,-157.00
2025-06-12 19:11:15.098845,599617765836625756,-199.00
2025-06-12 19:11:15.098845,599617765836625756,-223.00
2025-06-12 19:11:15.669020,599617766397434697,-225.00
2025-06-12 19:11:15.669020,599617766397434697,-225.00
2025-06-12 19:11:15.669020,599617766397434697,-221.00
2025-06-12 19:11:15.669020,599617766397434697,-216.00
2025-06-12 19:11:15.669020,599617766397434697,-213.00
2025-06-12 19:11:15.669020,599617766397434697,-204.00
2025-06-12 19:11:15.669020,599617766397434697,-189.00
2025-06-12 19:11:15.669020,599617766397434697,-179.00
2025-06-12 19:11:15.669020,599617766397434697,-170.00
2025-06-12 19:11:15.669020,599617766397434697,-160.00
2025-06-12 19:11:15.669020,599617766397434697,-150.00
2025-06-12 19:11:15.669020,599617766397434697,-145.00
2025-06-12 19:11:15.669020,599617766397434697,-138.00
2025-06-12 19:11:15.669020,599617766397434697,-133.00
2025-06-12 19:11:15.669020,599617766397434697,-131.00
2025-06-12 19:11:15.669020,599617766397434697,-128.00
2025-06-12 19:11:15.669020,599617766397434697,-123.00
2025-06-12 19:11:15.669020,599617766397434697,-121.00
2025-06-12 19:11:15.669020,599617766397434697,-123.00
2025-06-12 19:11:15.669020,599617766397434697,-126.00
2025-06-12 19:11:15.669020,599617766397434697,-123.00
2025-06-12 19:11:15.669020,599617766397434697,-126.00
2025-06-12 19:11:15.669020,599617766397434697,-126.00
2025-06-12 19:11:15.669020,599617766397434697,-126.00
2025-06-12 19:11:15.669020,599617766397434697,-123.00
2025-06-12 19:11:15.669020,599617766397434697,-121.00
2025-06-12 19:11:15.669020,599617766397434697,-114.00
2025-06-12 19:11:15.669020,599617766397434697,-116.00
2025-06-12 19:11:15.669020,599617766397434697,-116.00
2025-06-12 19:11:15.669020,599617766397434697,-114.00
2025-06-12 19:11:15.669020,599617766397434697,-111.00
2025-06-12 19:11:15.669020,599617766397434697,-111.00
2025-06-12 19:11:15.669020,599617766397434697,-106.00
2025-06-12 19:11:15.669020,599617766397434697,-102.00
2025-06-12 19:11:15.669020,599617766397434697,-109.00
2025-06-12 19:11:15.669020,599617766397434697,-116.00
2025-06-12 19:11:15.669020,599617766397434697,-116.00
2025-06-12 19:11:15.669020,599617766397434697,-109.00
2025-06-12 19:11:15.669020,599617766397434697,-106.00
2025-06-12 19:11:15.669020,599617766397434697,-94.00
2025-06-12 19:11:15.669020,599617766397434697,-68.00
2025-06-12 19:11:15.669020,599617766397434697,-53.00
2025-06-12 19:11:15.669020,599617766397434697,-65.00
2025-06-12 19:11:15.669020,599617766397434697,-82.00
2025-06-12 19:11:15.669020,599617766397434697,-80.00
2025-06-12 19:11:15.669020,599617766397434697,-70.00
2025-06-12 19:11:15.669020,599617766397434697,-75.00
2025-06-12 19:11:15.669020,599617766397434697,-70.00
2025-06-12 19:11:15.669020,599617766397434697,-55.00
2025-06-12 19:11:15.669020,599617766397434697,-53.00
2025-06-12 19:11:15.669020,599617766397434697,-63.00
2025-06-12 19:11:15.669020,599617766397434697,-65.00
2025-06-12 19:11:15.669020,599617766397434697,-60.00
2025-06-12 19:11:15.669020,599617766397434697,-55.00
2025-06-12 19:11:15.669020,599617766397434697,-58.00
2025-06-12 19:11:15.669020,599617766397434697,-65.00
2025-06-12 19:11:15.669020,599617766397434697,-65.00
2025-06-12 19:11:15.669020,599617766397434697,121.00
2025-06-12 19:11:15.669020,599617766397434697,692.00
2025-06-12 19:11:15.669020,599617766397434697,1404.00
2025-06-12 19:11:15.669020,599617766397434697,1739.00
2025-06-12 19:11:15.669020,599617766397434697,1253.00
2025-06-12 19:11:15.669020,599617766397434697,114.00
2025-06-12 19:11:15.669020,599617766397434697,-522.00
2025-06-12 19:11:15.669020,599617766397434697,-238.00
2025-06-12 19:11:15.669020,599617766397434697,-51.00
2025-06-12 19:11:15.669020,599617766397434697,-228.00
2025-06-12 19:11:15.669020,599617766397434697,-218.00
2025-06-12 19:11:15.669020,599617766397434697,-116.00
2025-06-12 19:11:15.669020,599617766397434697,-148.00
2025-06-12 19:11:15.669020,599617766397434697,-162.00
2025-06-12 19:11:15.669020,599617766397434697,-121.00
2025-06-12 19:11:15.669020,599617766397434697,-114.00
2025-06-12 19:11:16.209075,599617766958243636,-114.00
2025-06-12 19:11:16.209075,599617766958243636,-99.00
2025-06-12 19:11:16.209075,599617766958243636,-82.00
2025-06-12 19:11:16.209075,599617766958243636,-65.00
2025-06-12 19:11:16.209075,599617766958243636,-51.00
2025-06-12 19:11:16.209075,599617766958243636,-38.00
2025-06-12 19:11:16.209075,599617766958243636,-12.00
2025-06-12 19:11:16.209075,599617766958243636,12.00
2025-06-12 19:11:16.209075,599617766958243636,29.00
2025-06-12 19:11:16.209075,599617766958243636,55.00
2025-06-12 19:11:16.209075,599617766958243636,94.00
2025-06-12 19:11:16.209075,599617766958243636,126.00
2025-06-12 19:11:16.209075,599617766958243636,150.00
2025-06-12 19:11:16.209075,599617766958243636,174.00
2025-06-12 19:11:16.209075,599617766958243636,191.00
2025-06-12 19:11:16.209075,599617766958243636,191.00
2025-06-12 19:11:16.209075,599617766958243636,177.00
2025-06-12 19:11:16.209075,599617766958243636,157.00
2025-06-12 19:11:16.209075,599617766958243636,128.00
2025-06-12 19:11:16.209075,599617766958243636,80.00
2025-06-12 19:11:16.209075,599617766958243636,14.00
2025-06-12 19:11:16.209075,599617766958243636,-58.00
2025-06-12 19:11:16.209075,599617766958243636,-121.00
2025-06-12 19:11:16.209075,599617766958243636,-170.00
2025-06-12 19:11:16.209075,599617766958243636,-211.00
2025-06-12 19:11:16.209075,599617766958243636,-230.00
2025-06-12 19:11:16.209075,599617766958243636,-230.00
2025-06-12 19:11:16.209075,599617766958243636,-228.00
2025-06-12 19:11:16.209075,599617766958243636,-233.00
2025-06-12 19:11:16.209075,599617766958243636,-228.00
2025-06-12 19:11:16.209075,599617766958243636,-213.00
2025-06-12 19:11:16.209075,599617766958243636,-204.00
2025-06-12 19:11:16.209075,599617766958243636,-204.00
2025-06-12 19:11:16.209075,599617766958243636,-189.00
2025-06-12 19:11:16.209075,599617766958243636,-167.00
2025-06-12 19:11:16.209075,599617766958243636,-160.00
2025-06-12 19:11:16.209075,599617766958243636,-160.00
2025-06-12 19:11:16.209075,599617766958243636,-148.00
2025-06-12 19:11:16.209075,599617766958243636,-148.00
2025-06-12 19:11:16.209075,599617766958243636,-145.00
2025-06-12 19:11:16.209075,599617766958243636,-133.00
2025-06-12 19:11:16.209075,599617766958243636,-128.00
2025-06-12 19:11:16.209075,599617766958243636,-131.00
2025-06-12 19:11:16.209075,599617766958243636,-128.00
2025-06-12 19:11:16.209075,599617766958243636,-128.00
2025-06-12 19:11:16.209075,599617766958243636,-128.00
2025-06-12 19:11:16.209075,599617766958243636,-126.00
2025-06-12 19:11:16.209075,599617766958243636,-126.00
2025-06-12 19:11:16.209075,599617766958243636,-133.00
2025-06-12 19:11:16.209075,599617766958243636,-133.00
2025-06-12 19:11:16.209075,599617766958243636,-123.00
2025-06-12 19:11:16.209075,599617766958243636,-119.00
2025-06-12 19:11:16.209075,599617766958243636,-123.00
2025-06-12 19:11:16.209075,599617766958243636,-121.00
2025-06-12 19:11:16.209075,599617766958243636,-114.00
2025-06-12 19:11:16.209075,599617766958243636,-111.00
2025-06-12 19:11:16.209075,599617766958243636,-121.00
2025-06-12 19:11:16.209075,599617766958243636,-128.00
2025-06-12 19:11:16.209075,599617766958243636,-133.00
2025-06-12 19:11:16.209075,599617766958243636,-136.00
2025-06-12 19:11:16.209075,599617766958243636,-128.00
2025-06-12 19:11:16.209075,599617766958243636,-114.00
2025-06-12 19:11:16.209075,599617766958243636,-87.00
2025-06-12 19:11:16.209075,599617766958243636,-63.00
2025-06-12 19:11:16.209075,599617766958243636,-65.00
2025-06-12 19:11:16.209075,599617766958243636,-92.00
2025-06-12 19:11:16.209075,599617766958243636,-102.00
2025-06-12 19:11:16.209075,599617766958243636,-92.00
2025-06-12 19:11:16.209075,599617766958243636,-85.00
2025-06-12 19:11:16.209075,599617766958243636,-85.00
2025-06-12 19:11:16.209075,599617766958243636,-82.00
2025-06-12 19:11:16.209075,599617766958243636,-72.00
2025-06-12 19:11:16.209075,599617766958243636,-70.00
2025-06-12 19:11:16.748425,599617767519037317,-80.00
2025-06-12 19:11:16.748425,599617767519037317,-82.00
2025-06-12 19:11:16.748425,599617767519037317,-72.00
2025-06-12 19:11:16.748425,599617767519037317,-65.00
2025-06-12 19:11:16.748425,599617767519037317,-72.00
2025-06-12 19:11:16.748425,599617767519037317,-94.00
2025-06-12 19:11:16.748425,599617767519037317,-14.00
2025-06-12 19:11:16.748425,599617767519037317,415.00
2025-06-12 19:11:16.748425,599617767519037317,1129.00
2025-06-12 19:11:16.748425,599617767519037317,1659.00
2025-06-12 19:11:16.748425,599617767519037317,1532.00
2025-06-12 19:11:16.748425,599617767519037317,575.00
2025-06-12 19:11:16.748425,599617767519037317,-400.00
2025-06-12 19:11:16.748425,599617767519037317,-420.00
2025-06-12 19:11:16.748425,599617767519037317,-72.00
2025-06-12 19:11:16.748425,599617767519037317,-155.00
2025-06-12 19:11:16.748425,599617767519037317,-259.00
2025-06-12 19:11:16.748425,599617767519037317,-157.00
2025-06-12 19:11:16.748425,599617767519037317,-143.00
2025-06-12 19:11:16.748425,599617767519037317,-182.00
2025-06-12 19:11:16.748425,599617767519037317,-145.00
2025-06-12 19:11:16.748425,599617767519037317,-121.00
2025-06-12 19:11:16.748425,599617767519037317,-131.00
2025-06-12 19:11:16.748425,599617767519037317,-116.00
2025-06-12 19:11:16.748425,599617767519037317,-94.00
2025-06-12 19:11:16.748425,599617767519037317,-89.00
2025-06-12 19:11:16.748425,599617767519037317,-68.00
2025-06-12 19:11:16.748425,599617767519037317,-43.00
2025-06-12 19:11:16.748425,599617767519037317,-31.00
2025-06-12 19:11:16.748425,599617767519037317,-14.00
2025-06-12 19:11:16.748425,599617767519037317,14.00
2025-06-12 19:11:16.748425,599617767519037317,43.00
2025-06-12 19:11:16.748425,599617767519037317,68.00
2025-06-12 19:11:16.748425,599617767519037317,97.00
2025-06-12 19:11:16.748425,599617767519037317,133.00
2025-06-12 19:11:16.748425,599617767519037317,157.00
2025-06-12 19:11:16.748425,599617767519037317,177.00
2025-06-12 19:11:16.748425,599617767519037317,189.00
2025-06-12 19:11:16.748425,599617767519037317,182.00
2025-06-12 19:11:16.748425,599617767519037317,160.00
2025-06-12 19:11:16.748425,599617767519037317,133.00
2025-06-12 19:11:16.748425,599617767519037317,92.00
2025-06-12 19:11:16.748425,599617767519037317,31.00
2025-06-12 19:11:16.748425,599617767519037317,-43.00
2025-06-12 19:11:16.748425,599617767519037317,-114.00
2025-06-12 19:11:16.748425,599617767519037317,-167.00
2025-06-12 19:11:16.748425,599617767519037317,-201.00
2025-06-12 19:11:16.748425,599617767519037317,-228.00
2025-06-12 19:11:16.748425,599617767519037317,-240.00
2025-06-12 19:11:16.748425,599617767519037317,-240.00
2025-06-12 19:11:16.748425,599617767519037317,-238.00
2025-06-12 19:11:16.748425,599617767519037317,-233.00
2025-06-12 19:11:16.748425,599617767519037317,-223.00
2025-06-12 19:11:16.748425,599617767519037317,-216.00
2025-06-12 19:11:16.748425,599617767519037317,-208.00
2025-06-12 19:11:16.748425,599617767519037317,-194.00
2025-06-12 19:11:16.748425,599617767519037317,-189.00
2025-06-12 19:11:16.748425,599617767519037317,-184.00
2025-06-12 19:11:16.748425,599617767519037317,-172.00
2025-06-12 19:11:16.748425,599617767519037317,-157.00
2025-06-12 19:11:16.748425,599617767519037317,-150.00
2025-06-12 19:11:16.748425,599617767519037317,-148.00
2025-06-12 19:11:16.748425,599617767519037317,-140.00
2025-06-12 19:11:16.748425,599617767519037317,-136.00
2025-06-12 19:11:16.748425,599617767519037317,-138.00
2025-06-12 19:11:16.748425,599617767519037317,-138.00
2025-06-12 19:11:16.748425,599617767519037317,-131.00
2025-06-12 19:11:16.748425,599617767519037317,-126.00
2025-06-12 19:11:16.748425,599617767519037317,-133.00
2025-06-12 19:11:16.748425,599617767519037317,-138.00
2025-06-12 19:11:16.748425,599617767519037317,-128.00
2025-06-12 19:11:16.748425,599617767519037317,-123.00
2025-06-12 19:11:16.748425,599617767519037317,-123.00
2025-06-12 19:11:17.319017,599617768079831000,-123.00
2025-06-12 19:11:17.319017,599617768079831000,-126.00
2025-06-12 19:11:17.319017,599617768079831000,-123.00
2025-06-12 19:11:17.319017,599617768079831000,-121.00
2025-06-12 19:11:17.319017,599617768079831000,-116.00
2025-06-12 19:11:17.319017,599617768079831000,-111.00
2025-06-12 19:11:17.319017,599617768079831000,-119.00
2025-06-12 19:11:17.319017,599617768079831000,-126.00
2025-06-12 19:11:17.319017,599617768079831000,-126.00
2025-06-12 19:11:17.319017,599617768079831000,-123.00
2025-06-12 19:11:17.319017,599617768079831000,-116.00
2025-06-12 19:11:17.319017,599617768079831000,-97.00
2025-06-12 19:11:17.319017,599617768079831000,-68.00
2025-06-12 19:11:17.319017,599617768079831000,-63.00
2025-06-12 19:11:17.319017,599617768079831000,-80.00
2025-06-12 19:11:17.319017,599617768079831000,-89.00
2025-06-12 19:11:17.319017,599617768079831000,-82.00
2025-06-12 19:11:17.319017,599617768079831000,-75.00
2025-06-12 19:11:17.319017,599617768079831000,-77.00
2025-06-12 19:11:17.319017,599617768079831000,-80.00
2025-06-12 19:11:17.319017,599617768079831000,-70.00
2025-06-12 19:11:17.319017,599617768079831000,-60.00
2025-06-12 19:11:17.319017,599617768079831000,-63.00
2025-06-12 19:11:17.319017,599617768079831000,-72.00
2025-06-12 19:11:17.319017,599617768079831000,-70.00
2025-06-12 19:11:17.319017,599617768079831000,-60.00
2025-06-12 19:11:17.319017,599617768079831000,-63.00
2025-06-12 19:11:17.319017,599617768079831000,-72.00
2025-06-12 19:11:17.319017,599617768079831000,-70.00
2025-06-12 19:11:17.319017,599617768079831000,104.00
2025-06-12 19:11:17.319017,599617768079831000,658.00
2025-06-12 19:11:17.319017,599617768079831000,1370.00
2025-06-12 19:11:17.319017,599617768079831000,1719.00
2025-06-12 19:11:17.319017,599617768079831000,1277.00
2025-06-12 19:11:17.319017,599617768079831000,165.00
2025-06-12 19:11:17.319017,599617768079831000,-517.00
2025-06-12 19:11:17.319017,599617768079831000,-264.00
2025-06-12 19:11:17.319017,599617768079831000,-43.00
2025-06-12 19:11:17.319017,599617768079831000,-208.00
2025-06-12 19:11:17.319017,599617768079831000,-221.00
2025-06-12 19:11:17.319017,599617768079831000,-121.00
2025-06-12 19:11:17.319017,599617768079831000,-145.00
2025-06-12 19:11:17.319017,599617768079831000,-155.00
2025-06-12 19:11:17.319017,599617768079831000,-116.00
2025-06-12 19:11:17.319017,599617768079831000,-114.00
2025-06-12 19:11:17.319017,599617768079831000,-114.00
2025-06-12 19:11:17.319017,599617768079831000,-87.00
2025-06-12 19:11:17.319017,599617768079831000,-72.00
2025-06-12 19:11:17.319017,599617768079831000,-65.00
2025-06-12 19:11:17.319017,599617768079831000,-51.00
2025-06-12 19:11:17.319017,599617768079831000,-34.00
2025-06-12 19:11:17.319017,599617768079831000,-14.00
2025-06-12 19:11:17.319017,599617768079831000,17.00
2025-06-12 19:11:17.319017,599617768079831000,46.00
2025-06-12 19:11:17.319017,599617768079831000,70.00
2025-06-12 19:11:17.319017,599617768079831000,99.00
2025-06-12 19:11:17.319017,599617768079831000,136.00
2025-06-12 19:11:17.319017,599617768079831000,165.00
2025-06-12 19:11:17.319017,599617768079831000,182.00
2025-06-12 19:11:17.319017,599617768079831000,199.00
2025-06-12 19:11:17.319017,599617768079831000,206.00
2025-06-12 19:11:17.319017,599617768079831000,194.00
2025-06-12 19:11:17.319017,599617768079831000,174.00
2025-06-12 19:11:17.319017,599617768079831000,145.00
2025-06-12 19:11:17.319017,599617768079831000,94.00
2025-06-12 19:11:17.319017,599617768079831000,21.00
2025-06-12 19:11:17.319017,599617768079831000,-53.00
2025-06-12 19:11:17.319017,599617768079831000,-116.00
2025-06-12 19:11:17.319017,599617768079831000,-172.00
2025-06-12 19:11:17.319017,599617768079831000,-213.00
2025-06-12 19:11:17.319017,599617768079831000,-230.00
2025-06-12 19:11:17.319017,599617768079831000,-235.00
2025-06-12 19:11:17.319017,599617768079831000,-228.00
2025-06-12 19:11:17.919194,599617768640619597,-223.00
2025-06-12 19:11:17.919194,599617768640619597,-225.00
2025-06-12 19:11:17.919194,599617768640619597,-218.00
2025-06-12 19:11:17.919194,599617768640619597,-201.00
2025-06-12 19:11:17.919194,599617768640619597,-194.00
2025-06-12 19:11:17.919194,599617768640619597,-191.00
2025-06-12 19:11:17.919194,599617768640619597,-182.00
2025-06-12 19:11:17.919194,599617768640619597,-167.00
2025-06-12 19:11:17.919194,599617768640619597,-153.00
2025-06-12 19:11:17.919194,599617768640619597,-150.00
2025-06-12 19:11:17.919194,599617768640619597,-150.00
2025-06-12 19:11:17.919194,599617768640619597,-140.00
2025-06-12 19:11:17.919194,599617768640619597,-131.00
2025-06-12 19:11:17.919194,599617768640619597,-123.00
2025-06-12 19:11:17.919194,599617768640619597,-128.00
2025-06-12 19:11:17.919194,599617768640619597,-136.00
2025-06-12 19:11:17.919194,599617768640619597,-126.00
2025-06-12 19:11:17.919194,599617768640619597,-119.00
2025-06-12 19:11:17.919194,599617768640619597,-131.00
2025-06-12 19:11:17.919194,599617768640619597,-136.00
2025-06-12 19:11:17.919194,599617768640619597,-123.00
2025-06-12 19:11:17.919194,599617768640619597,-116.00
2025-06-12 19:11:17.919194,599617768640619597,-126.00
2025-06-12 19:11:17.919194,599617768640619597,-126.00
2025-06-12 19:11:17.919194,599617768640619597,-116.00
2025-06-12 19:11:17.919194,599617768640619597,-123.00
2025-06-12 19:11:17.919194,599617768640619597,-133.00
2025-06-12 19:11:17.919194,599617768640619597,-133.00
2025-06-12 19:11:17.919194,599617768640619597,-136.00
2025-06-12 19:11:17.919194,599617768640619597,-133.00
2025-06-12 19:11:17.919194,599617768640619597,-114.00
2025-06-12 19:11:17.919194,599617768640619597,-87.00
2025-06-12 19:11:17.919194,599617768640619597,-70.00
2025-06-12 19:11:17.919194,599617768640619597,-75.00
2025-06-12 19:11:17.919194,599617768640619597,-102.00
2025-06-12 19:11:17.919194,599617768640619597,-104.00
2025-06-12 19:11:17.919194,599617768640619597,-87.00
2025-06-12 19:11:17.919194,599617768640619597,-87.00
2025-06-12 19:11:17.919194,599617768640619597,-97.00
2025-06-12 19:11:17.919194,599617768640619597,-89.00
2025-06-12 19:11:17.919194,599617768640619597,-85.00
2025-06-12 19:11:17.919194,599617768640619597,-87.00
2025-06-12 19:11:17.919194,599617768640619597,-85.00
2025-06-12 19:11:17.919194,599617768640619597,-77.00
2025-06-12 19:11:17.919194,599617768640619597,-77.00
2025-06-12 19:11:17.919194,599617768640619597,-75.00
2025-06-12 19:11:17.919194,599617768640619597,-77.00
2025-06-12 19:11:17.919194,599617768640619597,-87.00
2025-06-12 19:11:17.919194,599617768640619597,38.00
2025-06-12 19:11:17.919194,599617768640619597,527.00
2025-06-12 19:11:17.919194,599617768640619597,1234.00
2025-06-12 19:11:17.919194,599617768640619597,1673.00
2025-06-12 19:11:17.919194,599617768640619597,1396.00
2025-06-12 19:11:17.919194,599617768640619597,354.00
2025-06-12 19:11:17.919194,599617768640619597,-488.00
2025-06-12 19:11:17.919194,599617768640619597,-369.00
2025-06-12 19:11:17.919194,599617768640619597,-75.00
2025-06-12 19:11:17.919194,599617768640619597,-196.00
2025-06-12 19:11:17.919194,599617768640619597,-250.00
2025-06-12 19:11:17.919194,599617768640619597,-143.00
2025-06-12 19:11:17.919194,599617768640619597,-145.00
2025-06-12 19:11:17.919194,599617768640619597,-177.00
2025-06-12 19:11:17.919194,599617768640619597,-138.00
2025-06-12 19:11:17.919194,599617768640619597,-119.00
2025-06-12 19:11:17.919194,599617768640619597,-126.00
2025-06-12 19:11:17.919194,599617768640619597,-109.00
2025-06-12 19:11:17.919194,599617768640619597,-85.00
2025-06-12 19:11:17.919194,599617768640619597,-80.00
2025-06-12 19:11:17.919194,599617768640619597,-65.00
2025-06-12 19:11:17.919194,599617768640619597,-41.00
2025-06-12 19:11:17.919194,599617768640619597,-24.00
2025-06-12 19:11:17.919194,599617768640619597,-4.00
2025-06-12 19:11:17.919194,599617768640619597,24.00
2025-06-12 19:11:18.458688,599617769201418364,51.00
2025-06-12 19:11:18.458688,599617769201418364,80.00
2025-06-12 19:11:18.458688,599617769201418364,119.00
2025-06-12 19:11:18.458688,599617769201418364,160.00
2025-06-12 19:11:18.458688,599617769201418364,179.00
2025-06-12 19:11:18.458688,599617769201418364,184.00
2025-06-12 19:11:18.458688,599617769201418364,191.00
2025-06-12 19:11:18.458688,599617769201418364,191.00
2025-06-12 19:11:18.458688,599617769201418364,172.00
2025-06-12 19:11:18.458688,599617769201418364,143.00
2025-06-12 19:11:18.458688,599617769201418364,94.00
2025-06-12 19:11:18.458688,599617769201418364,24.00
2025-06-12 19:11:18.458688,599617769201418364,-48.00
2025-06-12 19:11:18.458688,599617769201418364,-119.00
2025-06-12 19:11:18.458688,599617769201418364,-182.00
2025-06-12 19:11:18.458688,599617769201418364,-218.00
2025-06-12 19:11:18.458688,599617769201418364,-233.00
2025-06-12 19:11:18.458688,599617769201418364,-242.00
2025-06-12 19:11:18.458688,599617769201418364,-242.00
2025-06-12 19:11:18.458688,599617769201418364,-242.00
2025-06-12 19:11:18.458688,599617769201418364,-238.00
2025-06-12 19:11:18.458688,599617769201418364,-230.00
2025-06-12 19:11:18.458688,599617769201418364,-218.00
2025-06-12 19:11:18.458688,599617769201418364,-208.00
2025-06-12 19:11:18.458688,599617769201418364,-201.00
2025-06-12 19:11:18.458688,599617769201418364,-189.00
2025-06-12 19:11:18.458688,599617769201418364,-174.00
2025-06-12 19:11:18.458688,599617769201418364,-167.00
2025-06-12 19:11:18.458688,599617769201418364,-157.00
2025-06-12 19:11:18.458688,599617769201418364,-153.00
2025-06-12 19:11:18.458688,599617769201418364,-150.00
2025-06-12 19:11:18.458688,599617769201418364,-145.00
2025-06-12 19:11:18.458688,599617769201418364,-140.00
2025-06-12 19:11:18.458688,599617769201418364,-143.00
2025-06-12 19:11:18.458688,599617769201418364,-145.00
2025-06-12 19:11:18.458688,599617769201418364,-138.00
2025-06-12 19:11:18.458688,599617769201418364,-136.00
2025-06-12 19:11:18.458688,599617769201418364,-138.00
2025-06-12 19:11:18.458688,599617769201418364,-138.00
2025-06-12 19:11:18.458688,599617769201418364,-136.00
2025-06-12 19:11:18.458688,599617769201418364,-136.00
2025-06-12 19:11:18.458688,599617769201418364,-133.00
2025-06-12 19:11:18.458688,599617769201418364,-126.00
2025-06-12 19:11:18.458688,599617769201418364,-126.00
2025-06-12 19:11:18.458688,599617769201418364,-133.00
2025-06-12 19:11:18.458688,599617769201418364,-140.00
2025-06-12 19:11:18.458688,599617769201418364,-140.00
2025-06-12 19:11:18.458688,599617769201418364,-138.00
2025-06-12 19:11:18.458688,599617769201418364,-138.00
2025-06-12 19:11:18.458688,599617769201418364,-126.00
2025-06-12 19:11:18.458688,599617769201418364,-89.00
2025-06-12 19:11:18.458688,599617769201418364,-70.00
2025-06-12 19:11:18.458688,599617769201418364,-87.00
2025-06-12 19:11:18.458688,599617769201418364,-104.00
2025-06-12 19:11:18.458688,599617769201418364,-106.00
2025-06-12 19:11:18.458688,599617769201418364,-94.00
2025-06-12 19:11:18.458688,599617769201418364,-85.00
2025-06-12 19:11:18.458688,599617769201418364,-85.00
2025-06-12 19:11:18.458688,599617769201418364,-89.00
2025-06-12 19:11:18.458688,599617769201418364,-85.00
2025-06-12 19:11:18.458688,599617769201418364,-77.00
2025-06-12 19:11:18.458688,599617769201418364,-80.00
2025-06-12 19:11:18.458688,599617769201418364,-77.00
2025-06-12 19:11:18.458688,599617769201418364,-70.00
2025-06-12 19:11:18.458688,599617769201418364,-75.00
2025-06-12 19:11:18.458688,599617769201418364,-87.00
2025-06-12 19:11:18.458688,599617769201418364,-94.00
2025-06-12 19:11:18.458688,599617769201418364,31.00
2025-06-12 19:11:18.458688,599617769201418364,507.00
2025-06-12 19:11:18.458688,599617769201418364,1212.00
2025-06-12 19:11:18.458688,599617769201418364,1681.00
2025-06-12 19:11:18.458688,599617769201418364,1430.00
2025-06-12 19:11:18.458688,599617769201418364,388.00
2025-06-12 19:11:18.998982,599617769762227305,-471.00
2025-06-12 19:11:18.998982,599617769762227305,-347.00
2025-06-12 19:11:18.998982,599617769762227305,-46.00
2025-06-12 19:11:18.998982,599617769762227305,-179.00
2025-06-12 19:11:18.998982,599617769762227305,-242.00
2025-06-12 19:11:18.998982,599617769762227305,-136.00
2025-06-12 19:11:18.998982,599617769762227305,-145.00
2025-06-12 19:11:18.998982,599617769762227305,-177.00
2025-06-12 19:11:18.998982,599617769762227305,-136.00
2025-06-12 19:11:18.998982,599617769762227305,-116.00
2025-06-12 19:11:18.998982,599617769762227305,-116.00
2025-06-12 19:11:18.998982,599617769762227305,-97.00
2025-06-12 19:11:18.998982,599617769762227305,-87.00
2025-06-12 19:11:18.998982,599617769762227305,-80.00
2025-06-12 19:11:18.998982,599617769762227305,-55.00
2025-06-12 19:11:18.998982,599617769762227305,-38.00
2025-06-12 19:11:18.998982,599617769762227305,-26.00
2025-06-12 19:11:18.998982,599617769762227305,-7.00
2025-06-12 19:11:18.998982,599617769762227305,14.00
2025-06-12 19:11:18.998982,599617769762227305,43.00
2025-06-12 19:11:18.998982,599617769762227305,80.00
2025-06-12 19:11:18.998982,599617769762227305,106.00
2025-06-12 19:11:18.998982,599617769762227305,136.00
2025-06-12 19:11:18.998982,599617769762227305,162.00
2025-06-12 19:11:18.998982,599617769762227305,174.00
2025-06-12 19:11:18.998982,599617769762227305,179.00
2025-06-12 19:11:18.998982,599617769762227305,177.00
2025-06-12 19:11:18.998982,599617769762227305,155.00
2025-06-12 19:11:18.998982,599617769762227305,128.00
2025-06-12 19:11:18.998982,599617769762227305,87.00
2025-06-12 19:11:18.998982,599617769762227305,21.00
2025-06-12 19:11:18.998982,599617769762227305,-46.00
2025-06-12 19:11:18.998982,599617769762227305,-104.00
2025-06-12 19:11:18.998982,599617769762227305,-165.00
2025-06-12 19:11:18.998982,599617769762227305,-208.00
2025-06-12 19:11:18.998982,599617769762227305,-221.00
2025-06-12 19:11:18.998982,599617769762227305,-225.00
2025-06-12 19:11:18.998982,599617769762227305,-233.00
2025-06-12 19:11:18.998982,599617769762227305,-228.00
2025-06-12 19:11:18.998982,599617769762227305,-218.00
2025-06-12 19:11:18.998982,599617769762227305,-211.00
2025-06-12 19:11:18.998982,599617769762227305,-196.00
2025-06-12 19:11:18.998982,599617769762227305,-191.00
2025-06-12 19:11:18.998982,599617769762227305,-187.00
2025-06-12 19:11:18.998982,599617769762227305,-172.00
2025-06-12 19:11:18.998982,599617769762227305,-162.00
2025-06-12 19:11:18.998982,599617769762227305,-157.00
2025-06-12 19:11:18.998982,599617769762227305,-150.00
2025-06-12 19:11:18.998982,599617769762227305,-145.00
2025-06-12 19:11:18.998982,599617769762227305,-143.00
2025-06-12 19:11:18.998982,599617769762227305,-136.00
2025-06-12 19:11:18.998982,599617769762227305,-131.00
2025-06-12 19:11:18.998982,599617769762227305,-131.00
2025-06-12 19:11:18.998982,599617769762227305,-133.00
2025-06-12 19:11:18.998982,599617769762227305,-136.00
2025-06-12 19:11:18.998982,599617769762227305,-136.00
2025-06-12 19:11:18.998982,599617769762227305,-128.00
2025-06-12 19:11:18.998982,599617769762227305,-126.00
2025-06-12 19:11:18.998982,599617769762227305,-123.00
2025-06-12 19:11:18.998982,599617769762227305,-121.00
2025-06-12 19:11:18.998982,599617769762227305,-121.00
2025-06-12 19:11:18.998982,599617769762227305,-126.00
2025-06-12 19:11:18.998982,599617769762227305,-126.00
2025-06-12 19:11:18.998982,599617769762227305,-126.00
2025-06-12 19:11:18.998982,599617769762227305,-123.00
2025-06-12 19:11:18.998982,599617769762227305,-123.00
2025-06-12 19:11:18.998982,599617769762227305,-136.00
2025-06-12 19:11:18.998982,599617769762227305,-133.00
2025-06-12 19:11:18.998982,599617769762227305,-119.00
2025-06-12 19:11:18.998982,599617769762227305,-106.00
2025-06-12 19:11:18.998982,599617769762227305,-82.00
2025-06-12 19:11:18.998982,599617769762227305,-70.00
2025-06-12 19:11:18.998982,599617769762227305,-85.00
2025-06-12 19:11:19.568953,599617770323015900,-94.00
2025-06-12 19:11:19.568953,599617770323015900,-85.00
2025-06-12 19:11:19.568953,599617770323015900,-85.00
2025-06-12 19:11:19.568953,599617770323015900,-85.00
2025-06-12 19:11:19.568953,599617770323015900,-80.00
2025-06-12 19:11:19.568953,599617770323015900,-77.00
2025-06-12 19:11:19.568953,599617770323015900,-80.00
2025-06-12 19:11:19.568953,599617770323015900,-77.00
2025-06-12 19:11:19.568953,599617770323015900,-70.00
2025-06-12 19:11:19.568953,599617770323015900,-70.00
2025-06-12 19:11:19.568953,599617770323015900,-68.00
2025-06-12 19:11:19.568953,599617770323015900,-63.00
2025-06-12 19:11:19.568953,599617770323015900,-70.00
2025-06-12 19:11:19.568953,599617770323015900,-77.00
2025-06-12 19:11:19.568953,599617770323015900,82.00
2025-06-12 19:11:19.568953,599617770323015900,612.00
2025-06-12 19:11:19.568953,599617770323015900,1309.00
2025-06-12 19:11:19.568953,599617770323015900,1688.00
2025-06-12 19:11:19.568953,599617770323015900,1306.00
2025-06-12 19:11:19.568953,599617770323015900,221.00
2025-06-12 19:11:19.568953,599617770323015900,-502.00
2025-06-12 19:11:19.568953,599617770323015900,-279.00
2025-06-12 19:11:19.568953,599617770323015900,-38.00
2025-06-12 19:11:19.568953,599617770323015900,-199.00
2025-06-12 19:11:19.568953,599617770323015900,-225.00
2025-06-12 19:11:19.568953,599617770323015900,-123.00
2025-06-12 19:11:19.568953,599617770323015900,-145.00
2025-06-12 19:11:19.568953,599617770323015900,-162.00
2025-06-12 19:11:19.568953,599617770323015900,-121.00
2025-06-12 19:11:19.568953,599617770323015900,-114.00
2025-06-12 19:11:19.568953,599617770323015900,-114.00
2025-06-12 19:11:19.568953,599617770323015900,-97.00
2025-06-12 19:11:19.568953,599617770323015900,-80.00
2025-06-12 19:11:19.568953,599617770323015900,-68.00
2025-06-12 19:11:19.568953,599617770323015900,-55.00
2025-06-12 19:11:19.568953,599617770323015900,-43.00
2025-06-12 19:11:19.568953,599617770323015900,-17.00
2025-06-12 19:11:19.568953,599617770323015900,12.00
2025-06-12 19:11:19.568953,599617770323015900,24.00
2025-06-12 19:11:19.568953,599617770323015900,51.00
2025-06-12 19:11:19.568953,599617770323015900,92.00
2025-06-12 19:11:19.568953,599617770323015900,119.00
2025-06-12 19:11:19.568953,599617770323015900,148.00
2025-06-12 19:11:19.568953,599617770323015900,174.00
2025-06-12 19:11:19.568953,599617770323015900,182.00
2025-06-12 19:11:19.568953,599617770323015900,179.00
2025-06-12 19:11:19.568953,599617770323015900,174.00
2025-06-12 19:11:19.568953,599617770323015900,153.00
2025-06-12 19:11:19.568953,599617770323015900,126.00
2025-06-12 19:11:19.568953,599617770323015900,85.00
2025-06-12 19:11:19.568953,599617770323015900,19.00
2025-06-12 19:11:19.568953,599617770323015900,-53.00
2025-06-12 19:11:19.568953,599617770323015900,-116.00
2025-06-12 19:11:19.568953,599617770323015900,-167.00
2025-06-12 19:11:19.568953,599617770323015900,-204.00
2025-06-12 19:11:19.568953,599617770323015900,-221.00
2025-06-12 19:11:19.568953,599617770323015900,-225.00
2025-06-12 19:11:19.568953,599617770323015900,-228.00
2025-06-12 19:11:19.568953,599617770323015900,-223.00
2025-06-12 19:11:19.568953,599617770323015900,-218.00
2025-06-12 19:11:19.568953,599617770323015900,-208.00
2025-06-12 19:11:19.568953,599617770323015900,-196.00
2025-06-12 19:11:19.568953,599617770323015900,-187.00
2025-06-12 19:11:19.568953,599617770323015900,-182.00
2025-06-12 19:11:19.568953,599617770323015900,-174.00
2025-06-12 19:11:19.568953,599617770323015900,-162.00
2025-06-12 19:11:19.568953,599617770323015900,-150.00
2025-06-12 19:11:19.568953,599617770323015900,-150.00
2025-06-12 19:11:19.568953,599617770323015900,-148.00
2025-06-12 19:11:19.568953,599617770323015900,-136.00
2025-06-12 19:11:19.568953,599617770323015900,-131.00
2025-06-12 19:11:19.568953,599617770323015900,-136.00
2025-06-12 19:11:19.568953,599617770323015900,-136.00
2025-06-12 19:11:20.110458,599617770883804495,-131.00
2025-06-12 19:11:20.110458,599617770883804495,-131.00
2025-06-12 19:11:20.110458,599617770883804495,-131.00
2025-06-12 19:11:20.110458,599617770883804495,-128.00
2025-06-12 19:11:20.110458,599617770883804495,-126.00
2025-06-12 19:11:20.110458,599617770883804495,-126.00
2025-06-12 19:11:20.110458,599617770883804495,-126.00
2025-06-12 19:11:20.110458,599617770883804495,-121.00
2025-06-12 19:11:20.110458,599617770883804495,-121.00
2025-06-12 19:11:20.110458,599617770883804495,-119.00
2025-06-12 19:11:20.110458,599617770883804495,-114.00
2025-06-12 19:11:20.110458,599617770883804495,-114.00
2025-06-12 19:11:20.110458,599617770883804495,-114.00
2025-06-12 19:11:20.110458,599617770883804495,-119.00
2025-06-12 19:11:20.110458,599617770883804495,-126.00
2025-06-12 19:11:20.110458,599617770883804495,-133.00
2025-06-12 19:11:20.110458,599617770883804495,-126.00
2025-06-12 19:11:20.110458,599617770883804495,-109.00
2025-06-12 19:11:20.110458,599617770883804495,-99.00
2025-06-12 19:11:20.110458,599617770883804495,-80.00
2025-06-12 19:11:20.110458,599617770883804495,-65.00
2025-06-12 19:11:20.110458,599617770883804495,-80.00
2025-06-12 19:11:20.110458,599617770883804495,-97.00
2025-06-12 19:11:20.110458,599617770883804495,-92.00
2025-06-12 19:11:20.110458,599617770883804495,-85.00
2025-06-12 19:11:20.110458,599617770883804495,-77.00
2025-06-12 19:11:20.110458,599617770883804495,-72.00
2025-06-12 19:11:20.110458,599617770883804495,-75.00
2025-06-12 19:11:20.110458,599617770883804495,-77.00
2025-06-12 19:11:20.110458,599617770883804495,-72.00
2025-06-12 19:11:20.110458,599617770883804495,-70.00
2025-06-12 19:11:20.110458,599617770883804495,-75.00
2025-06-12 19:11:20.110458,599617770883804495,-72.00
2025-06-12 19:11:20.110458,599617770883804495,-65.00
2025-06-12 19:11:20.110458,599617770883804495,-65.00
2025-06-12 19:11:20.110458,599617770883804495,-77.00
2025-06-12 19:11:20.110458,599617770883804495,53.00
2025-06-12 19:11:20.110458,599617770883804495,551.00
2025-06-12 19:11:20.110458,599617770883804495,1253.00
2025-06-12 19:11:20.110458,599617770883804495,1678.00
2025-06-12 19:11:20.110458,599617770883804495,1367.00
2025-06-12 19:11:20.110458,599617770883804495,308.00
2025-06-12 19:11:20.110458,599617770883804495,-485.00
2025-06-12 19:11:20.110458,599617770883804495,-313.00
2025-06-12 19:11:20.110458,599617770883804495,-36.00
2025-06-12 19:11:20.110458,599617770883804495,-177.00
2025-06-12 19:11:20.110458,599617770883804495,-228.00
2025-06-12 19:11:20.110458,599617770883804495,-126.00
2025-06-12 19:11:20.110458,599617770883804495,-136.00
2025-06-12 19:11:20.110458,599617770883804495,-162.00
2025-06-12 19:11:20.110458,599617770883804495,-123.00
2025-06-12 19:11:20.110458,599617770883804495,-104.00
2025-06-12 19:11:20.110458,599617770883804495,-106.00
2025-06-12 19:11:20.110458,599617770883804495,-89.00
2025-06-12 19:11:20.110458,599617770883804495,-72.00
2025-06-12 19:11:20.110458,599617770883804495,-63.00
2025-06-12 19:11:20.110458,599617770883804495,-48.00
2025-06-12 19:11:20.110458,599617770883804495,-34.00
2025-06-12 19:11:20.110458,599617770883804495,-19.00
2025-06-12 19:11:20.110458,599617770883804495,2.00
2025-06-12 19:11:20.110458,599617770883804495,36.00
2025-06-12 19:11:20.110458,599617770883804495,60.00
2025-06-12 19:11:20.110458,599617770883804495,82.00
2025-06-12 19:11:20.110458,599617770883804495,111.00
2025-06-12 19:11:20.110458,599617770883804495,143.00
2025-06-12 19:11:20.110458,599617770883804495,170.00
2025-06-12 19:11:20.110458,599617770883804495,184.00
2025-06-12 19:11:20.110458,599617770883804495,182.00
2025-06-12 19:11:20.110458,599617770883804495,172.00
2025-06-12 19:11:20.110458,599617770883804495,160.00
2025-06-12 19:11:20.110458,599617770883804495,136.00
2025-06-12 19:11:20.110458,599617770883804495,92.00
2025-06-12 19:11:20.110458,599617770883804495,26.00
2025-06-12 19:11:20.682461,599617771444623606,-41.00
2025-06-12 19:11:20.682461,599617771444623606,-102.00
2025-06-12 19:11:20.682461,599617771444623606,-153.00
2025-06-12 19:11:20.682461,599617771444623606,-194.00
2025-06-12 19:11:20.682461,599617771444623606,-218.00
2025-06-12 19:11:20.682461,599617771444623606,-221.00
2025-06-12 19:11:20.682461,599617771444623606,-218.00
2025-06-12 19:11:20.682461,599617771444623606,-216.00
2025-06-12 19:11:20.682461,599617771444623606,-211.00
2025-06-12 19:11:20.682461,599617771444623606,-206.00
2025-06-12 19:11:20.682461,599617771444623606,-196.00
2025-06-12 19:11:20.682461,599617771444623606,-182.00
2025-06-12 19:11:20.682461,599617771444623606,-174.00
2025-06-12 19:11:20.682461,599617771444623606,-170.00
2025-06-12 19:11:20.682461,599617771444623606,-157.00
2025-06-12 19:11:20.682461,599617771444623606,-150.00
2025-06-12 19:11:20.682461,599617771444623606,-140.00
2025-06-12 19:11:20.682461,599617771444623606,-133.00
2025-06-12 19:11:20.682461,599617771444623606,-133.00
2025-06-12 19:11:20.682461,599617771444623606,-136.00
2025-06-12 19:11:20.682461,599617771444623606,-133.00
2025-06-12 19:11:20.682461,599617771444623606,-128.00
2025-06-12 19:11:20.682461,599617771444623606,-126.00
2025-06-12 19:11:20.682461,599617771444623606,-126.00
2025-06-12 19:11:20.682461,599617771444623606,-126.00
2025-06-12 19:11:20.682461,599617771444623606,-123.00
2025-06-12 19:11:20.682461,599617771444623606,-126.00
2025-06-12 19:11:20.682461,599617771444623606,-126.00
2025-06-12 19:11:20.682461,599617771444623606,-121.00
2025-06-12 19:11:20.682461,599617771444623606,-119.00
2025-06-12 19:11:20.682461,599617771444623606,-121.00
2025-06-12 19:11:20.682461,599617771444623606,-121.00
2025-06-12 19:11:20.682461,599617771444623606,-121.00
2025-06-12 19:11:20.682461,599617771444623606,-111.00
2025-06-12 19:11:20.682461,599617771444623606,-104.00
2025-06-12 19:11:20.682461,599617771444623606,-109.00
2025-06-12 19:11:20.682461,599617771444623606,-109.00
2025-06-12 19:11:20.682461,599617771444623606,-102.00
2025-06-12 19:11:20.682461,599617771444623606,-104.00
2025-06-12 19:11:20.682461,599617771444623606,-111.00
2025-06-12 19:11:20.682461,599617771444623606,-111.00
2025-06-12 19:11:20.682461,599617771444623606,-116.00
2025-06-12 19:11:20.682461,599617771444623606,-121.00
2025-06-12 19:11:20.682461,599617771444623606,-111.00
2025-06-12 19:11:20.682461,599617771444623606,-80.00
2025-06-12 19:11:20.682461,599617771444623606,-48.00
2025-06-12 19:11:20.682461,599617771444623606,-46.00
2025-06-12 19:11:20.682461,599617771444623606,-68.00
2025-06-12 19:11:20.682461,599617771444623606,-82.00
2025-06-12 19:11:20.682461,599617771444623606,-72.00
2025-06-12 19:11:20.682461,599617771444623606,-63.00
2025-06-12 19:11:20.682461,599617771444623606,-68.00
2025-06-12 19:11:20.682461,599617771444623606,-72.00
2025-06-12 19:11:20.682461,599617771444623606,-70.00
2025-06-12 19:11:20.682461,599617771444623606,-60.00
2025-06-12 19:11:20.682461,599617771444623606,-58.00
2025-06-12 19:11:20.682461,599617771444623606,-68.00
2025-06-12 19:11:20.682461,599617771444623606,-68.00
2025-06-12 19:11:20.682461,599617771444623606,-55.00
2025-06-12 19:11:20.682461,599617771444623606,-51.00
2025-06-12 19:11:20.682461,599617771444623606,-58.00
2025-06-12 19:11:20.682461,599617771444623606,-70.00
2025-06-12 19:11:20.682461,599617771444623606,36.00
2025-06-12 19:11:20.682461,599617771444623606,505.00
2025-06-12 19:11:20.682461,599617771444623606,1212.00
2025-06-12 19:11:20.682461,599617771444623606,1673.00
2025-06-12 19:11:20.682461,599617771444623606,1416.00
2025-06-12 19:11:20.682461,599617771444623606,386.00
2025-06-12 19:11:20.682461,599617771444623606,-451.00
2025-06-12 19:11:20.682461,599617771444623606,-327.00
2025-06-12 19:11:20.682461,599617771444623606,-41.00
2025-06-12 19:11:20.682461,599617771444623606,-172.00
2025-06-12 19:11:20.682461,599617771444623606,-230.00
2025-06-12 19:11:21.310874,599617772005412205,-123.00
2025-06-12 19:11:21.310874,599617772005412205,-131.00
2025-06-12 19:11:21.310874,599617772005412205,-160.00
2025-06-12 19:11:21.310874,599617772005412205,-121.00
2025-06-12 19:11:21.310874,599617772005412205,-109.00
2025-06-12 19:11:21.310874,599617772005412205,-114.00
2025-06-12 19:11:21.310874,599617772005412205,-87.00
2025-06-12 19:11:21.310874,599617772005412205,-70.00
2025-06-12 19:11:21.310874,599617772005412205,-65.00
2025-06-12 19:11:21.310874,599617772005412205,-48.00
2025-06-12 19:11:21.310874,599617772005412205,-31.00
2025-06-12 19:11:21.310874,599617772005412205,-14.00
2025-06-12 19:11:21.310874,599617772005412205,7.00
2025-06-12 19:11:21.310874,599617772005412205,31.00
2025-06-12 19:11:21.310874,599617772005412205,53.00
2025-06-12 19:11:21.310874,599617772005412205,80.00
2025-06-12 19:11:21.310874,599617772005412205,119.00
2025-06-12 19:11:21.310874,599617772005412205,150.00
2025-06-12 19:11:21.310874,599617772005412205,172.00
2025-06-12 19:11:21.310874,599617772005412205,189.00
2025-06-12 19:11:21.310874,599617772005412205,191.00
2025-06-12 19:11:21.310874,599617772005412205,179.00
2025-06-12 19:11:21.310874,599617772005412205,165.00
2025-06-12 19:11:21.310874,599617772005412205,145.00
2025-06-12 19:11:21.310874,599617772005412205,104.00
2025-06-12 19:11:21.310874,599617772005412205,43.00
2025-06-12 19:11:21.310874,599617772005412205,-29.00
2025-06-12 19:11:21.310874,599617772005412205,-99.00
2025-06-12 19:11:21.310874,599617772005412205,-148.00
2025-06-12 19:11:21.310874,599617772005412205,-179.00
2025-06-12 19:11:21.310874,599617772005412205,-208.00
2025-06-12 19:11:21.310874,599617772005412205,-225.00
2025-06-12 19:11:21.310874,599617772005412205,-225.00
2025-06-12 19:11:21.310874,599617772005412205,-218.00
2025-06-12 19:11:21.310874,599617772005412205,-206.00
2025-06-12 19:11:21.310874,599617772005412205,-196.00
2025-06-12 19:11:21.310874,599617772005412205,-191.00
2025-06-12 19:11:21.310874,599617772005412205,-187.00
2025-06-12 19:11:21.310874,599617772005412205,-182.00
2025-06-12 19:11:21.310874,599617772005412205,-172.00
2025-06-12 19:11:21.310874,599617772005412205,-157.00
2025-06-12 19:11:21.310874,599617772005412205,-148.00
2025-06-12 19:11:21.310874,599617772005412205,-140.00
2025-06-12 19:11:21.310874,599617772005412205,-133.00
2025-06-12 19:11:21.310874,599617772005412205,-128.00
2025-06-12 19:11:21.310874,599617772005412205,-128.00
2025-06-12 19:11:21.310874,599617772005412205,-123.00
2025-06-12 19:11:21.310874,599617772005412205,-123.00
2025-06-12 19:11:21.310874,599617772005412205,-133.00
2025-06-12 19:11:21.310874,599617772005412205,-131.00
2025-06-12 19:11:21.310874,599617772005412205,-121.00
2025-06-12 19:11:21.310874,599617772005412205,-119.00
2025-06-12 19:11:21.310874,599617772005412205,-121.00
2025-06-12 19:11:21.310874,599617772005412205,-123.00
2025-06-12 19:11:21.310874,599617772005412205,-123.00
2025-06-12 19:11:21.310874,599617772005412205,-123.00
2025-06-12 19:11:21.310874,599617772005412205,-121.00
2025-06-12 19:11:21.310874,599617772005412205,-114.00
2025-06-12 19:11:21.310874,599617772005412205,-114.00
2025-06-12 19:11:21.310874,599617772005412205,-116.00
2025-06-12 19:11:21.310874,599617772005412205,-114.00
2025-06-12 19:11:21.310874,599617772005412205,-111.00
2025-06-12 19:11:21.310874,599617772005412205,-116.00
2025-06-12 19:11:21.310874,599617772005412205,-121.00
2025-06-12 19:11:21.310874,599617772005412205,-121.00
2025-06-12 19:11:21.310874,599617772005412205,-123.00
2025-06-12 19:11:21.310874,599617772005412205,-116.00
2025-06-12 19:11:21.310874,599617772005412205,-87.00
2025-06-12 19:11:21.310874,599617772005412205,-63.00
2025-06-12 19:11:21.310874,599617772005412205,-72.00
2025-06-12 19:11:21.310874,599617772005412205,-94.00
2025-06-12 19:11:21.310874,599617772005412205,-94.00
2025-06-12 19:11:21.310874,599617772005412205,-82.00
2025-06-12 19:11:21.820208,599617772566200800,-77.00
2025-06-12 19:11:21.820208,599617772566200800,-75.00
2025-06-12 19:11:21.820208,599617772566200800,-68.00
2025-06-12 19:11:21.820208,599617772566200800,-65.00
2025-06-12 19:11:21.820208,599617772566200800,-70.00
2025-06-12 19:11:21.820208,599617772566200800,-75.00
2025-06-12 19:11:21.820208,599617772566200800,-72.00
2025-06-12 19:11:21.820208,599617772566200800,-68.00
2025-06-12 19:11:21.820208,599617772566200800,-68.00
2025-06-12 19:11:21.820208,599617772566200800,-68.00
2025-06-12 19:11:21.820208,599617772566200800,-68.00
2025-06-12 19:11:21.820208,599617772566200800,-34.00
2025-06-12 19:11:21.820208,599617772566200800,267.00
2025-06-12 19:11:21.820208,599617772566200800,920.00
2025-06-12 19:11:21.820208,599617772566200800,1549.00
2025-06-12 19:11:21.820208,599617772566200800,1656.00
2025-06-12 19:11:21.820208,599617772566200800,927.00
2025-06-12 19:11:21.820208,599617772566200800,-177.00
2025-06-12 19:11:21.820208,599617772566200800,-512.00
2025-06-12 19:11:21.820208,599617772566200800,-138.00
2025-06-12 19:11:21.820208,599617772566200800,-82.00
2025-06-12 19:11:21.820208,599617772566200800,-247.00
2025-06-12 19:11:21.820208,599617772566200800,-174.00
2025-06-12 19:11:21.820208,599617772566200800,-111.00
2025-06-12 19:11:21.820208,599617772566200800,-162.00
2025-06-12 19:11:21.820208,599617772566200800,-148.00
2025-06-12 19:11:21.820208,599617772566200800,-104.00
2025-06-12 19:11:21.820208,599617772566200800,-104.00
2025-06-12 19:11:21.820208,599617772566200800,-99.00
2025-06-12 19:11:21.820208,599617772566200800,-77.00
2025-06-12 19:11:21.820208,599617772566200800,-63.00
2025-06-12 19:11:21.820208,599617772566200800,-51.00
2025-06-12 19:11:21.820208,599617772566200800,-26.00
2025-06-12 19:11:21.820208,599617772566200800,-7.00
2025-06-12 19:11:21.820208,599617772566200800,7.00
2025-06-12 19:11:21.820208,599617772566200800,31.00
2025-06-12 19:11:21.820208,599617772566200800,60.00
2025-06-12 19:11:21.820208,599617772566200800,92.00
2025-06-12 19:11:21.820208,599617772566200800,123.00
2025-06-12 19:11:21.820208,599617772566200800,157.00
2025-06-12 19:11:21.820208,599617772566200800,184.00
2025-06-12 19:11:21.820208,599617772566200800,206.00
2025-06-12 19:11:21.820208,599617772566200800,218.00
2025-06-12 19:11:21.820208,599617772566200800,216.00
2025-06-12 19:11:21.820208,599617772566200800,201.00
2025-06-12 19:11:21.820208,599617772566200800,170.00
2025-06-12 19:11:21.820208,599617772566200800,131.00
2025-06-12 19:11:21.820208,599617772566200800,75.00
2025-06-12 19:11:21.820208,599617772566200800,-2.00
2025-06-12 19:11:21.820208,599617772566200800,-80.00
2025-06-12 19:11:21.820208,599617772566200800,-150.00
2025-06-12 19:11:21.820208,599617772566200800,-199.00
2025-06-12 19:11:21.820208,599617772566200800,-225.00
2025-06-12 19:11:21.820208,599617772566200800,-242.00
2025-06-12 19:11:21.820208,599617772566200800,-247.00
2025-06-12 19:11:21.820208,599617772566200800,-240.00
2025-06-12 19:11:21.820208,599617772566200800,-242.00
2025-06-12 19:11:21.820208,599617772566200800,-238.00
2025-06-12 19:11:21.820208,599617772566200800,-221.00
2025-06-12 19:11:21.820208,599617772566200800,-211.00
2025-06-12 19:11:21.820208,599617772566200800,-206.00
2025-06-12 19:11:21.820208,599617772566200800,-194.00
2025-06-12 19:11:21.820208,599617772566200800,-184.00
2025-06-12 19:11:21.820208,599617772566200800,-174.00
2025-06-12 19:11:21.820208,599617772566200800,-157.00
2025-06-12 19:11:21.820208,599617772566200800,-153.00
2025-06-12 19:11:21.820208,599617772566200800,-155.00
2025-06-12 19:11:21.820208,599617772566200800,-148.00
2025-06-12 19:11:21.820208,599617772566200800,-138.00
2025-06-12 19:11:21.820208,599617772566200800,-138.00
2025-06-12 19:11:21.820208,599617772566200800,-140.00
2025-06-12 19:11:21.820208,599617772566200800,-136.00
2025-06-12 19:11:21.820208,599617772566200800,-133.00
2025-06-12 19:11:22.391462,599617773127019913,-140.00
2025-06-12 19:11:22.391462,599617773127019913,-140.00
2025-06-12 19:11:22.391462,599617773127019913,-136.00
2025-06-12 19:11:22.391462,599617773127019913,-138.00
2025-06-12 19:11:22.391462,599617773127019913,-143.00
2025-06-12 19:11:22.391462,599617773127019913,-138.00
2025-06-12 19:11:22.391462,599617773127019913,-131.00
2025-06-12 19:11:22.391462,599617773127019913,-128.00
2025-06-12 19:11:22.391462,599617773127019913,-131.00
2025-06-12 19:11:22.391462,599617773127019913,-128.00
2025-06-12 19:11:22.391462,599617773127019913,-133.00
2025-06-12 19:11:22.391462,599617773127019913,-143.00
2025-06-12 19:11:22.391462,599617773127019913,-143.00
2025-06-12 19:11:22.391462,599617773127019913,-123.00
2025-06-12 19:11:22.391462,599617773127019913,-92.00
2025-06-12 19:11:22.391462,599617773127019913,-80.00
2025-06-12 19:11:22.391462,599617773127019913,-97.00
2025-06-12 19:11:22.391462,599617773127019913,-114.00
2025-06-12 19:11:22.391462,599617773127019913,-114.00
2025-06-12 19:11:22.391462,599617773127019913,-92.00
2025-06-12 19:11:22.391462,599617773127019913,-77.00
2025-06-12 19:11:22.391462,599617773127019913,-85.00
2025-06-12 19:11:22.391462,599617773127019913,-89.00
2025-06-12 19:11:22.391462,599617773127019913,-80.00
2025-06-12 19:11:22.391462,599617773127019913,-75.00
2025-06-12 19:11:22.391462,599617773127019913,-82.00
2025-06-12 19:11:22.391462,599617773127019913,-82.00
2025-06-12 19:11:22.391462,599617773127019913,-80.00
2025-06-12 19:11:22.391462,599617773127019913,-80.00
2025-06-12 19:11:22.391462,599617773127019913,-75.00
2025-06-12 19:11:22.391462,599617773127019913,-77.00
2025-06-12 19:11:22.391462,599617773127019913,41.00
2025-06-12 19:11:22.391462,599617773127019913,529.00
2025-06-12 19:11:22.391462,599617773127019913,1246.00
2025-06-12 19:11:22.391462,599617773127019913,1673.00
2025-06-12 19:11:22.391462,599617773127019913,1394.00
2025-06-12 19:11:22.391462,599617773127019913,376.00
2025-06-12 19:11:22.391462,599617773127019913,-480.00
2025-06-12 19:11:22.391462,599617773127019913,-383.00
2025-06-12 19:11:22.391462,599617773127019913,-70.00
2025-06-12 19:11:22.391462,599617773127019913,-179.00
2025-06-12 19:11:22.391462,599617773127019913,-247.00
2025-06-12 19:11:22.391462,599617773127019913,-148.00
2025-06-12 19:11:22.391462,599617773127019913,-148.00
2025-06-12 19:11:22.391462,599617773127019913,-177.00
2025-06-12 19:11:22.391462,599617773127019913,-138.00
2025-06-12 19:11:22.391462,599617773127019913,-121.00
2025-06-12 19:11:22.391462,599617773127019913,-126.00
2025-06-12 19:11:22.391462,599617773127019913,-109.00
2025-06-12 19:11:22.391462,599617773127019913,-87.00
2025-06-12 19:11:22.391462,599617773127019913,-72.00
2025-06-12 19:11:22.391462,599617773127019913,-55.00
2025-06-12 19:11:22.391462,599617773127019913,-38.00
2025-06-12 19:11:22.391462,599617773127019913,-21.00
2025-06-12 19:11:22.391462,599617773127019913,2.00
2025-06-12 19:11:22.391462,599617773127019913,24.00
2025-06-12 19:11:22.391462,599617773127019913,48.00
2025-06-12 19:11:22.391462,599617773127019913,85.00
2025-06-12 19:11:22.391462,599617773127019913,126.00
2025-06-12 19:11:22.391462,599617773127019913,153.00
2025-06-12 19:11:22.391462,599617773127019913,179.00
2025-06-12 19:11:22.391462,599617773127019913,199.00
2025-06-12 19:11:22.391462,599617773127019913,194.00
2025-06-12 19:11:22.391462,599617773127019913,179.00
2025-06-12 19:11:22.391462,599617773127019913,165.00
2025-06-12 19:11:22.391462,599617773127019913,136.00
2025-06-12 19:11:22.391462,599617773127019913,77.00
2025-06-12 19:11:22.391462,599617773127019913,4.00
2025-06-12 19:11:22.391462,599617773127019913,-68.00
2025-06-12 19:11:22.391462,599617773127019913,-136.00
2025-06-12 19:11:22.391462,599617773127019913,-189.00
2025-06-12 19:11:22.391462,599617773127019913,-223.00
2025-06-12 19:11:22.391462,599617773127019913,-245.00
2025-06-12 19:11:22.961765,599617773687808508,-255.00
2025-06-12 19:11:22.961765,599617773687808508,-247.00
2025-06-12 19:11:22.961765,599617773687808508,-245.00
2025-06-12 19:11:22.961765,599617773687808508,-245.00
2025-06-12 19:11:22.961765,599617773687808508,-235.00
2025-06-12 19:11:22.961765,599617773687808508,-225.00
2025-06-12 19:11:22.961765,599617773687808508,-211.00
2025-06-12 19:11:22.961765,599617773687808508,-199.00
2025-06-12 19:11:22.961765,599617773687808508,-189.00
2025-06-12 19:11:22.961765,599617773687808508,-179.00
2025-06-12 19:11:22.961765,599617773687808508,-174.00
2025-06-12 19:11:22.961765,599617773687808508,-170.00
2025-06-12 19:11:22.961765,599617773687808508,-157.00
2025-06-12 19:11:22.961765,599617773687808508,-150.00
2025-06-12 19:11:22.961765,599617773687808508,-148.00
2025-06-12 19:11:22.961765,599617773687808508,-143.00
2025-06-12 19:11:22.961765,599617773687808508,-143.00
2025-06-12 19:11:22.961765,599617773687808508,-140.00
2025-06-12 19:11:22.961765,599617773687808508,-136.00
2025-06-12 19:11:22.961765,599617773687808508,-136.00
2025-06-12 19:11:22.961765,599617773687808508,-148.00
2025-06-12 19:11:22.961765,599617773687808508,-148.00
2025-06-12 19:11:22.961765,599617773687808508,-133.00
2025-06-12 19:11:22.961765,599617773687808508,-128.00
2025-06-12 19:11:22.961765,599617773687808508,-138.00
2025-06-12 19:11:22.961765,599617773687808508,-140.00
2025-06-12 19:11:22.961765,599617773687808508,-133.00
2025-06-12 19:11:22.961765,599617773687808508,-131.00
2025-06-12 19:11:22.961765,599617773687808508,-131.00
2025-06-12 19:11:22.961765,599617773687808508,-133.00
2025-06-12 19:11:22.961765,599617773687808508,-136.00
2025-06-12 19:11:22.961765,599617773687808508,-140.00
2025-06-12 19:11:22.961765,599617773687808508,-140.00
2025-06-12 19:11:22.961765,599617773687808508,-133.00
2025-06-12 19:11:22.961765,599617773687808508,-121.00
2025-06-12 19:11:22.961765,599617773687808508,-102.00
2025-06-12 19:11:22.961765,599617773687808508,-80.00
2025-06-12 19:11:22.961765,599617773687808508,-80.00
2025-06-12 19:11:22.961765,599617773687808508,-102.00
2025-06-12 19:11:22.961765,599617773687808508,-106.00
2025-06-12 19:11:22.961765,599617773687808508,-92.00
2025-06-12 19:11:22.961765,599617773687808508,-89.00
2025-06-12 19:11:22.961765,599617773687808508,-94.00
2025-06-12 19:11:22.961765,599617773687808508,-89.00
2025-06-12 19:11:22.961765,599617773687808508,-80.00
2025-06-12 19:11:22.961765,599617773687808508,-82.00
2025-06-12 19:11:22.961765,599617773687808508,-89.00
2025-06-12 19:11:22.961765,599617773687808508,-87.00
2025-06-12 19:11:22.961765,599617773687808508,-80.00
2025-06-12 19:11:22.961765,599617773687808508,-75.00
2025-06-12 19:11:22.961765,599617773687808508,-82.00
2025-06-12 19:11:22.961765,599617773687808508,-97.00
2025-06-12 19:11:22.961765,599617773687808508,-31.00
2025-06-12 19:11:22.961765,599617773687808508,342.00
2025-06-12 19:11:22.961765,599617773687808508,1022.00
2025-06-12 19:11:22.961765,599617773687808508,1605.00
2025-06-12 19:11:22.961765,599617773687808508,1588.00
2025-06-12 19:11:22.961765,599617773687808508,706.00
2025-06-12 19:11:22.961765,599617773687808508,-330.00
2025-06-12 19:11:22.961765,599617773687808508,-446.00
2025-06-12 19:11:22.961765,599617773687808508,-89.00
2025-06-12 19:11:22.961765,599617773687808508,-138.00
2025-06-12 19:11:22.961765,599617773687808508,-262.00
2025-06-12 19:11:22.961765,599617773687808508,-165.00
2025-06-12 19:11:22.961765,599617773687808508,-138.00
2025-06-12 19:11:22.961765,599617773687808508,-179.00
2025-06-12 19:11:22.961765,599617773687808508,-150.00
2025-06-12 19:11:22.961765,599617773687808508,-126.00
2025-06-12 19:11:22.961765,599617773687808508,-136.00
2025-06-12 19:11:22.961765,599617773687808508,-116.00
2025-06-12 19:11:22.961765,599617773687808508,-92.00
2025-06-12 19:11:22.961765,599617773687808508,-87.00
2025-06-12 19:11:22.961765,599617773687808508,-77.00
2025-06-12 19:11:23.499024,599617774248597103,-51.00
2025-06-12 19:11:23.499024,599617774248597103,-31.00
2025-06-12 19:11:23.499024,599617774248597103,-19.00
2025-06-12 19:11:23.499024,599617774248597103,4.00
2025-06-12 19:11:23.499024,599617774248597103,38.00
2025-06-12 19:11:23.499024,599617774248597103,60.00
2025-06-12 19:11:23.499024,599617774248597103,89.00
2025-06-12 19:11:23.499024,599617774248597103,128.00
2025-06-12 19:11:23.499024,599617774248597103,157.00
2025-06-12 19:11:23.499024,599617774248597103,170.00
2025-06-12 19:11:23.499024,599617774248597103,177.00
2025-06-12 19:11:23.499024,599617774248597103,179.00
2025-06-12 19:11:23.499024,599617774248597103,165.00
2025-06-12 19:11:23.499024,599617774248597103,136.00
2025-06-12 19:11:23.499024,599617774248597103,97.00
2025-06-12 19:11:23.499024,599617774248597103,43.00
2025-06-12 19:11:23.499024,599617774248597103,-29.00
2025-06-12 19:11:23.499024,599617774248597103,-102.00
2025-06-12 19:11:23.499024,599617774248597103,-157.00
2025-06-12 19:11:23.499024,599617774248597103,-196.00
2025-06-12 19:11:23.499024,599617774248597103,-221.00
2025-06-12 19:11:23.499024,599617774248597103,-233.00
2025-06-12 19:11:23.499024,599617774248597103,-230.00
2025-06-12 19:11:23.499024,599617774248597103,-225.00
2025-06-12 19:11:23.499024,599617774248597103,-228.00
2025-06-12 19:11:23.499024,599617774248597103,-223.00
2025-06-12 19:11:23.499024,599617774248597103,-213.00
2025-06-12 19:11:23.499024,599617774248597103,-204.00
2025-06-12 19:11:23.499024,599617774248597103,-196.00
2025-06-12 19:11:23.499024,599617774248597103,-184.00
2025-06-12 19:11:23.499024,599617774248597103,-172.00
2025-06-12 19:11:23.499024,599617774248597103,-165.00
2025-06-12 19:11:23.499024,599617774248597103,-162.00
2025-06-12 19:11:23.499024,599617774248597103,-150.00
2025-06-12 19:11:23.499024,599617774248597103,-145.00
2025-06-12 19:11:23.499024,599617774248597103,-145.00
2025-06-12 19:11:23.499024,599617774248597103,-138.00
2025-06-12 19:11:23.499024,599617774248597103,-131.00
2025-06-12 19:11:23.499024,599617774248597103,-138.00
2025-06-12 19:11:23.499024,599617774248597103,-140.00
2025-06-12 19:11:23.499024,599617774248597103,-128.00
2025-06-12 19:11:23.499024,599617774248597103,-126.00
2025-06-12 19:11:23.499024,599617774248597103,-136.00
2025-06-12 19:11:23.499024,599617774248597103,-133.00
2025-06-12 19:11:23.499024,599617774248597103,-131.00
2025-06-12 19:11:23.499024,599617774248597103,-128.00
2025-06-12 19:11:23.499024,599617774248597103,-126.00
2025-06-12 19:11:23.499024,599617774248597103,-123.00
2025-06-12 19:11:23.499024,599617774248597103,-123.00
2025-06-12 19:11:23.499024,599617774248597103,-123.00
2025-06-12 19:11:23.499024,599617774248597103,-119.00
2025-06-12 19:11:23.499024,599617774248597103,-121.00
2025-06-12 19:11:23.499024,599617774248597103,-131.00
2025-06-12 19:11:23.499024,599617774248597103,-136.00
2025-06-12 19:11:23.499024,599617774248597103,-133.00
2025-06-12 19:11:23.499024,599617774248597103,-126.00
2025-06-12 19:11:23.499024,599617774248597103,-109.00
2025-06-12 19:11:23.499024,599617774248597103,-82.00
2025-06-12 19:11:23.499024,599617774248597103,-68.00
2025-06-12 19:11:23.499024,599617774248597103,-82.00
2025-06-12 19:11:23.499024,599617774248597103,-97.00
2025-06-12 19:11:23.499024,599617774248597103,-92.00
2025-06-12 19:11:23.499024,599617774248597103,-80.00
2025-06-12 19:11:23.499024,599617774248597103,-82.00
2025-06-12 19:11:23.499024,599617774248597103,-82.00
2025-06-12 19:11:23.499024,599617774248597103,-72.00
2025-06-12 19:11:23.499024,599617774248597103,-70.00
2025-06-12 19:11:23.499024,599617774248597103,-75.00
2025-06-12 19:11:23.499024,599617774248597103,-77.00
2025-06-12 19:11:23.499024,599617774248597103,-72.00
2025-06-12 19:11:23.499024,599617774248597103,-75.00
2025-06-12 19:11:23.499024,599617774248597103,-75.00
2025-06-12 19:11:23.499024,599617774248597103,-68.00
2025-06-12 19:11:24.038750,599617774809416214,-80.00
2025-06-12 19:11:24.038750,599617774809416214,-14.00
2025-06-12 19:11:24.038750,599617774809416214,381.00
2025-06-12 19:11:24.038750,599617774809416214,1073.00
2025-06-12 19:11:24.038750,599617774809416214,1620.00
2025-06-12 19:11:24.038750,599617774809416214,1544.00
2025-06-12 19:11:24.038750,599617774809416214,638.00
2025-06-12 19:11:24.038750,599617774809416214,-352.00
2025-06-12 19:11:24.038750,599617774809416214,-415.00
2025-06-12 19:11:24.038750,599617774809416214,-68.00
