Timestamp,Device Timestamp (ns),ECG Value (uV)
2025-06-12 18:59:59.352162,599617090089547337,-429.00
2025-06-12 18:59:59.352162,599617090089547337,-566.00
2025-06-12 18:59:59.352162,599617090089547337,-208.00
2025-06-12 18:59:59.352162,599617090089547337,-213.00
2025-06-12 18:59:59.352162,599617090089547337,-325.00
2025-06-12 18:59:59.352162,599617090089547337,-233.00
2025-06-12 18:59:59.352162,599617090089547337,-191.00
2025-06-12 18:59:59.352162,599617090089547337,-223.00
2025-06-12 18:59:59.352162,599617090089547337,-199.00
2025-06-12 18:59:59.352162,599617090089547337,-170.00
2025-06-12 18:59:59.352162,599617090089547337,-167.00
2025-06-12 18:59:59.352162,599617090089547337,-150.00
2025-06-12 18:59:59.352162,599617090089547337,-133.00
2025-06-12 18:59:59.352162,599617090089547337,-128.00
2025-06-12 18:59:59.352162,599617090089547337,-109.00
2025-06-12 18:59:59.352162,599617090089547337,-89.00
2025-06-12 18:59:59.352162,599617090089547337,-80.00
2025-06-12 18:59:59.352162,599617090089547337,-58.00
2025-06-12 18:59:59.352162,599617090089547337,-29.00
2025-06-12 18:59:59.352162,599617090089547337,-9.00
2025-06-12 18:59:59.352162,599617090089547337,9.00
2025-06-12 18:59:59.352162,599617090089547337,31.00
2025-06-12 18:59:59.352162,599617090089547337,58.00
2025-06-12 18:59:59.352162,599617090089547337,77.00
2025-06-12 18:59:59.352162,599617090089547337,82.00
2025-06-12 18:59:59.352162,599617090089547337,80.00
2025-06-12 18:59:59.352162,599617090089547337,65.00
2025-06-12 18:59:59.352162,599617090089547337,51.00
2025-06-12 18:59:59.352162,599617090089547337,31.00
2025-06-12 18:59:59.352162,599617090089547337,-2.00
2025-06-12 18:59:59.352162,599617090089547337,-46.00
2025-06-12 18:59:59.352162,599617090089547337,-92.00
2025-06-12 18:59:59.352162,599617090089547337,-138.00
2025-06-12 18:59:59.352162,599617090089547337,-177.00
2025-06-12 18:59:59.352162,599617090089547337,-206.00
2025-06-12 18:59:59.352162,599617090089547337,-223.00
2025-06-12 18:59:59.352162,599617090089547337,-225.00
2025-06-12 18:59:59.352162,599617090089547337,-223.00
2025-06-12 18:59:59.352162,599617090089547337,-221.00
2025-06-12 18:59:59.352162,599617090089547337,-206.00
2025-06-12 18:59:59.352162,599617090089547337,-194.00
2025-06-12 18:59:59.352162,599617090089547337,-191.00
2025-06-12 18:59:59.352162,599617090089547337,-182.00
2025-06-12 18:59:59.352162,599617090089547337,-174.00
2025-06-12 18:59:59.352162,599617090089547337,-170.00
2025-06-12 18:59:59.352162,599617090089547337,-165.00
2025-06-12 18:59:59.352162,599617090089547337,-160.00
2025-06-12 18:59:59.352162,599617090089547337,-155.00
2025-06-12 18:59:59.352162,599617090089547337,-157.00
2025-06-12 18:59:59.352162,599617090089547337,-160.00
2025-06-12 18:59:59.352162,599617090089547337,-155.00
2025-06-12 18:59:59.352162,599617090089547337,-155.00
2025-06-12 18:59:59.352162,599617090089547337,-157.00
2025-06-12 18:59:59.352162,599617090089547337,-153.00
2025-06-12 18:59:59.352162,599617090089547337,-145.00
2025-06-12 18:59:59.352162,599617090089547337,-155.00
2025-06-12 18:59:59.352162,599617090089547337,-167.00
2025-06-12 18:59:59.352162,599617090089547337,-167.00
2025-06-12 18:59:59.352162,599617090089547337,-170.00
2025-06-12 18:59:59.352162,599617090089547337,-172.00
2025-06-12 18:59:59.352162,599617090089547337,-170.00
2025-06-12 18:59:59.352162,599617090089547337,-170.00
2025-06-12 18:59:59.352162,599617090089547337,-157.00
2025-06-12 18:59:59.352162,599617090089547337,-128.00
2025-06-12 18:59:59.352162,599617090089547337,-114.00
2025-06-12 18:59:59.352162,599617090089547337,-126.00
2025-06-12 18:59:59.352162,599617090089547337,-138.00
2025-06-12 18:59:59.352162,599617090089547337,-138.00
2025-06-12 18:59:59.352162,599617090089547337,-133.00
2025-06-12 18:59:59.352162,599617090089547337,-128.00
2025-06-12 18:59:59.352162,599617090089547337,-126.00
2025-06-12 18:59:59.352162,599617090089547337,-128.00
2025-06-12 18:59:59.352162,599617090089547337,-121.00
2025-06-12 18:59:59.919312,599617090650310500,-116.00
2025-06-12 18:59:59.919312,599617090650310500,-119.00
2025-06-12 18:59:59.919312,599617090650310500,-116.00
2025-06-12 18:59:59.919312,599617090650310500,-114.00
2025-06-12 18:59:59.919312,599617090650310500,-119.00
2025-06-12 18:59:59.919312,599617090650310500,-138.00
2025-06-12 18:59:59.919312,599617090650310500,-85.00
2025-06-12 18:59:59.919312,599617090650310500,276.00
2025-06-12 18:59:59.919312,599617090650310500,954.00
2025-06-12 18:59:59.919312,599617090650310500,1527.00
2025-06-12 18:59:59.919312,599617090650310500,1513.00
2025-06-12 18:59:59.919312,599617090650310500,658.00
2025-06-12 18:59:59.919312,599617090650310500,-369.00
2025-06-12 18:59:59.919312,599617090650310500,-529.00
2025-06-12 18:59:59.919312,599617090650310500,-184.00
2025-06-12 18:59:59.919312,599617090650310500,-191.00
2025-06-12 18:59:59.919312,599617090650310500,-303.00
2025-06-12 18:59:59.919312,599617090650310500,-223.00
2025-06-12 18:59:59.919312,599617090650310500,-187.00
2025-06-12 18:59:59.919312,599617090650310500,-213.00
2025-06-12 18:59:59.919312,599617090650310500,-184.00
2025-06-12 18:59:59.919312,599617090650310500,-162.00
2025-06-12 18:59:59.919312,599617090650310500,-172.00
2025-06-12 18:59:59.919312,599617090650310500,-155.00
2025-06-12 18:59:59.919312,599617090650310500,-128.00
2025-06-12 18:59:59.919312,599617090650310500,-123.00
2025-06-12 18:59:59.919312,599617090650310500,-116.00
2025-06-12 18:59:59.919312,599617090650310500,-97.00
2025-06-12 18:59:59.919312,599617090650310500,-82.00
2025-06-12 18:59:59.919312,599617090650310500,-68.00
2025-06-12 18:59:59.919312,599617090650310500,-43.00
2025-06-12 18:59:59.919312,599617090650310500,-24.00
2025-06-12 18:59:59.919312,599617090650310500,-9.00
2025-06-12 18:59:59.919312,599617090650310500,19.00
2025-06-12 18:59:59.919312,599617090650310500,46.00
2025-06-12 18:59:59.919312,599617090650310500,55.00
2025-06-12 18:59:59.919312,599617090650310500,58.00
2025-06-12 18:59:59.919312,599617090650310500,58.00
2025-06-12 18:59:59.919312,599617090650310500,51.00
2025-06-12 18:59:59.919312,599617090650310500,31.00
2025-06-12 18:59:59.919312,599617090650310500,9.00
2025-06-12 18:59:59.919312,599617090650310500,-12.00
2025-06-12 18:59:59.919312,599617090650310500,-38.00
2025-06-12 18:59:59.919312,599617090650310500,-77.00
2025-06-12 18:59:59.919312,599617090650310500,-114.00
2025-06-12 18:59:59.919312,599617090650310500,-148.00
2025-06-12 18:59:59.919312,599617090650310500,-172.00
2025-06-12 18:59:59.919312,599617090650310500,-189.00
2025-06-12 18:59:59.919312,599617090650310500,-194.00
2025-06-12 18:59:59.919312,599617090650310500,-196.00
2025-06-12 18:59:59.919312,599617090650310500,-194.00
2025-06-12 18:59:59.919312,599617090650310500,-184.00
2025-06-12 18:59:59.919312,599617090650310500,-174.00
2025-06-12 18:59:59.919312,599617090650310500,-167.00
2025-06-12 18:59:59.919312,599617090650310500,-162.00
2025-06-12 18:59:59.919312,599617090650310500,-153.00
2025-06-12 18:59:59.919312,599617090650310500,-143.00
2025-06-12 18:59:59.919312,599617090650310500,-143.00
2025-06-12 18:59:59.919312,599617090650310500,-143.00
2025-06-12 18:59:59.919312,599617090650310500,-133.00
2025-06-12 18:59:59.919312,599617090650310500,-131.00
2025-06-12 18:59:59.919312,599617090650310500,-131.00
2025-06-12 18:59:59.919312,599617090650310500,-131.00
2025-06-12 18:59:59.919312,599617090650310500,-131.00
2025-06-12 18:59:59.919312,599617090650310500,-138.00
2025-06-12 18:59:59.919312,599617090650310500,-138.00
2025-06-12 18:59:59.919312,599617090650310500,-133.00
2025-06-12 18:59:59.919312,599617090650310500,-136.00
2025-06-12 18:59:59.919312,599617090650310500,-143.00
2025-06-12 18:59:59.919312,599617090650310500,-133.00
2025-06-12 18:59:59.919312,599617090650310500,-128.00
2025-06-12 18:59:59.919312,599617090650310500,-140.00
2025-06-12 18:59:59.919312,599617090650310500,-155.00
2025-06-12 19:00:00.461842,599617091211078751,-155.00
2025-06-12 19:00:00.461842,599617091211078751,-153.00
2025-06-12 19:00:00.461842,599617091211078751,-148.00
2025-06-12 19:00:00.461842,599617091211078751,-131.00
2025-06-12 19:00:00.461842,599617091211078751,-104.00
2025-06-12 19:00:00.461842,599617091211078751,-89.00
2025-06-12 19:00:00.461842,599617091211078751,-99.00
2025-06-12 19:00:00.461842,599617091211078751,-114.00
2025-06-12 19:00:00.461842,599617091211078751,-116.00
2025-06-12 19:00:00.461842,599617091211078751,-111.00
2025-06-12 19:00:00.461842,599617091211078751,-104.00
2025-06-12 19:00:00.461842,599617091211078751,-104.00
2025-06-12 19:00:00.461842,599617091211078751,-104.00
2025-06-12 19:00:00.461842,599617091211078751,-102.00
2025-06-12 19:00:00.461842,599617091211078751,-104.00
2025-06-12 19:00:00.461842,599617091211078751,-102.00
2025-06-12 19:00:00.461842,599617091211078751,-97.00
2025-06-12 19:00:00.461842,599617091211078751,-92.00
2025-06-12 19:00:00.461842,599617091211078751,-97.00
2025-06-12 19:00:00.461842,599617091211078751,-114.00
2025-06-12 19:00:00.461842,599617091211078751,-102.00
2025-06-12 19:00:00.461842,599617091211078751,148.00
2025-06-12 19:00:00.461842,599617091211078751,745.00
2025-06-12 19:00:00.461842,599617091211078751,1377.00
2025-06-12 19:00:00.461842,599617091211078751,1571.00
2025-06-12 19:00:00.461842,599617091211078751,961.00
2025-06-12 19:00:00.461842,599617091211078751,-131.00
2025-06-12 19:00:00.461842,599617091211078751,-570.00
2025-06-12 19:00:00.461842,599617091211078751,-242.00
2025-06-12 19:00:00.461842,599617091211078751,-128.00
2025-06-12 19:00:00.461842,599617091211078751,-279.00
2025-06-12 19:00:00.461842,599617091211078751,-233.00
2025-06-12 19:00:00.461842,599617091211078751,-160.00
2025-06-12 19:00:00.461842,599617091211078751,-194.00
2025-06-12 19:00:00.461842,599617091211078751,-191.00
2025-06-12 19:00:00.461842,599617091211078751,-153.00
2025-06-12 19:00:00.461842,599617091211078751,-150.00
2025-06-12 19:00:00.461842,599617091211078751,-145.00
2025-06-12 19:00:00.461842,599617091211078751,-123.00
2025-06-12 19:00:00.461842,599617091211078751,-106.00
2025-06-12 19:00:00.461842,599617091211078751,-97.00
2025-06-12 19:00:00.461842,599617091211078751,-82.00
2025-06-12 19:00:00.461842,599617091211078751,-68.00
2025-06-12 19:00:00.461842,599617091211078751,-51.00
2025-06-12 19:00:00.461842,599617091211078751,-34.00
2025-06-12 19:00:00.461842,599617091211078751,-17.00
2025-06-12 19:00:00.461842,599617091211078751,7.00
2025-06-12 19:00:00.461842,599617091211078751,31.00
2025-06-12 19:00:00.461842,599617091211078751,58.00
2025-06-12 19:00:00.461842,599617091211078751,80.00
2025-06-12 19:00:00.461842,599617091211078751,87.00
2025-06-12 19:00:00.461842,599617091211078751,82.00
2025-06-12 19:00:00.461842,599617091211078751,72.00
2025-06-12 19:00:00.461842,599617091211078751,63.00
2025-06-12 19:00:00.461842,599617091211078751,48.00
2025-06-12 19:00:00.461842,599617091211078751,21.00
2025-06-12 19:00:00.461842,599617091211078751,-12.00
2025-06-12 19:00:00.461842,599617091211078751,-48.00
2025-06-12 19:00:00.461842,599617091211078751,-87.00
2025-06-12 19:00:00.461842,599617091211078751,-119.00
2025-06-12 19:00:00.461842,599617091211078751,-145.00
2025-06-12 19:00:00.461842,599617091211078751,-170.00
2025-06-12 19:00:00.461842,599617091211078751,-187.00
2025-06-12 19:00:00.461842,599617091211078751,-187.00
2025-06-12 19:00:00.461842,599617091211078751,-177.00
2025-06-12 19:00:00.461842,599617091211078751,-170.00
2025-06-12 19:00:00.461842,599617091211078751,-165.00
2025-06-12 19:00:00.461842,599617091211078751,-155.00
2025-06-12 19:00:00.461842,599617091211078751,-145.00
2025-06-12 19:00:00.461842,599617091211078751,-140.00
2025-06-12 19:00:00.461842,599617091211078751,-133.00
2025-06-12 19:00:00.461842,599617091211078751,-128.00
2025-06-12 19:00:00.461842,599617091211078751,-126.00
2025-06-12 19:00:01.031233,599617091771836828,-116.00
2025-06-12 19:00:01.031233,599617091771836828,-111.00
2025-06-12 19:00:01.031233,599617091771836828,-116.00
2025-06-12 19:00:01.031233,599617091771836828,-116.00
2025-06-12 19:00:01.031233,599617091771836828,-106.00
2025-06-12 19:00:01.031233,599617091771836828,-106.00
2025-06-12 19:00:01.031233,599617091771836828,-116.00
2025-06-12 19:00:01.031233,599617091771836828,-121.00
2025-06-12 19:00:01.031233,599617091771836828,-119.00
2025-06-12 19:00:01.031233,599617091771836828,-114.00
2025-06-12 19:00:01.031233,599617091771836828,-114.00
2025-06-12 19:00:01.031233,599617091771836828,-114.00
2025-06-12 19:00:01.031233,599617091771836828,-106.00
2025-06-12 19:00:01.031233,599617091771836828,-106.00
2025-06-12 19:00:01.031233,599617091771836828,-114.00
2025-06-12 19:00:01.031233,599617091771836828,-116.00
2025-06-12 19:00:01.031233,599617091771836828,-121.00
2025-06-12 19:00:01.031233,599617091771836828,-128.00
2025-06-12 19:00:01.031233,599617091771836828,-128.00
2025-06-12 19:00:01.031233,599617091771836828,-128.00
2025-06-12 19:00:01.031233,599617091771836828,-119.00
2025-06-12 19:00:01.031233,599617091771836828,-94.00
2025-06-12 19:00:01.031233,599617091771836828,-72.00
2025-06-12 19:00:01.031233,599617091771836828,-77.00
2025-06-12 19:00:01.031233,599617091771836828,-97.00
2025-06-12 19:00:01.031233,599617091771836828,-104.00
2025-06-12 19:00:01.031233,599617091771836828,-92.00
2025-06-12 19:00:01.031233,599617091771836828,-87.00
2025-06-12 19:00:01.031233,599617091771836828,-89.00
2025-06-12 19:00:01.031233,599617091771836828,-85.00
2025-06-12 19:00:01.031233,599617091771836828,-80.00
2025-06-12 19:00:01.031233,599617091771836828,-85.00
2025-06-12 19:00:01.031233,599617091771836828,-87.00
2025-06-12 19:00:01.031233,599617091771836828,-89.00
2025-06-12 19:00:01.031233,599617091771836828,-87.00
2025-06-12 19:00:01.031233,599617091771836828,-80.00
2025-06-12 19:00:01.031233,599617091771836828,-87.00
2025-06-12 19:00:01.031233,599617091771836828,-106.00
2025-06-12 19:00:01.031233,599617091771836828,19.00
2025-06-12 19:00:01.031233,599617091771836828,497.00
2025-06-12 19:00:01.031233,599617091771836828,1178.00
2025-06-12 19:00:01.031233,599617091771836828,1608.00
2025-06-12 19:00:01.031233,599617091771836828,1338.00
2025-06-12 19:00:01.031233,599617091771836828,308.00
2025-06-12 19:00:01.031233,599617091771836828,-524.00
2025-06-12 19:00:01.031233,599617091771836828,-405.00
2025-06-12 19:00:01.031233,599617091771836828,-116.00
2025-06-12 19:00:01.031233,599617091771836828,-228.00
2025-06-12 19:00:01.031233,599617091771836828,-276.00
2025-06-12 19:00:01.031233,599617091771836828,-177.00
2025-06-12 19:00:01.031233,599617091771836828,-174.00
2025-06-12 19:00:01.031233,599617091771836828,-194.00
2025-06-12 19:00:01.031233,599617091771836828,-160.00
2025-06-12 19:00:01.031233,599617091771836828,-143.00
2025-06-12 19:00:01.031233,599617091771836828,-140.00
2025-06-12 19:00:01.031233,599617091771836828,-128.00
2025-06-12 19:00:01.031233,599617091771836828,-121.00
2025-06-12 19:00:01.031233,599617091771836828,-106.00
2025-06-12 19:00:01.031233,599617091771836828,-89.00
2025-06-12 19:00:01.031233,599617091771836828,-77.00
2025-06-12 19:00:01.031233,599617091771836828,-58.00
2025-06-12 19:00:01.031233,599617091771836828,-36.00
2025-06-12 19:00:01.031233,599617091771836828,-12.00
2025-06-12 19:00:01.031233,599617091771836828,9.00
2025-06-12 19:00:01.031233,599617091771836828,21.00
2025-06-12 19:00:01.031233,599617091771836828,43.00
2025-06-12 19:00:01.031233,599617091771836828,80.00
2025-06-12 19:00:01.031233,599617091771836828,94.00
2025-06-12 19:00:01.031233,599617091771836828,87.00
2025-06-12 19:00:01.031233,599617091771836828,77.00
2025-06-12 19:00:01.031233,599617091771836828,68.00
2025-06-12 19:00:01.031233,599617091771836828,51.00
2025-06-12 19:00:01.031233,599617091771836828,26.00
2025-06-12 19:00:01.632980,599617092332625425,2.00
2025-06-12 19:00:01.632980,599617092332625425,-31.00
2025-06-12 19:00:01.632980,599617092332625425,-82.00
2025-06-12 19:00:01.632980,599617092332625425,-131.00
2025-06-12 19:00:01.632980,599617092332625425,-167.00
2025-06-12 19:00:01.632980,599617092332625425,-191.00
2025-06-12 19:00:01.632980,599617092332625425,-204.00
2025-06-12 19:00:01.632980,599617092332625425,-218.00
2025-06-12 19:00:01.632980,599617092332625425,-221.00
2025-06-12 19:00:01.632980,599617092332625425,-206.00
2025-06-12 19:00:01.632980,599617092332625425,-196.00
2025-06-12 19:00:01.632980,599617092332625425,-196.00
2025-06-12 19:00:01.632980,599617092332625425,-189.00
2025-06-12 19:00:01.632980,599617092332625425,-174.00
2025-06-12 19:00:01.632980,599617092332625425,-167.00
2025-06-12 19:00:01.632980,599617092332625425,-157.00
2025-06-12 19:00:01.632980,599617092332625425,-150.00
2025-06-12 19:00:01.632980,599617092332625425,-153.00
2025-06-12 19:00:01.632980,599617092332625425,-155.00
2025-06-12 19:00:01.632980,599617092332625425,-153.00
2025-06-12 19:00:01.632980,599617092332625425,-150.00
2025-06-12 19:00:01.632980,599617092332625425,-150.00
2025-06-12 19:00:01.632980,599617092332625425,-148.00
2025-06-12 19:00:01.632980,599617092332625425,-143.00
2025-06-12 19:00:01.632980,599617092332625425,-140.00
2025-06-12 19:00:01.632980,599617092332625425,-145.00
2025-06-12 19:00:01.632980,599617092332625425,-157.00
2025-06-12 19:00:01.632980,599617092332625425,-157.00
2025-06-12 19:00:01.632980,599617092332625425,-143.00
2025-06-12 19:00:01.632980,599617092332625425,-145.00
2025-06-12 19:00:01.632980,599617092332625425,-157.00
2025-06-12 19:00:01.632980,599617092332625425,-160.00
2025-06-12 19:00:01.632980,599617092332625425,-160.00
2025-06-12 19:00:01.632980,599617092332625425,-162.00
2025-06-12 19:00:01.632980,599617092332625425,-157.00
2025-06-12 19:00:01.632980,599617092332625425,-155.00
2025-06-12 19:00:01.632980,599617092332625425,-155.00
2025-06-12 19:00:01.632980,599617092332625425,-138.00
2025-06-12 19:00:01.632980,599617092332625425,-114.00
2025-06-12 19:00:01.632980,599617092332625425,-109.00
2025-06-12 19:00:01.632980,599617092332625425,-123.00
2025-06-12 19:00:01.632980,599617092332625425,-136.00
2025-06-12 19:00:01.632980,599617092332625425,-131.00
2025-06-12 19:00:01.632980,599617092332625425,-119.00
2025-06-12 19:00:01.632980,599617092332625425,-123.00
2025-06-12 19:00:01.632980,599617092332625425,-126.00
2025-06-12 19:00:01.632980,599617092332625425,-121.00
2025-06-12 19:00:01.632980,599617092332625425,-123.00
2025-06-12 19:00:01.632980,599617092332625425,-119.00
2025-06-12 19:00:01.632980,599617092332625425,-111.00
2025-06-12 19:00:01.632980,599617092332625425,-114.00
2025-06-12 19:00:01.632980,599617092332625425,-114.00
2025-06-12 19:00:01.632980,599617092332625425,-109.00
2025-06-12 19:00:01.632980,599617092332625425,-116.00
2025-06-12 19:00:01.632980,599617092332625425,-53.00
2025-06-12 19:00:01.632980,599617092332625425,323.00
2025-06-12 19:00:01.632980,599617092332625425,988.00
2025-06-12 19:00:01.632980,599617092332625425,1508.00
2025-06-12 19:00:01.632980,599617092332625425,1423.00
2025-06-12 19:00:01.632980,599617092332625425,541.00
2025-06-12 19:00:01.632980,599617092332625425,-437.00
2025-06-12 19:00:01.632980,599617092332625425,-529.00
2025-06-12 19:00:01.632980,599617092332625425,-172.00
2025-06-12 19:00:01.632980,599617092332625425,-196.00
2025-06-12 19:00:01.632980,599617092332625425,-303.00
2025-06-12 19:00:01.632980,599617092332625425,-213.00
2025-06-12 19:00:01.632980,599617092332625425,-182.00
2025-06-12 19:00:01.632980,599617092332625425,-211.00
2025-06-12 19:00:01.632980,599617092332625425,-182.00
2025-06-12 19:00:01.632980,599617092332625425,-150.00
2025-06-12 19:00:01.632980,599617092332625425,-148.00
2025-06-12 19:00:01.632980,599617092332625425,-140.00
2025-06-12 19:00:01.632980,599617092332625425,-126.00
2025-06-12 19:00:02.172229,599617092893393674,-111.00
2025-06-12 19:00:02.172229,599617092893393674,-102.00
2025-06-12 19:00:02.172229,599617092893393674,-85.00
2025-06-12 19:00:02.172229,599617092893393674,-65.00
2025-06-12 19:00:02.172229,599617092893393674,-46.00
2025-06-12 19:00:02.172229,599617092893393674,-17.00
2025-06-12 19:00:02.172229,599617092893393674,7.00
2025-06-12 19:00:02.172229,599617092893393674,26.00
2025-06-12 19:00:02.172229,599617092893393674,48.00
2025-06-12 19:00:02.172229,599617092893393674,75.00
2025-06-12 19:00:02.172229,599617092893393674,92.00
2025-06-12 19:00:02.172229,599617092893393674,102.00
2025-06-12 19:00:02.172229,599617092893393674,97.00
2025-06-12 19:00:02.172229,599617092893393674,80.00
2025-06-12 19:00:02.172229,599617092893393674,63.00
2025-06-12 19:00:02.172229,599617092893393674,51.00
2025-06-12 19:00:02.172229,599617092893393674,21.00
2025-06-12 19:00:02.172229,599617092893393674,-26.00
2025-06-12 19:00:02.172229,599617092893393674,-75.00
2025-06-12 19:00:02.172229,599617092893393674,-119.00
2025-06-12 19:00:02.172229,599617092893393674,-165.00
2025-06-12 19:00:02.172229,599617092893393674,-199.00
2025-06-12 19:00:02.172229,599617092893393674,-213.00
2025-06-12 19:00:02.172229,599617092893393674,-221.00
2025-06-12 19:00:02.172229,599617092893393674,-223.00
2025-06-12 19:00:02.172229,599617092893393674,-218.00
2025-06-12 19:00:02.172229,599617092893393674,-206.00
2025-06-12 19:00:02.172229,599617092893393674,-196.00
2025-06-12 19:00:02.172229,599617092893393674,-191.00
2025-06-12 19:00:02.172229,599617092893393674,-187.00
2025-06-12 19:00:02.172229,599617092893393674,-177.00
2025-06-12 19:00:02.172229,599617092893393674,-162.00
2025-06-12 19:00:02.172229,599617092893393674,-153.00
2025-06-12 19:00:02.172229,599617092893393674,-150.00
2025-06-12 19:00:02.172229,599617092893393674,-143.00
2025-06-12 19:00:02.172229,599617092893393674,-140.00
2025-06-12 19:00:02.172229,599617092893393674,-145.00
2025-06-12 19:00:02.172229,599617092893393674,-148.00
2025-06-12 19:00:02.172229,599617092893393674,-145.00
2025-06-12 19:00:02.172229,599617092893393674,-145.00
2025-06-12 19:00:02.172229,599617092893393674,-143.00
2025-06-12 19:00:02.172229,599617092893393674,-140.00
2025-06-12 19:00:02.172229,599617092893393674,-150.00
2025-06-12 19:00:02.172229,599617092893393674,-150.00
2025-06-12 19:00:02.172229,599617092893393674,-138.00
2025-06-12 19:00:02.172229,599617092893393674,-136.00
2025-06-12 19:00:02.172229,599617092893393674,-140.00
2025-06-12 19:00:02.172229,599617092893393674,-145.00
2025-06-12 19:00:02.172229,599617092893393674,-150.00
2025-06-12 19:00:02.172229,599617092893393674,-153.00
2025-06-12 19:00:02.172229,599617092893393674,-153.00
2025-06-12 19:00:02.172229,599617092893393674,-155.00
2025-06-12 19:00:02.172229,599617092893393674,-153.00
2025-06-12 19:00:02.172229,599617092893393674,-133.00
2025-06-12 19:00:02.172229,599617092893393674,-109.00
2025-06-12 19:00:02.172229,599617092893393674,-106.00
2025-06-12 19:00:02.172229,599617092893393674,-121.00
2025-06-12 19:00:02.172229,599617092893393674,-136.00
2025-06-12 19:00:02.172229,599617092893393674,-128.00
2025-06-12 19:00:02.172229,599617092893393674,-116.00
2025-06-12 19:00:02.172229,599617092893393674,-121.00
2025-06-12 19:00:02.172229,599617092893393674,-126.00
2025-06-12 19:00:02.172229,599617092893393674,-114.00
2025-06-12 19:00:02.172229,599617092893393674,-114.00
2025-06-12 19:00:02.172229,599617092893393674,-121.00
2025-06-12 19:00:02.172229,599617092893393674,-119.00
2025-06-12 19:00:02.172229,599617092893393674,-119.00
2025-06-12 19:00:02.172229,599617092893393674,-114.00
2025-06-12 19:00:02.172229,599617092893393674,-109.00
2025-06-12 19:00:02.172229,599617092893393674,-128.00
2025-06-12 19:00:02.172229,599617092893393674,-48.00
2025-06-12 19:00:02.172229,599617092893393674,386.00
2025-06-12 19:00:02.172229,599617092893393674,1085.00
2025-06-12 19:00:02.712646,599617093454172097,1583.00
2025-06-12 19:00:02.712646,599617093454172097,1408.00
2025-06-12 19:00:02.712646,599617093454172097,429.00
2025-06-12 19:00:02.712646,599617093454172097,-493.00
2025-06-12 19:00:02.712646,599617093454172097,-476.00
2025-06-12 19:00:02.712646,599617093454172097,-155.00
2025-06-12 19:00:02.712646,599617093454172097,-235.00
2025-06-12 19:00:02.712646,599617093454172097,-310.00
2025-06-12 19:00:02.712646,599617093454172097,-206.00
2025-06-12 19:00:02.712646,599617093454172097,-196.00
2025-06-12 19:00:02.712646,599617093454172097,-228.00
2025-06-12 19:00:02.712646,599617093454172097,-189.00
2025-06-12 19:00:02.712646,599617093454172097,-167.00
2025-06-12 19:00:02.712646,599617093454172097,-174.00
2025-06-12 19:00:02.712646,599617093454172097,-162.00
2025-06-12 19:00:02.712646,599617093454172097,-140.00
2025-06-12 19:00:02.712646,599617093454172097,-126.00
2025-06-12 19:00:02.712646,599617093454172097,-119.00
2025-06-12 19:00:02.712646,599617093454172097,-106.00
2025-06-12 19:00:02.712646,599617093454172097,-80.00
2025-06-12 19:00:02.712646,599617093454172097,-58.00
2025-06-12 19:00:02.712646,599617093454172097,-48.00
2025-06-12 19:00:02.712646,599617093454172097,-29.00
2025-06-12 19:00:02.712646,599617093454172097,-2.00
2025-06-12 19:00:02.712646,599617093454172097,19.00
2025-06-12 19:00:02.712646,599617093454172097,36.00
2025-06-12 19:00:02.712646,599617093454172097,53.00
2025-06-12 19:00:02.712646,599617093454172097,63.00
2025-06-12 19:00:02.712646,599617093454172097,55.00
2025-06-12 19:00:02.712646,599617093454172097,41.00
2025-06-12 19:00:02.712646,599617093454172097,19.00
2025-06-12 19:00:02.712646,599617093454172097,0.00
2025-06-12 19:00:02.712646,599617093454172097,-24.00
2025-06-12 19:00:02.712646,599617093454172097,-60.00
2025-06-12 19:00:02.712646,599617093454172097,-109.00
2025-06-12 19:00:02.712646,599617093454172097,-155.00
2025-06-12 19:00:02.712646,599617093454172097,-184.00
2025-06-12 19:00:02.712646,599617093454172097,-204.00
2025-06-12 19:00:02.712646,599617093454172097,-218.00
2025-06-12 19:00:02.712646,599617093454172097,-230.00
2025-06-12 19:00:02.712646,599617093454172097,-230.00
2025-06-12 19:00:02.712646,599617093454172097,-218.00
2025-06-12 19:00:02.712646,599617093454172097,-211.00
2025-06-12 19:00:02.712646,599617093454172097,-213.00
2025-06-12 19:00:02.712646,599617093454172097,-204.00
2025-06-12 19:00:02.712646,599617093454172097,-191.00
2025-06-12 19:00:02.712646,599617093454172097,-184.00
2025-06-12 19:00:02.712646,599617093454172097,-177.00
2025-06-12 19:00:02.712646,599617093454172097,-174.00
2025-06-12 19:00:02.712646,599617093454172097,-170.00
2025-06-12 19:00:02.712646,599617093454172097,-165.00
2025-06-12 19:00:02.712646,599617093454172097,-160.00
2025-06-12 19:00:02.712646,599617093454172097,-157.00
2025-06-12 19:00:02.712646,599617093454172097,-157.00
2025-06-12 19:00:02.712646,599617093454172097,-155.00
2025-06-12 19:00:02.712646,599617093454172097,-153.00
2025-06-12 19:00:02.712646,599617093454172097,-162.00
2025-06-12 19:00:02.712646,599617093454172097,-162.00
2025-06-12 19:00:02.712646,599617093454172097,-155.00
2025-06-12 19:00:02.712646,599617093454172097,-153.00
2025-06-12 19:00:02.712646,599617093454172097,-165.00
2025-06-12 19:00:02.712646,599617093454172097,-167.00
2025-06-12 19:00:02.712646,599617093454172097,-148.00
2025-06-12 19:00:02.712646,599617093454172097,-143.00
2025-06-12 19:00:02.712646,599617093454172097,-157.00
2025-06-12 19:00:02.712646,599617093454172097,-155.00
2025-06-12 19:00:02.712646,599617093454172097,-148.00
2025-06-12 19:00:02.712646,599617093454172097,-148.00
2025-06-12 19:00:02.712646,599617093454172097,-155.00
2025-06-12 19:00:02.712646,599617093454172097,-160.00
2025-06-12 19:00:02.712646,599617093454172097,-162.00
2025-06-12 19:00:02.712646,599617093454172097,-157.00
2025-06-12 19:00:02.712646,599617093454172097,-157.00
2025-06-12 19:00:03.280128,599617094014930174,-148.00
2025-06-12 19:00:03.280128,599617094014930174,-119.00
2025-06-12 19:00:03.280128,599617094014930174,-97.00
2025-06-12 19:00:03.280128,599617094014930174,-106.00
2025-06-12 19:00:03.280128,599617094014930174,-121.00
2025-06-12 19:00:03.280128,599617094014930174,-121.00
2025-06-12 19:00:03.280128,599617094014930174,-114.00
2025-06-12 19:00:03.280128,599617094014930174,-109.00
2025-06-12 19:00:03.280128,599617094014930174,-109.00
2025-06-12 19:00:03.280128,599617094014930174,-111.00
2025-06-12 19:00:03.280128,599617094014930174,-109.00
2025-06-12 19:00:03.280128,599617094014930174,-104.00
2025-06-12 19:00:03.280128,599617094014930174,-104.00
2025-06-12 19:00:03.280128,599617094014930174,-106.00
2025-06-12 19:00:03.280128,599617094014930174,-99.00
2025-06-12 19:00:03.280128,599617094014930174,-97.00
2025-06-12 19:00:03.280128,599617094014930174,-114.00
2025-06-12 19:00:03.280128,599617094014930174,-104.00
2025-06-12 19:00:03.280128,599617094014930174,150.00
2025-06-12 19:00:03.280128,599617094014930174,745.00
2025-06-12 19:00:03.280128,599617094014930174,1367.00
2025-06-12 19:00:03.280128,599617094014930174,1564.00
2025-06-12 19:00:03.280128,599617094014930174,957.00
2025-06-12 19:00:03.280128,599617094014930174,-133.00
2025-06-12 19:00:03.280128,599617094014930174,-578.00
2025-06-12 19:00:03.280128,599617094014930174,-250.00
2025-06-12 19:00:03.280128,599617094014930174,-131.00
2025-06-12 19:00:03.280128,599617094014930174,-284.00
2025-06-12 19:00:03.280128,599617094014930174,-245.00
2025-06-12 19:00:03.280128,599617094014930174,-172.00
2025-06-12 19:00:03.280128,599617094014930174,-201.00
2025-06-12 19:00:03.280128,599617094014930174,-191.00
2025-06-12 19:00:03.280128,599617094014930174,-153.00
2025-06-12 19:00:03.280128,599617094014930174,-157.00
2025-06-12 19:00:03.280128,599617094014930174,-155.00
2025-06-12 19:00:03.280128,599617094014930174,-128.00
2025-06-12 19:00:03.280128,599617094014930174,-114.00
2025-06-12 19:00:03.280128,599617094014930174,-109.00
2025-06-12 19:00:03.280128,599617094014930174,-92.00
2025-06-12 19:00:03.280128,599617094014930174,-80.00
2025-06-12 19:00:03.280128,599617094014930174,-68.00
2025-06-12 19:00:03.280128,599617094014930174,-41.00
2025-06-12 19:00:03.280128,599617094014930174,-21.00
2025-06-12 19:00:03.280128,599617094014930174,-7.00
2025-06-12 19:00:03.280128,599617094014930174,17.00
2025-06-12 19:00:03.280128,599617094014930174,43.00
2025-06-12 19:00:03.280128,599617094014930174,63.00
2025-06-12 19:00:03.280128,599617094014930174,77.00
2025-06-12 19:00:03.280128,599617094014930174,82.00
2025-06-12 19:00:03.280128,599617094014930174,70.00
2025-06-12 19:00:03.280128,599617094014930174,55.00
2025-06-12 19:00:03.280128,599617094014930174,36.00
2025-06-12 19:00:03.280128,599617094014930174,12.00
2025-06-12 19:00:03.280128,599617094014930174,-26.00
2025-06-12 19:00:03.280128,599617094014930174,-70.00
2025-06-12 19:00:03.280128,599617094014930174,-111.00
2025-06-12 19:00:03.280128,599617094014930174,-145.00
2025-06-12 19:00:03.280128,599617094014930174,-179.00
2025-06-12 19:00:03.280128,599617094014930174,-206.00
2025-06-12 19:00:03.280128,599617094014930174,-216.00
2025-06-12 19:00:03.280128,599617094014930174,-213.00
2025-06-12 19:00:03.280128,599617094014930174,-208.00
2025-06-12 19:00:03.280128,599617094014930174,-208.00
2025-06-12 19:00:03.280128,599617094014930174,-204.00
2025-06-12 19:00:03.280128,599617094014930174,-196.00
2025-06-12 19:00:03.280128,599617094014930174,-191.00
2025-06-12 19:00:03.280128,599617094014930174,-182.00
2025-06-12 19:00:03.280128,599617094014930174,-172.00
2025-06-12 19:00:03.280128,599617094014930174,-165.00
2025-06-12 19:00:03.280128,599617094014930174,-160.00
2025-06-12 19:00:03.280128,599617094014930174,-153.00
2025-06-12 19:00:03.280128,599617094014930174,-148.00
2025-06-12 19:00:03.280128,599617094014930174,-145.00
2025-06-12 19:00:03.850314,599617094575713681,-140.00
2025-06-12 19:00:03.850314,599617094575713681,-138.00
2025-06-12 19:00:03.850314,599617094575713681,-136.00
2025-06-12 19:00:03.850314,599617094575713681,-136.00
2025-06-12 19:00:03.850314,599617094575713681,-140.00
2025-06-12 19:00:03.850314,599617094575713681,-145.00
2025-06-12 19:00:03.850314,599617094575713681,-145.00
2025-06-12 19:00:03.850314,599617094575713681,-136.00
2025-06-12 19:00:03.850314,599617094575713681,-133.00
2025-06-12 19:00:03.850314,599617094575713681,-138.00
2025-06-12 19:00:03.850314,599617094575713681,-143.00
2025-06-12 19:00:03.850314,599617094575713681,-138.00
2025-06-12 19:00:03.850314,599617094575713681,-128.00
2025-06-12 19:00:03.850314,599617094575713681,-126.00
2025-06-12 19:00:03.850314,599617094575713681,-128.00
2025-06-12 19:00:03.850314,599617094575713681,-131.00
2025-06-12 19:00:03.850314,599617094575713681,-128.00
2025-06-12 19:00:03.850314,599617094575713681,-123.00
2025-06-12 19:00:03.850314,599617094575713681,-121.00
2025-06-12 19:00:03.850314,599617094575713681,-126.00
2025-06-12 19:00:03.850314,599617094575713681,-136.00
2025-06-12 19:00:03.850314,599617094575713681,-138.00
2025-06-12 19:00:03.850314,599617094575713681,-140.00
2025-06-12 19:00:03.850314,599617094575713681,-136.00
2025-06-12 19:00:03.850314,599617094575713681,-128.00
2025-06-12 19:00:03.850314,599617094575713681,-111.00
2025-06-12 19:00:03.850314,599617094575713681,-87.00
2025-06-12 19:00:03.850314,599617094575713681,-77.00
2025-06-12 19:00:03.850314,599617094575713681,-94.00
2025-06-12 19:00:03.850314,599617094575713681,-109.00
2025-06-12 19:00:03.850314,599617094575713681,-106.00
2025-06-12 19:00:03.850314,599617094575713681,-99.00
2025-06-12 19:00:03.850314,599617094575713681,-99.00
2025-06-12 19:00:03.850314,599617094575713681,-102.00
2025-06-12 19:00:03.850314,599617094575713681,-97.00
2025-06-12 19:00:03.850314,599617094575713681,-87.00
2025-06-12 19:00:03.850314,599617094575713681,-89.00
2025-06-12 19:00:03.850314,599617094575713681,-102.00
2025-06-12 19:00:03.850314,599617094575713681,-97.00
2025-06-12 19:00:03.850314,599617094575713681,-87.00
2025-06-12 19:00:03.850314,599617094575713681,-94.00
2025-06-12 19:00:03.850314,599617094575713681,-114.00
2025-06-12 19:00:03.850314,599617094575713681,-72.00
2025-06-12 19:00:03.850314,599617094575713681,257.00
2025-06-12 19:00:03.850314,599617094575713681,915.00
2025-06-12 19:00:03.850314,599617094575713681,1525.00
2025-06-12 19:00:03.850314,599617094575713681,1595.00
2025-06-12 19:00:03.850314,599617094575713681,806.00
2025-06-12 19:00:03.850314,599617094575713681,-284.00
2025-06-12 19:00:03.850314,599617094575713681,-544.00
2025-06-12 19:00:03.850314,599617094575713681,-182.00
2025-06-12 19:00:03.850314,599617094575713681,-155.00
2025-06-12 19:00:03.850314,599617094575713681,-293.00
2025-06-12 19:00:03.850314,599617094575713681,-218.00
2025-06-12 19:00:03.850314,599617094575713681,-170.00
2025-06-12 19:00:03.850314,599617094575713681,-204.00
2025-06-12 19:00:03.850314,599617094575713681,-177.00
2025-06-12 19:00:03.850314,599617094575713681,-140.00
2025-06-12 19:00:03.850314,599617094575713681,-145.00
2025-06-12 19:00:03.850314,599617094575713681,-140.00
2025-06-12 19:00:03.850314,599617094575713681,-116.00
2025-06-12 19:00:03.850314,599617094575713681,-97.00
2025-06-12 19:00:03.850314,599617094575713681,-89.00
2025-06-12 19:00:03.850314,599617094575713681,-77.00
2025-06-12 19:00:03.850314,599617094575713681,-55.00
2025-06-12 19:00:03.850314,599617094575713681,-34.00
2025-06-12 19:00:03.850314,599617094575713681,-17.00
2025-06-12 19:00:03.850314,599617094575713681,2.00
2025-06-12 19:00:03.850314,599617094575713681,29.00
2025-06-12 19:00:03.850314,599617094575713681,53.00
2025-06-12 19:00:03.850314,599617094575713681,77.00
2025-06-12 19:00:03.850314,599617094575713681,102.00
2025-06-12 19:00:03.850314,599617094575713681,116.00
2025-06-12 19:00:04.390556,599617095136476846,111.00
2025-06-12 19:00:04.390556,599617095136476846,104.00
2025-06-12 19:00:04.390556,599617095136476846,92.00
2025-06-12 19:00:04.390556,599617095136476846,68.00
2025-06-12 19:00:04.390556,599617095136476846,43.00
2025-06-12 19:00:04.390556,599617095136476846,2.00
2025-06-12 19:00:04.390556,599617095136476846,-51.00
2025-06-12 19:00:04.390556,599617095136476846,-97.00
2025-06-12 19:00:04.390556,599617095136476846,-136.00
2025-06-12 19:00:04.390556,599617095136476846,-172.00
2025-06-12 19:00:04.390556,599617095136476846,-194.00
2025-06-12 19:00:04.390556,599617095136476846,-201.00
2025-06-12 19:00:04.390556,599617095136476846,-206.00
2025-06-12 19:00:04.390556,599617095136476846,-211.00
2025-06-12 19:00:04.390556,599617095136476846,-204.00
2025-06-12 19:00:04.390556,599617095136476846,-189.00
2025-06-12 19:00:04.390556,599617095136476846,-187.00
2025-06-12 19:00:04.390556,599617095136476846,-182.00
2025-06-12 19:00:04.390556,599617095136476846,-162.00
2025-06-12 19:00:04.390556,599617095136476846,-153.00
2025-06-12 19:00:04.390556,599617095136476846,-157.00
2025-06-12 19:00:04.390556,599617095136476846,-150.00
2025-06-12 19:00:04.390556,599617095136476846,-140.00
2025-06-12 19:00:04.390556,599617095136476846,-128.00
2025-06-12 19:00:04.390556,599617095136476846,-114.00
2025-06-12 19:00:04.390556,599617095136476846,-119.00
2025-06-12 19:00:04.390556,599617095136476846,-126.00
2025-06-12 19:00:04.390556,599617095136476846,-123.00
2025-06-12 19:00:04.390556,599617095136476846,-119.00
2025-06-12 19:00:04.390556,599617095136476846,-116.00
2025-06-12 19:00:04.390556,599617095136476846,-116.00
2025-06-12 19:00:04.390556,599617095136476846,-123.00
2025-06-12 19:00:04.390556,599617095136476846,-131.00
2025-06-12 19:00:04.390556,599617095136476846,-128.00
2025-06-12 19:00:04.390556,599617095136476846,-121.00
2025-06-12 19:00:04.390556,599617095136476846,-121.00
2025-06-12 19:00:04.390556,599617095136476846,-123.00
2025-06-12 19:00:04.390556,599617095136476846,-121.00
2025-06-12 19:00:04.390556,599617095136476846,-116.00
2025-06-12 19:00:04.390556,599617095136476846,-116.00
2025-06-12 19:00:04.390556,599617095136476846,-119.00
2025-06-12 19:00:04.390556,599617095136476846,-114.00
2025-06-12 19:00:04.390556,599617095136476846,-111.00
2025-06-12 19:00:04.390556,599617095136476846,-116.00
2025-06-12 19:00:04.390556,599617095136476846,-119.00
2025-06-12 19:00:04.390556,599617095136476846,-116.00
2025-06-12 19:00:04.390556,599617095136476846,-123.00
2025-06-12 19:00:04.390556,599617095136476846,-126.00
2025-06-12 19:00:04.390556,599617095136476846,-119.00
2025-06-12 19:00:04.390556,599617095136476846,-106.00
2025-06-12 19:00:04.390556,599617095136476846,-89.00
2025-06-12 19:00:04.390556,599617095136476846,-68.00
2025-06-12 19:00:04.390556,599617095136476846,-72.00
2025-06-12 19:00:04.390556,599617095136476846,-94.00
2025-06-12 19:00:04.390556,599617095136476846,-94.00
2025-06-12 19:00:04.390556,599617095136476846,-77.00
2025-06-12 19:00:04.390556,599617095136476846,-77.00
2025-06-12 19:00:04.390556,599617095136476846,-92.00
2025-06-12 19:00:04.390556,599617095136476846,-94.00
2025-06-12 19:00:04.390556,599617095136476846,-80.00
2025-06-12 19:00:04.390556,599617095136476846,-77.00
2025-06-12 19:00:04.390556,599617095136476846,-87.00
2025-06-12 19:00:04.390556,599617095136476846,-85.00
2025-06-12 19:00:04.390556,599617095136476846,-75.00
2025-06-12 19:00:04.390556,599617095136476846,-68.00
2025-06-12 19:00:04.390556,599617095136476846,-70.00
2025-06-12 19:00:04.390556,599617095136476846,-65.00
2025-06-12 19:00:04.390556,599617095136476846,150.00
2025-06-12 19:00:04.390556,599617095136476846,738.00
2025-06-12 19:00:04.390556,599617095136476846,1396.00
2025-06-12 19:00:04.390556,599617095136476846,1634.00
2025-06-12 19:00:04.390556,599617095136476846,1080.00
2025-06-12 19:00:04.390556,599617095136476846,-21.00
2025-06-12 19:00:04.993398,599617095697265443,-563.00
2025-06-12 19:00:04.993398,599617095697265443,-267.00
2025-06-12 19:00:04.993398,599617095697265443,-104.00
2025-06-12 19:00:04.993398,599617095697265443,-250.00
2025-06-12 19:00:04.993398,599617095697265443,-223.00
2025-06-12 19:00:04.993398,599617095697265443,-140.00
2025-06-12 19:00:04.993398,599617095697265443,-165.00
2025-06-12 19:00:04.993398,599617095697265443,-162.00
2025-06-12 19:00:04.993398,599617095697265443,-131.00
2025-06-12 19:00:04.993398,599617095697265443,-123.00
2025-06-12 19:00:04.993398,599617095697265443,-111.00
2025-06-12 19:00:04.993398,599617095697265443,-89.00
2025-06-12 19:00:04.993398,599617095697265443,-75.00
2025-06-12 19:00:04.993398,599617095697265443,-63.00
2025-06-12 19:00:04.993398,599617095697265443,-55.00
2025-06-12 19:00:04.993398,599617095697265443,-43.00
2025-06-12 19:00:04.993398,599617095697265443,-17.00
2025-06-12 19:00:04.993398,599617095697265443,9.00
2025-06-12 19:00:04.993398,599617095697265443,26.00
2025-06-12 19:00:04.993398,599617095697265443,48.00
2025-06-12 19:00:04.993398,599617095697265443,75.00
2025-06-12 19:00:04.993398,599617095697265443,97.00
2025-06-12 19:00:04.993398,599617095697265443,121.00
2025-06-12 19:00:04.993398,599617095697265443,138.00
2025-06-12 19:00:04.993398,599617095697265443,138.00
2025-06-12 19:00:04.993398,599617095697265443,131.00
2025-06-12 19:00:04.993398,599617095697265443,123.00
2025-06-12 19:00:04.993398,599617095697265443,102.00
2025-06-12 19:00:04.993398,599617095697265443,72.00
2025-06-12 19:00:04.993398,599617095697265443,38.00
2025-06-12 19:00:04.993398,599617095697265443,-12.00
2025-06-12 19:00:04.993398,599617095697265443,-68.00
2025-06-12 19:00:04.993398,599617095697265443,-111.00
2025-06-12 19:00:04.993398,599617095697265443,-145.00
2025-06-12 19:00:04.993398,599617095697265443,-172.00
2025-06-12 19:00:04.993398,599617095697265443,-187.00
2025-06-12 19:00:04.993398,599617095697265443,-196.00
2025-06-12 19:00:04.993398,599617095697265443,-194.00
2025-06-12 19:00:04.993398,599617095697265443,-187.00
2025-06-12 19:00:04.993398,599617095697265443,-184.00
2025-06-12 19:00:04.993398,599617095697265443,-182.00
2025-06-12 19:00:04.993398,599617095697265443,-179.00
2025-06-12 19:00:04.993398,599617095697265443,-170.00
2025-06-12 19:00:04.993398,599617095697265443,-153.00
2025-06-12 19:00:04.993398,599617095697265443,-145.00
2025-06-12 19:00:04.993398,599617095697265443,-145.00
2025-06-12 19:00:04.993398,599617095697265443,-143.00
2025-06-12 19:00:04.993398,599617095697265443,-133.00
2025-06-12 19:00:04.993398,599617095697265443,-126.00
2025-06-12 19:00:04.993398,599617095697265443,-123.00
2025-06-12 19:00:04.993398,599617095697265443,-128.00
2025-06-12 19:00:04.993398,599617095697265443,-131.00
2025-06-12 19:00:04.993398,599617095697265443,-133.00
2025-06-12 19:00:04.993398,599617095697265443,-133.00
2025-06-12 19:00:04.993398,599617095697265443,-133.00
2025-06-12 19:00:04.993398,599617095697265443,-136.00
2025-06-12 19:00:04.993398,599617095697265443,-140.00
2025-06-12 19:00:04.993398,599617095697265443,-138.00
2025-06-12 19:00:04.993398,599617095697265443,-131.00
2025-06-12 19:00:04.993398,599617095697265443,-131.00
2025-06-12 19:00:04.993398,599617095697265443,-136.00
2025-06-12 19:00:04.993398,599617095697265443,-138.00
2025-06-12 19:00:04.993398,599617095697265443,-140.00
2025-06-12 19:00:04.993398,599617095697265443,-136.00
2025-06-12 19:00:04.993398,599617095697265443,-128.00
2025-06-12 19:00:04.993398,599617095697265443,-128.00
2025-06-12 19:00:04.993398,599617095697265443,-128.00
2025-06-12 19:00:04.993398,599617095697265443,-123.00
2025-06-12 19:00:04.993398,599617095697265443,-121.00
2025-06-12 19:00:04.993398,599617095697265443,-119.00
2025-06-12 19:00:04.993398,599617095697265443,-121.00
2025-06-12 19:00:04.993398,599617095697265443,-123.00
2025-06-12 19:00:04.993398,599617095697265443,-126.00
2025-06-12 19:00:05.533811,599617096258023520,-126.00
2025-06-12 19:00:05.533811,599617096258023520,-128.00
2025-06-12 19:00:05.533811,599617096258023520,-133.00
2025-06-12 19:00:05.533811,599617096258023520,-131.00
2025-06-12 19:00:05.533811,599617096258023520,-121.00
2025-06-12 19:00:05.533811,599617096258023520,-104.00
2025-06-12 19:00:05.533811,599617096258023520,-77.00
2025-06-12 19:00:05.533811,599617096258023520,-68.00
2025-06-12 19:00:05.533811,599617096258023520,-87.00
2025-06-12 19:00:05.533811,599617096258023520,-102.00
2025-06-12 19:00:05.533811,599617096258023520,-99.00
2025-06-12 19:00:05.533811,599617096258023520,-94.00
2025-06-12 19:00:05.533811,599617096258023520,-92.00
2025-06-12 19:00:05.533811,599617096258023520,-94.00
2025-06-12 19:00:05.533811,599617096258023520,-89.00
2025-06-12 19:00:05.533811,599617096258023520,-87.00
2025-06-12 19:00:05.533811,599617096258023520,-85.00
2025-06-12 19:00:05.533811,599617096258023520,-85.00
2025-06-12 19:00:05.533811,599617096258023520,-87.00
2025-06-12 19:00:05.533811,599617096258023520,-85.00
2025-06-12 19:00:05.533811,599617096258023520,-85.00
2025-06-12 19:00:05.533811,599617096258023520,-104.00
2025-06-12 19:00:05.533811,599617096258023520,-65.00
2025-06-12 19:00:05.533811,599617096258023520,264.00
2025-06-12 19:00:05.533811,599617096258023520,920.00
2025-06-12 19:00:05.533811,599617096258023520,1513.00
2025-06-12 19:00:05.533811,599617096258023520,1564.00
2025-06-12 19:00:05.533811,599617096258023520,770.00
2025-06-12 19:00:05.533811,599617096258023520,-296.00
2025-06-12 19:00:05.533811,599617096258023520,-539.00
2025-06-12 19:00:05.533811,599617096258023520,-187.00
2025-06-12 19:00:05.533811,599617096258023520,-162.00
2025-06-12 19:00:05.533811,599617096258023520,-293.00
2025-06-12 19:00:05.533811,599617096258023520,-218.00
2025-06-12 19:00:05.533811,599617096258023520,-170.00
2025-06-12 19:00:05.533811,599617096258023520,-208.00
2025-06-12 19:00:05.533811,599617096258023520,-184.00
2025-06-12 19:00:05.533811,599617096258023520,-150.00
2025-06-12 19:00:05.533811,599617096258023520,-160.00
2025-06-12 19:00:05.533811,599617096258023520,-153.00
2025-06-12 19:00:05.533811,599617096258023520,-128.00
2025-06-12 19:00:05.533811,599617096258023520,-121.00
2025-06-12 19:00:05.533811,599617096258023520,-111.00
2025-06-12 19:00:05.533811,599617096258023520,-92.00
2025-06-12 19:00:05.533811,599617096258023520,-72.00
2025-06-12 19:00:05.533811,599617096258023520,-58.00
2025-06-12 19:00:05.533811,599617096258023520,-41.00
2025-06-12 19:00:05.533811,599617096258023520,-19.00
2025-06-12 19:00:05.533811,599617096258023520,-2.00
2025-06-12 19:00:05.533811,599617096258023520,19.00
2025-06-12 19:00:05.533811,599617096258023520,48.00
2025-06-12 19:00:05.533811,599617096258023520,65.00
2025-06-12 19:00:05.533811,599617096258023520,77.00
2025-06-12 19:00:05.533811,599617096258023520,89.00
2025-06-12 19:00:05.533811,599617096258023520,85.00
2025-06-12 19:00:05.533811,599617096258023520,63.00
2025-06-12 19:00:05.533811,599617096258023520,43.00
2025-06-12 19:00:05.533811,599617096258023520,21.00
2025-06-12 19:00:05.533811,599617096258023520,-17.00
2025-06-12 19:00:05.533811,599617096258023520,-63.00
2025-06-12 19:00:05.533811,599617096258023520,-106.00
2025-06-12 19:00:05.533811,599617096258023520,-148.00
2025-06-12 19:00:05.533811,599617096258023520,-179.00
2025-06-12 19:00:05.533811,599617096258023520,-196.00
2025-06-12 19:00:05.533811,599617096258023520,-206.00
2025-06-12 19:00:05.533811,599617096258023520,-213.00
2025-06-12 19:00:05.533811,599617096258023520,-218.00
2025-06-12 19:00:05.533811,599617096258023520,-211.00
2025-06-12 19:00:05.533811,599617096258023520,-199.00
2025-06-12 19:00:05.533811,599617096258023520,-196.00
2025-06-12 19:00:05.533811,599617096258023520,-191.00
2025-06-12 19:00:05.533811,599617096258023520,-177.00
2025-06-12 19:00:05.533811,599617096258023520,-170.00
2025-06-12 19:00:06.106625,599617096818796855,-167.00
2025-06-12 19:00:06.106625,599617096818796855,-157.00
2025-06-12 19:00:06.106625,599617096818796855,-148.00
2025-06-12 19:00:06.106625,599617096818796855,-145.00
2025-06-12 19:00:06.106625,599617096818796855,-143.00
2025-06-12 19:00:06.106625,599617096818796855,-143.00
2025-06-12 19:00:06.106625,599617096818796855,-145.00
2025-06-12 19:00:06.106625,599617096818796855,-145.00
2025-06-12 19:00:06.106625,599617096818796855,-143.00
2025-06-12 19:00:06.106625,599617096818796855,-143.00
2025-06-12 19:00:06.106625,599617096818796855,-145.00
2025-06-12 19:00:06.106625,599617096818796855,-145.00
2025-06-12 19:00:06.106625,599617096818796855,-143.00
2025-06-12 19:00:06.106625,599617096818796855,-143.00
2025-06-12 19:00:06.106625,599617096818796855,-140.00
2025-06-12 19:00:06.106625,599617096818796855,-140.00
2025-06-12 19:00:06.106625,599617096818796855,-143.00
2025-06-12 19:00:06.106625,599617096818796855,-143.00
2025-06-12 19:00:06.106625,599617096818796855,-143.00
2025-06-12 19:00:06.106625,599617096818796855,-138.00
2025-06-12 19:00:06.106625,599617096818796855,-133.00
2025-06-12 19:00:06.106625,599617096818796855,-136.00
2025-06-12 19:00:06.106625,599617096818796855,-138.00
2025-06-12 19:00:06.106625,599617096818796855,-131.00
2025-06-12 19:00:06.106625,599617096818796855,-126.00
2025-06-12 19:00:06.106625,599617096818796855,-131.00
2025-06-12 19:00:06.106625,599617096818796855,-133.00
2025-06-12 19:00:06.106625,599617096818796855,-123.00
2025-06-12 19:00:06.106625,599617096818796855,-119.00
2025-06-12 19:00:06.106625,599617096818796855,-121.00
2025-06-12 19:00:06.106625,599617096818796855,-121.00
2025-06-12 19:00:06.106625,599617096818796855,-116.00
2025-06-12 19:00:06.106625,599617096818796855,-114.00
2025-06-12 19:00:06.106625,599617096818796855,-116.00
2025-06-12 19:00:06.106625,599617096818796855,-116.00
2025-06-12 19:00:06.106625,599617096818796855,-116.00
2025-06-12 19:00:06.106625,599617096818796855,-121.00
2025-06-12 19:00:06.106625,599617096818796855,-128.00
2025-06-12 19:00:06.106625,599617096818796855,-133.00
2025-06-12 19:00:06.106625,599617096818796855,-128.00
2025-06-12 19:00:06.106625,599617096818796855,-121.00
2025-06-12 19:00:06.106625,599617096818796855,-111.00
2025-06-12 19:00:06.106625,599617096818796855,-89.00
2025-06-12 19:00:06.106625,599617096818796855,-72.00
2025-06-12 19:00:06.106625,599617096818796855,-82.00
2025-06-12 19:00:06.106625,599617096818796855,-99.00
2025-06-12 19:00:06.106625,599617096818796855,-102.00
2025-06-12 19:00:06.106625,599617096818796855,-94.00
2025-06-12 19:00:06.106625,599617096818796855,-94.00
2025-06-12 19:00:06.106625,599617096818796855,-97.00
2025-06-12 19:00:06.106625,599617096818796855,-89.00
2025-06-12 19:00:06.106625,599617096818796855,-89.00
2025-06-12 19:00:06.106625,599617096818796855,-94.00
2025-06-12 19:00:06.106625,599617096818796855,-97.00
2025-06-12 19:00:06.106625,599617096818796855,-92.00
2025-06-12 19:00:06.106625,599617096818796855,-87.00
2025-06-12 19:00:06.106625,599617096818796855,-89.00
2025-06-12 19:00:06.106625,599617096818796855,-114.00
2025-06-12 19:00:06.106625,599617096818796855,-70.00
2025-06-12 19:00:06.106625,599617096818796855,269.00
2025-06-12 19:00:06.106625,599617096818796855,923.00
2025-06-12 19:00:06.106625,599617096818796855,1515.00
2025-06-12 19:00:06.106625,599617096818796855,1574.00
2025-06-12 19:00:06.106625,599617096818796855,782.00
2025-06-12 19:00:06.106625,599617096818796855,-284.00
2025-06-12 19:00:06.106625,599617096818796855,-524.00
2025-06-12 19:00:06.106625,599617096818796855,-182.00
2025-06-12 19:00:06.106625,599617096818796855,-170.00
2025-06-12 19:00:06.106625,599617096818796855,-306.00
2025-06-12 19:00:06.106625,599617096818796855,-230.00
2025-06-12 19:00:06.106625,599617096818796855,-174.00
2025-06-12 19:00:06.106625,599617096818796855,-211.00
2025-06-12 19:00:06.106625,599617096818796855,-194.00
2025-06-12 19:00:06.640934,599617097379570192,-160.00
2025-06-12 19:00:06.640934,599617097379570192,-165.00
2025-06-12 19:00:06.640934,599617097379570192,-160.00
2025-06-12 19:00:06.640934,599617097379570192,-140.00
2025-06-12 19:00:06.640934,599617097379570192,-126.00
2025-06-12 19:00:06.640934,599617097379570192,-109.00
2025-06-12 19:00:06.640934,599617097379570192,-97.00
2025-06-12 19:00:06.640934,599617097379570192,-87.00
2025-06-12 19:00:06.640934,599617097379570192,-75.00
2025-06-12 19:00:06.640934,599617097379570192,-48.00
2025-06-12 19:00:06.640934,599617097379570192,-19.00
2025-06-12 19:00:06.640934,599617097379570192,0.00
2025-06-12 19:00:06.640934,599617097379570192,21.00
2025-06-12 19:00:06.640934,599617097379570192,46.00
2025-06-12 19:00:06.640934,599617097379570192,60.00
2025-06-12 19:00:06.640934,599617097379570192,82.00
2025-06-12 19:00:06.640934,599617097379570192,99.00
2025-06-12 19:00:06.640934,599617097379570192,87.00
2025-06-12 19:00:06.640934,599617097379570192,68.00
2025-06-12 19:00:06.640934,599617097379570192,53.00
2025-06-12 19:00:06.640934,599617097379570192,29.00
2025-06-12 19:00:06.640934,599617097379570192,-4.00
2025-06-12 19:00:06.640934,599617097379570192,-53.00
2025-06-12 19:00:06.640934,599617097379570192,-104.00
2025-06-12 19:00:06.640934,599617097379570192,-145.00
2025-06-12 19:00:06.640934,599617097379570192,-184.00
2025-06-12 19:00:06.640934,599617097379570192,-211.00
2025-06-12 19:00:06.640934,599617097379570192,-223.00
2025-06-12 19:00:06.640934,599617097379570192,-228.00
2025-06-12 19:00:06.640934,599617097379570192,-230.00
2025-06-12 19:00:06.640934,599617097379570192,-230.00
2025-06-12 19:00:06.640934,599617097379570192,-228.00
2025-06-12 19:00:06.640934,599617097379570192,-216.00
2025-06-12 19:00:06.640934,599617097379570192,-201.00
2025-06-12 19:00:06.640934,599617097379570192,-201.00
2025-06-12 19:00:06.640934,599617097379570192,-194.00
2025-06-12 19:00:06.640934,599617097379570192,-182.00
2025-06-12 19:00:06.640934,599617097379570192,-177.00
2025-06-12 19:00:06.640934,599617097379570192,-167.00
2025-06-12 19:00:06.640934,599617097379570192,-160.00
2025-06-12 19:00:06.640934,599617097379570192,-153.00
2025-06-12 19:00:06.640934,599617097379570192,-145.00
2025-06-12 19:00:06.640934,599617097379570192,-148.00
2025-06-12 19:00:06.640934,599617097379570192,-162.00
2025-06-12 19:00:06.640934,599617097379570192,-165.00
2025-06-12 19:00:06.640934,599617097379570192,-153.00
2025-06-12 19:00:06.640934,599617097379570192,-145.00
2025-06-12 19:00:06.640934,599617097379570192,-150.00
2025-06-12 19:00:06.640934,599617097379570192,-155.00
2025-06-12 19:00:06.640934,599617097379570192,-153.00
2025-06-12 19:00:06.640934,599617097379570192,-153.00
2025-06-12 19:00:06.640934,599617097379570192,-153.00
2025-06-12 19:00:06.640934,599617097379570192,-148.00
2025-06-12 19:00:06.640934,599617097379570192,-150.00
2025-06-12 19:00:06.640934,599617097379570192,-157.00
2025-06-12 19:00:06.640934,599617097379570192,-148.00
2025-06-12 19:00:06.640934,599617097379570192,-136.00
2025-06-12 19:00:06.640934,599617097379570192,-143.00
2025-06-12 19:00:06.640934,599617097379570192,-153.00
2025-06-12 19:00:06.640934,599617097379570192,-145.00
2025-06-12 19:00:06.640934,599617097379570192,-128.00
2025-06-12 19:00:06.640934,599617097379570192,-123.00
2025-06-12 19:00:06.640934,599617097379570192,-138.00
2025-06-12 19:00:06.640934,599617097379570192,-143.00
2025-06-12 19:00:06.640934,599617097379570192,-131.00
2025-06-12 19:00:06.640934,599617097379570192,-126.00
2025-06-12 19:00:06.640934,599617097379570192,-133.00
2025-06-12 19:00:06.640934,599617097379570192,-126.00
2025-06-12 19:00:06.640934,599617097379570192,-121.00
2025-06-12 19:00:06.640934,599617097379570192,-131.00
2025-06-12 19:00:06.640934,599617097379570192,-138.00
2025-06-12 19:00:06.640934,599617097379570192,-136.00
2025-06-12 19:00:06.640934,599617097379570192,-136.00
2025-06-12 19:00:07.189352,599617097940328269,-138.00
2025-06-12 19:00:07.189352,599617097940328269,-131.00
2025-06-12 19:00:07.189352,599617097940328269,-109.00
2025-06-12 19:00:07.189352,599617097940328269,-87.00
2025-06-12 19:00:07.189352,599617097940328269,-87.00
2025-06-12 19:00:07.189352,599617097940328269,-106.00
2025-06-12 19:00:07.189352,599617097940328269,-111.00
2025-06-12 19:00:07.189352,599617097940328269,-104.00
2025-06-12 19:00:07.189352,599617097940328269,-99.00
2025-06-12 19:00:07.189352,599617097940328269,-89.00
2025-06-12 19:00:07.189352,599617097940328269,-94.00
2025-06-12 19:00:07.189352,599617097940328269,-104.00
2025-06-12 19:00:07.189352,599617097940328269,-102.00
2025-06-12 19:00:07.189352,599617097940328269,-94.00
2025-06-12 19:00:07.189352,599617097940328269,-94.00
2025-06-12 19:00:07.189352,599617097940328269,-92.00
2025-06-12 19:00:07.189352,599617097940328269,-92.00
2025-06-12 19:00:07.189352,599617097940328269,-99.00
2025-06-12 19:00:07.189352,599617097940328269,-99.00
2025-06-12 19:00:07.189352,599617097940328269,48.00
2025-06-12 19:00:07.189352,599617097940328269,536.00
2025-06-12 19:00:07.189352,599617097940328269,1202.00
2025-06-12 19:00:07.189352,599617097940328269,1586.00
2025-06-12 19:00:07.189352,599617097940328269,1268.00
2025-06-12 19:00:07.189352,599617097940328269,240.00
2025-06-12 19:00:07.189352,599617097940328269,-531.00
2025-06-12 19:00:07.189352,599617097940328269,-393.00
2025-06-12 19:00:07.189352,599617097940328269,-128.00
2025-06-12 19:00:07.189352,599617097940328269,-233.00
2025-06-12 19:00:07.189352,599617097940328269,-269.00
2025-06-12 19:00:07.189352,599617097940328269,-172.00
2025-06-12 19:00:07.189352,599617097940328269,-174.00
2025-06-12 19:00:07.189352,599617097940328269,-196.00
2025-06-12 19:00:07.189352,599617097940328269,-170.00
2025-06-12 19:00:07.189352,599617097940328269,-155.00
2025-06-12 19:00:07.189352,599617097940328269,-145.00
2025-06-12 19:00:07.189352,599617097940328269,-128.00
2025-06-12 19:00:07.189352,599617097940328269,-119.00
2025-06-12 19:00:07.189352,599617097940328269,-106.00
2025-06-12 19:00:07.189352,599617097940328269,-87.00
2025-06-12 19:00:07.189352,599617097940328269,-75.00
2025-06-12 19:00:07.189352,599617097940328269,-65.00
2025-06-12 19:00:07.189352,599617097940328269,-43.00
2025-06-12 19:00:07.189352,599617097940328269,-24.00
2025-06-12 19:00:07.189352,599617097940328269,-4.00
2025-06-12 19:00:07.189352,599617097940328269,24.00
2025-06-12 19:00:07.189352,599617097940328269,55.00
2025-06-12 19:00:07.189352,599617097940328269,72.00
2025-06-12 19:00:07.189352,599617097940328269,87.00
2025-06-12 19:00:07.189352,599617097940328269,99.00
2025-06-12 19:00:07.189352,599617097940328269,99.00
2025-06-12 19:00:07.189352,599617097940328269,87.00
2025-06-12 19:00:07.189352,599617097940328269,75.00
2025-06-12 19:00:07.189352,599617097940328269,58.00
2025-06-12 19:00:07.189352,599617097940328269,26.00
2025-06-12 19:00:07.189352,599617097940328269,-12.00
2025-06-12 19:00:07.189352,599617097940328269,-55.00
2025-06-12 19:00:07.189352,599617097940328269,-104.00
2025-06-12 19:00:07.189352,599617097940328269,-148.00
2025-06-12 19:00:07.189352,599617097940328269,-177.00
2025-06-12 19:00:07.189352,599617097940328269,-199.00
2025-06-12 19:00:07.189352,599617097940328269,-206.00
2025-06-12 19:00:07.189352,599617097940328269,-208.00
2025-06-12 19:00:07.189352,599617097940328269,-211.00
2025-06-12 19:00:07.189352,599617097940328269,-206.00
2025-06-12 19:00:07.189352,599617097940328269,-191.00
2025-06-12 19:00:07.189352,599617097940328269,-182.00
2025-06-12 19:00:07.189352,599617097940328269,-177.00
2025-06-12 19:00:07.189352,599617097940328269,-167.00
2025-06-12 19:00:07.189352,599617097940328269,-157.00
2025-06-12 19:00:07.189352,599617097940328269,-148.00
2025-06-12 19:00:07.189352,599617097940328269,-140.00
2025-06-12 19:00:07.189352,599617097940328269,-136.00
2025-06-12 19:00:07.754150,599617098501116862,-140.00
2025-06-12 19:00:07.754150,599617098501116862,-145.00
2025-06-12 19:00:07.754150,599617098501116862,-138.00
2025-06-12 19:00:07.754150,599617098501116862,-133.00
2025-06-12 19:00:07.754150,599617098501116862,-133.00
2025-06-12 19:00:07.754150,599617098501116862,-136.00
2025-06-12 19:00:07.754150,599617098501116862,-131.00
2025-06-12 19:00:07.754150,599617098501116862,-133.00
2025-06-12 19:00:07.754150,599617098501116862,-138.00
2025-06-12 19:00:07.754150,599617098501116862,-136.00
2025-06-12 19:00:07.754150,599617098501116862,-133.00
2025-06-12 19:00:07.754150,599617098501116862,-138.00
2025-06-12 19:00:07.754150,599617098501116862,-133.00
2025-06-12 19:00:07.754150,599617098501116862,-126.00
2025-06-12 19:00:07.754150,599617098501116862,-123.00
2025-06-12 19:00:07.754150,599617098501116862,-121.00
2025-06-12 19:00:07.754150,599617098501116862,-119.00
2025-06-12 19:00:07.754150,599617098501116862,-121.00
2025-06-12 19:00:07.754150,599617098501116862,-123.00
2025-06-12 19:00:07.754150,599617098501116862,-126.00
2025-06-12 19:00:07.754150,599617098501116862,-126.00
2025-06-12 19:00:07.754150,599617098501116862,-121.00
2025-06-12 19:00:07.754150,599617098501116862,-114.00
2025-06-12 19:00:07.754150,599617098501116862,-109.00
2025-06-12 19:00:07.754150,599617098501116862,-109.00
2025-06-12 19:00:07.754150,599617098501116862,-111.00
2025-06-12 19:00:07.754150,599617098501116862,-119.00
2025-06-12 19:00:07.754150,599617098501116862,-123.00
2025-06-12 19:00:07.754150,599617098501116862,-126.00
2025-06-12 19:00:07.754150,599617098501116862,-131.00
2025-06-12 19:00:07.754150,599617098501116862,-126.00
2025-06-12 19:00:07.754150,599617098501116862,-109.00
2025-06-12 19:00:07.754150,599617098501116862,-82.00
2025-06-12 19:00:07.754150,599617098501116862,-65.00
2025-06-12 19:00:07.754150,599617098501116862,-72.00
2025-06-12 19:00:07.754150,599617098501116862,-92.00
2025-06-12 19:00:07.754150,599617098501116862,-97.00
2025-06-12 19:00:07.754150,599617098501116862,-87.00
2025-06-12 19:00:07.754150,599617098501116862,-82.00
2025-06-12 19:00:07.754150,599617098501116862,-87.00
2025-06-12 19:00:07.754150,599617098501116862,-87.00
2025-06-12 19:00:07.754150,599617098501116862,-82.00
2025-06-12 19:00:07.754150,599617098501116862,-82.00
2025-06-12 19:00:07.754150,599617098501116862,-87.00
2025-06-12 19:00:07.754150,599617098501116862,-82.00
2025-06-12 19:00:07.754150,599617098501116862,-77.00
2025-06-12 19:00:07.754150,599617098501116862,-85.00
2025-06-12 19:00:07.754150,599617098501116862,-99.00
2025-06-12 19:00:07.754150,599617098501116862,-38.00
2025-06-12 19:00:07.754150,599617098501116862,318.00
2025-06-12 19:00:07.754150,599617098501116862,954.00
2025-06-12 19:00:07.754150,599617098501116862,1493.00
2025-06-12 19:00:07.754150,599617098501116862,1469.00
2025-06-12 19:00:07.754150,599617098501116862,624.00
2025-06-12 19:00:07.754150,599617098501116862,-357.00
2025-06-12 19:00:07.754150,599617098501116862,-476.00
2025-06-12 19:00:07.754150,599617098501116862,-143.00
2025-06-12 19:00:07.754150,599617098501116862,-165.00
2025-06-12 19:00:07.754150,599617098501116862,-272.00
2025-06-12 19:00:07.754150,599617098501116862,-189.00
2025-06-12 19:00:07.754150,599617098501116862,-160.00
2025-06-12 19:00:07.754150,599617098501116862,-194.00
2025-06-12 19:00:07.754150,599617098501116862,-162.00
2025-06-12 19:00:07.754150,599617098501116862,-133.00
2025-06-12 19:00:07.754150,599617098501116862,-140.00
2025-06-12 19:00:07.754150,599617098501116862,-133.00
2025-06-12 19:00:07.754150,599617098501116862,-111.00
2025-06-12 19:00:07.754150,599617098501116862,-104.00
2025-06-12 19:00:07.754150,599617098501116862,-92.00
2025-06-12 19:00:07.754150,599617098501116862,-72.00
2025-06-12 19:00:07.754150,599617098501116862,-60.00
2025-06-12 19:00:07.754150,599617098501116862,-46.00
2025-06-12 19:00:07.754150,599617098501116862,-26.00
2025-06-12 19:00:08.352824,599617099061874943,-7.00
2025-06-12 19:00:08.352824,599617099061874943,14.00
2025-06-12 19:00:08.352824,599617099061874943,43.00
2025-06-12 19:00:08.352824,599617099061874943,68.00
2025-06-12 19:00:08.352824,599617099061874943,85.00
2025-06-12 19:00:08.352824,599617099061874943,99.00
2025-06-12 19:00:08.352824,599617099061874943,111.00
2025-06-12 19:00:08.352824,599617099061874943,109.00
2025-06-12 19:00:08.352824,599617099061874943,94.00
2025-06-12 19:00:08.352824,599617099061874943,72.00
2025-06-12 19:00:08.352824,599617099061874943,43.00
2025-06-12 19:00:08.352824,599617099061874943,12.00
2025-06-12 19:00:08.352824,599617099061874943,-31.00
2025-06-12 19:00:08.352824,599617099061874943,-75.00
2025-06-12 19:00:08.352824,599617099061874943,-114.00
2025-06-12 19:00:08.352824,599617099061874943,-150.00
2025-06-12 19:00:08.352824,599617099061874943,-179.00
2025-06-12 19:00:08.352824,599617099061874943,-191.00
2025-06-12 19:00:08.352824,599617099061874943,-194.00
2025-06-12 19:00:08.352824,599617099061874943,-201.00
2025-06-12 19:00:08.352824,599617099061874943,-199.00
2025-06-12 19:00:08.352824,599617099061874943,-182.00
2025-06-12 19:00:08.352824,599617099061874943,-170.00
2025-06-12 19:00:08.352824,599617099061874943,-170.00
2025-06-12 19:00:08.352824,599617099061874943,-162.00
2025-06-12 19:00:08.352824,599617099061874943,-150.00
2025-06-12 19:00:08.352824,599617099061874943,-145.00
2025-06-12 19:00:08.352824,599617099061874943,-140.00
2025-06-12 19:00:08.352824,599617099061874943,-138.00
2025-06-12 19:00:08.352824,599617099061874943,-131.00
2025-06-12 19:00:08.352824,599617099061874943,-121.00
2025-06-12 19:00:08.352824,599617099061874943,-119.00
2025-06-12 19:00:08.352824,599617099061874943,-123.00
2025-06-12 19:00:08.352824,599617099061874943,-121.00
2025-06-12 19:00:08.352824,599617099061874943,-114.00
2025-06-12 19:00:08.352824,599617099061874943,-116.00
2025-06-12 19:00:08.352824,599617099061874943,-123.00
2025-06-12 19:00:08.352824,599617099061874943,-121.00
2025-06-12 19:00:08.352824,599617099061874943,-111.00
2025-06-12 19:00:08.352824,599617099061874943,-111.00
2025-06-12 19:00:08.352824,599617099061874943,-116.00
2025-06-12 19:00:08.352824,599617099061874943,-119.00
2025-06-12 19:00:08.352824,599617099061874943,-121.00
2025-06-12 19:00:08.352824,599617099061874943,-119.00
2025-06-12 19:00:08.352824,599617099061874943,-111.00
2025-06-12 19:00:08.352824,599617099061874943,-109.00
2025-06-12 19:00:08.352824,599617099061874943,-109.00
2025-06-12 19:00:08.352824,599617099061874943,-106.00
2025-06-12 19:00:08.352824,599617099061874943,-102.00
2025-06-12 19:00:08.352824,599617099061874943,-102.00
2025-06-12 19:00:08.352824,599617099061874943,-106.00
2025-06-12 19:00:08.352824,599617099061874943,-106.00
2025-06-12 19:00:08.352824,599617099061874943,-114.00
2025-06-12 19:00:08.352824,599617099061874943,-123.00
2025-06-12 19:00:08.352824,599617099061874943,-123.00
2025-06-12 19:00:08.352824,599617099061874943,-121.00
2025-06-12 19:00:08.352824,599617099061874943,-116.00
2025-06-12 19:00:08.352824,599617099061874943,-94.00
2025-06-12 19:00:08.352824,599617099061874943,-65.00
2025-06-12 19:00:08.352824,599617099061874943,-63.00
2025-06-12 19:00:08.352824,599617099061874943,-77.00
2025-06-12 19:00:08.352824,599617099061874943,-89.00
2025-06-12 19:00:08.352824,599617099061874943,-92.00
2025-06-12 19:00:08.352824,599617099061874943,-89.00
2025-06-12 19:00:08.352824,599617099061874943,-87.00
2025-06-12 19:00:08.352824,599617099061874943,-80.00
2025-06-12 19:00:08.352824,599617099061874943,-77.00
2025-06-12 19:00:08.352824,599617099061874943,-82.00
2025-06-12 19:00:08.352824,599617099061874943,-82.00
2025-06-12 19:00:08.352824,599617099061874943,-80.00
2025-06-12 19:00:08.352824,599617099061874943,-80.00
2025-06-12 19:00:08.352824,599617099061874943,-80.00
2025-06-12 19:00:08.352824,599617099061874943,-92.00
2025-06-12 19:00:08.893474,599617099622643192,-114.00
2025-06-12 19:00:08.893474,599617099622643192,-7.00
2025-06-12 19:00:08.893474,599617099622643192,444.00
2025-06-12 19:00:08.893474,599617099622643192,1110.00
2025-06-12 19:00:08.893474,599617099622643192,1571.00
2025-06-12 19:00:08.893474,599617099622643192,1382.00
2025-06-12 19:00:08.893474,599617099622643192,398.00
2025-06-12 19:00:08.893474,599617099622643192,-488.00
2025-06-12 19:00:08.893474,599617099622643192,-425.00
2025-06-12 19:00:08.893474,599617099622643192,-109.00
2025-06-12 19:00:08.893474,599617099622643192,-206.00
2025-06-12 19:00:08.893474,599617099622643192,-269.00
2025-06-12 19:00:08.893474,599617099622643192,-153.00
2025-06-12 19:00:08.893474,599617099622643192,-150.00
2025-06-12 19:00:08.893474,599617099622643192,-184.00
2025-06-12 19:00:08.893474,599617099622643192,-140.00
2025-06-12 19:00:08.893474,599617099622643192,-121.00
2025-06-12 19:00:08.893474,599617099622643192,-128.00
2025-06-12 19:00:08.893474,599617099622643192,-111.00
2025-06-12 19:00:08.893474,599617099622643192,-89.00
2025-06-12 19:00:08.893474,599617099622643192,-85.00
2025-06-12 19:00:08.893474,599617099622643192,-72.00
2025-06-12 19:00:08.893474,599617099622643192,-55.00
2025-06-12 19:00:08.893474,599617099622643192,-31.00
2025-06-12 19:00:08.893474,599617099622643192,-12.00
2025-06-12 19:00:08.893474,599617099622643192,-4.00
2025-06-12 19:00:08.893474,599617099622643192,19.00
2025-06-12 19:00:08.893474,599617099622643192,55.00
2025-06-12 19:00:08.893474,599617099622643192,80.00
2025-06-12 19:00:08.893474,599617099622643192,106.00
2025-06-12 19:00:08.893474,599617099622643192,133.00
2025-06-12 19:00:08.893474,599617099622643192,143.00
2025-06-12 19:00:08.893474,599617099622643192,136.00
2025-06-12 19:00:08.893474,599617099622643192,128.00
2025-06-12 19:00:08.893474,599617099622643192,126.00
2025-06-12 19:00:08.893474,599617099622643192,106.00
2025-06-12 19:00:08.893474,599617099622643192,72.00
2025-06-12 19:00:08.893474,599617099622643192,58.00
2025-06-12 19:00:08.893474,599617099622643192,21.00
2025-06-12 19:00:08.893474,599617099622643192,-41.00
2025-06-12 19:00:08.893474,599617099622643192,-85.00
2025-06-12 19:00:08.893474,599617099622643192,-104.00
2025-06-12 19:00:08.893474,599617099622643192,-121.00
2025-06-12 19:00:08.893474,599617099622643192,-140.00
2025-06-12 19:00:08.893474,599617099622643192,-138.00
2025-06-12 19:00:08.893474,599617099622643192,-128.00
2025-06-12 19:00:08.893474,599617099622643192,-128.00
2025-06-12 19:00:08.893474,599617099622643192,-131.00
2025-06-12 19:00:08.893474,599617099622643192,-119.00
2025-06-12 19:00:08.893474,599617099622643192,-99.00
2025-06-12 19:00:08.893474,599617099622643192,-92.00
2025-06-12 19:00:08.893474,599617099622643192,-87.00
2025-06-12 19:00:08.893474,599617099622643192,-82.00
2025-06-12 19:00:08.893474,599617099622643192,-80.00
2025-06-12 19:00:08.893474,599617099622643192,-75.00
2025-06-12 19:00:08.893474,599617099622643192,-70.00
2025-06-12 19:00:08.893474,599617099622643192,-68.00
2025-06-12 19:00:08.893474,599617099622643192,-55.00
2025-06-12 19:00:08.893474,599617099622643192,-53.00
2025-06-12 19:00:08.893474,599617099622643192,-68.00
2025-06-12 19:00:08.893474,599617099622643192,-65.00
2025-06-12 19:00:08.893474,599617099622643192,-55.00
2025-06-12 19:00:08.893474,599617099622643192,-68.00
2025-06-12 19:00:08.893474,599617099622643192,-75.00
2025-06-12 19:00:08.893474,599617099622643192,-63.00
2025-06-12 19:00:08.893474,599617099622643192,-58.00
2025-06-12 19:00:08.893474,599617099622643192,-65.00
2025-06-12 19:00:08.893474,599617099622643192,-65.00
2025-06-12 19:00:08.893474,599617099622643192,-58.00
2025-06-12 19:00:08.893474,599617099622643192,-58.00
2025-06-12 19:00:08.893474,599617099622643192,-58.00
2025-06-12 19:00:08.893474,599617099622643192,-60.00
2025-06-12 19:00:08.893474,599617099622643192,-68.00
2025-06-12 19:00:09.550786,599617100183421615,-77.00
2025-06-12 19:00:09.550786,599617100183421615,-72.00
2025-06-12 19:00:09.550786,599617100183421615,-65.00
2025-06-12 19:00:09.550786,599617100183421615,-55.00
2025-06-12 19:00:09.550786,599617100183421615,-26.00
2025-06-12 19:00:09.550786,599617100183421615,-4.00
2025-06-12 19:00:09.550786,599617100183421615,-21.00
2025-06-12 19:00:09.550786,599617100183421615,-48.00
2025-06-12 19:00:09.550786,599617100183421615,-51.00
2025-06-12 19:00:09.550786,599617100183421615,-43.00
2025-06-12 19:00:09.550786,599617100183421615,-29.00
2025-06-12 19:00:09.550786,599617100183421615,-26.00
2025-06-12 19:00:09.550786,599617100183421615,-38.00
2025-06-12 19:00:09.550786,599617100183421615,-36.00
2025-06-12 19:00:09.550786,599617100183421615,-34.00
2025-06-12 19:00:09.550786,599617100183421615,-41.00
2025-06-12 19:00:09.550786,599617100183421615,-41.00
2025-06-12 19:00:09.550786,599617100183421615,-31.00
2025-06-12 19:00:09.550786,599617100183421615,-31.00
2025-06-12 19:00:09.550786,599617100183421615,-46.00
2025-06-12 19:00:09.550786,599617100183421615,-24.00
2025-06-12 19:00:09.550786,599617100183421615,245.00
2025-06-12 19:00:09.550786,599617100183421615,850.00
2025-06-12 19:00:09.550786,599617100183421615,1464.00
2025-06-12 19:00:09.550786,599617100183421615,1600.00
2025-06-12 19:00:09.550786,599617100183421615,918.00
2025-06-12 19:00:09.550786,599617100183421615,-150.00
2025-06-12 19:00:09.550786,599617100183421615,-507.00
2025-06-12 19:00:09.550786,599617100183421615,-170.00
2025-06-12 19:00:09.550786,599617100183421615,-85.00
2025-06-12 19:00:09.550786,599617100183421615,-225.00
2025-06-12 19:00:09.550786,599617100183421615,-167.00
2025-06-12 19:00:09.550786,599617100183421615,-104.00
2025-06-12 19:00:09.550786,599617100183421615,-140.00
2025-06-12 19:00:09.550786,599617100183421615,-123.00
2025-06-12 19:00:09.550786,599617100183421615,-92.00
2025-06-12 19:00:09.550786,599617100183421615,-104.00
2025-06-12 19:00:09.550786,599617100183421615,-97.00
2025-06-12 19:00:09.550786,599617100183421615,-72.00
2025-06-12 19:00:09.550786,599617100183421615,-68.00
2025-06-12 19:00:09.550786,599617100183421615,-55.00
2025-06-12 19:00:09.550786,599617100183421615,-41.00
2025-06-12 19:00:09.550786,599617100183421615,-34.00
2025-06-12 19:00:09.550786,599617100183421615,-17.00
2025-06-12 19:00:09.550786,599617100183421615,4.00
2025-06-12 19:00:09.550786,599617100183421615,19.00
2025-06-12 19:00:09.550786,599617100183421615,36.00
2025-06-12 19:00:09.550786,599617100183421615,60.00
2025-06-12 19:00:09.550786,599617100183421615,85.00
2025-06-12 19:00:09.550786,599617100183421615,109.00
2025-06-12 19:00:09.550786,599617100183421615,119.00
2025-06-12 19:00:09.550786,599617100183421615,109.00
2025-06-12 19:00:09.550786,599617100183421615,104.00
2025-06-12 19:00:09.550786,599617100183421615,94.00
2025-06-12 19:00:09.550786,599617100183421615,75.00
2025-06-12 19:00:09.550786,599617100183421615,58.00
2025-06-12 19:00:09.550786,599617100183421615,34.00
2025-06-12 19:00:09.550786,599617100183421615,-12.00
2025-06-12 19:00:09.550786,599617100183421615,-63.00
2025-06-12 19:00:09.550786,599617100183421615,-106.00
2025-06-12 19:00:09.550786,599617100183421615,-143.00
2025-06-12 19:00:09.550786,599617100183421615,-167.00
2025-06-12 19:00:09.550786,599617100183421615,-184.00
2025-06-12 19:00:09.550786,599617100183421615,-194.00
2025-06-12 19:00:09.550786,599617100183421615,-196.00
2025-06-12 19:00:09.550786,599617100183421615,-189.00
2025-06-12 19:00:09.550786,599617100183421615,-184.00
2025-06-12 19:00:09.550786,599617100183421615,-177.00
2025-06-12 19:00:09.550786,599617100183421615,-160.00
2025-06-12 19:00:09.550786,599617100183421615,-157.00
2025-06-12 19:00:09.550786,599617100183421615,-155.00
2025-06-12 19:00:09.550786,599617100183421615,-140.00
2025-06-12 19:00:09.550786,599617100183421615,-140.00
2025-06-12 19:00:10.002229,599617100744179692,-148.00
2025-06-12 19:00:10.002229,599617100744179692,-150.00
2025-06-12 19:00:10.002229,599617100744179692,-153.00
2025-06-12 19:00:10.002229,599617100744179692,-150.00
2025-06-12 19:00:10.002229,599617100744179692,-145.00
2025-06-12 19:00:10.002229,599617100744179692,-148.00
2025-06-12 19:00:10.002229,599617100744179692,-148.00
2025-06-12 19:00:10.002229,599617100744179692,-145.00
2025-06-12 19:00:10.002229,599617100744179692,-145.00
2025-06-12 19:00:10.002229,599617100744179692,-150.00
2025-06-12 19:00:10.002229,599617100744179692,-155.00
2025-06-12 19:00:10.002229,599617100744179692,-155.00
2025-06-12 19:00:10.002229,599617100744179692,-148.00
2025-06-12 19:00:10.002229,599617100744179692,-145.00
2025-06-12 19:00:10.002229,599617100744179692,-160.00
2025-06-12 19:00:10.002229,599617100744179692,-167.00
2025-06-12 19:00:10.002229,599617100744179692,-160.00
2025-06-12 19:00:10.002229,599617100744179692,-162.00
2025-06-12 19:00:10.002229,599617100744179692,-167.00
2025-06-12 19:00:10.002229,599617100744179692,-148.00
2025-06-12 19:00:10.002229,599617100744179692,-119.00
2025-06-12 19:00:10.002229,599617100744179692,-102.00
2025-06-12 19:00:10.002229,599617100744179692,-119.00
2025-06-12 19:00:10.002229,599617100744179692,-140.00
2025-06-12 19:00:10.002229,599617100744179692,-138.00
2025-06-12 19:00:10.002229,599617100744179692,-131.00
2025-06-12 19:00:10.002229,599617100744179692,-136.00
2025-06-12 19:00:10.002229,599617100744179692,-126.00
2025-06-12 19:00:10.002229,599617100744179692,-119.00
2025-06-12 19:00:10.002229,599617100744179692,-128.00
2025-06-12 19:00:10.002229,599617100744179692,-131.00
2025-06-12 19:00:10.002229,599617100744179692,-126.00
2025-06-12 19:00:10.002229,599617100744179692,-126.00
2025-06-12 19:00:10.002229,599617100744179692,-123.00
2025-06-12 19:00:10.002229,599617100744179692,-128.00
2025-06-12 19:00:10.002229,599617100744179692,-148.00
2025-06-12 19:00:10.002229,599617100744179692,-75.00
2025-06-12 19:00:10.002229,599617100744179692,320.00
2025-06-12 19:00:10.002229,599617100744179692,1008.00
2025-06-12 19:00:10.002229,599617100744179692,1574.00
2025-06-12 19:00:10.002229,599617100744179692,1503.00
2025-06-12 19:00:10.002229,599617100744179692,558.00
2025-06-12 19:00:10.002229,599617100744179692,-466.00
2025-06-12 19:00:10.002229,599617100744179692,-551.00
2025-06-12 19:00:10.002229,599617100744179692,-208.00
2025-06-12 19:00:10.002229,599617100744179692,-255.00
2025-06-12 19:00:10.002229,599617100744179692,-344.00
2025-06-12 19:00:10.002229,599617100744179692,-240.00
2025-06-12 19:00:10.002229,599617100744179692,-225.00
2025-06-12 19:00:10.002229,599617100744179692,-259.00
2025-06-12 19:00:10.002229,599617100744179692,-218.00
2025-06-12 19:00:10.002229,599617100744179692,-189.00
2025-06-12 19:00:10.002229,599617100744179692,-196.00
2025-06-12 19:00:10.002229,599617100744179692,-184.00
2025-06-12 19:00:10.002229,599617100744179692,-170.00
2025-06-12 19:00:10.002229,599617100744179692,-165.00
2025-06-12 19:00:10.002229,599617100744179692,-145.00
2025-06-12 19:00:10.002229,599617100744179692,-119.00
2025-06-12 19:00:10.002229,599617100744179692,-102.00
2025-06-12 19:00:10.002229,599617100744179692,-85.00
2025-06-12 19:00:10.002229,599617100744179692,-75.00
2025-06-12 19:00:10.002229,599617100744179692,-63.00
2025-06-12 19:00:10.002229,599617100744179692,-31.00
2025-06-12 19:00:10.002229,599617100744179692,-2.00
2025-06-12 19:00:10.002229,599617100744179692,19.00
2025-06-12 19:00:10.002229,599617100744179692,41.00
2025-06-12 19:00:10.002229,599617100744179692,51.00
2025-06-12 19:00:10.002229,599617100744179692,48.00
2025-06-12 19:00:10.002229,599617100744179692,41.00
2025-06-12 19:00:10.002229,599617100744179692,24.00
2025-06-12 19:00:10.002229,599617100744179692,0.00
2025-06-12 19:00:10.002229,599617100744179692,-21.00
2025-06-12 19:00:10.002229,599617100744179692,-58.00
2025-06-12 19:00:10.572125,599617101304963199,-109.00
2025-06-12 19:00:10.572125,599617101304963199,-145.00
2025-06-12 19:00:10.572125,599617101304963199,-174.00
2025-06-12 19:00:10.572125,599617101304963199,-208.00
2025-06-12 19:00:10.572125,599617101304963199,-235.00
2025-06-12 19:00:10.572125,599617101304963199,-240.00
2025-06-12 19:00:10.572125,599617101304963199,-235.00
2025-06-12 19:00:10.572125,599617101304963199,-233.00
2025-06-12 19:00:10.572125,599617101304963199,-230.00
2025-06-12 19:00:10.572125,599617101304963199,-223.00
2025-06-12 19:00:10.572125,599617101304963199,-213.00
2025-06-12 19:00:10.572125,599617101304963199,-204.00
2025-06-12 19:00:10.572125,599617101304963199,-191.00
2025-06-12 19:00:10.572125,599617101304963199,-182.00
2025-06-12 19:00:10.572125,599617101304963199,-174.00
2025-06-12 19:00:10.572125,599617101304963199,-170.00
2025-06-12 19:00:10.572125,599617101304963199,-165.00
2025-06-12 19:00:10.572125,599617101304963199,-162.00
2025-06-12 19:00:10.572125,599617101304963199,-157.00
2025-06-12 19:00:10.572125,599617101304963199,-155.00
2025-06-12 19:00:10.572125,599617101304963199,-160.00
2025-06-12 19:00:10.572125,599617101304963199,-165.00
2025-06-12 19:00:10.572125,599617101304963199,-162.00
2025-06-12 19:00:10.572125,599617101304963199,-162.00
2025-06-12 19:00:10.572125,599617101304963199,-165.00
2025-06-12 19:00:10.572125,599617101304963199,-165.00
2025-06-12 19:00:10.572125,599617101304963199,-167.00
2025-06-12 19:00:10.572125,599617101304963199,-172.00
2025-06-12 19:00:10.572125,599617101304963199,-172.00
2025-06-12 19:00:10.572125,599617101304963199,-174.00
2025-06-12 19:00:10.572125,599617101304963199,-174.00
2025-06-12 19:00:10.572125,599617101304963199,-167.00
2025-06-12 19:00:10.572125,599617101304963199,-143.00
2025-06-12 19:00:10.572125,599617101304963199,-128.00
2025-06-12 19:00:10.572125,599617101304963199,-138.00
2025-06-12 19:00:10.572125,599617101304963199,-143.00
2025-06-12 19:00:10.572125,599617101304963199,-136.00
2025-06-12 19:00:10.572125,599617101304963199,-133.00
2025-06-12 19:00:10.572125,599617101304963199,-138.00
2025-06-12 19:00:10.572125,599617101304963199,-133.00
2025-06-12 19:00:10.572125,599617101304963199,-121.00
2025-06-12 19:00:10.572125,599617101304963199,-119.00
2025-06-12 19:00:10.572125,599617101304963199,-126.00
2025-06-12 19:00:10.572125,599617101304963199,-123.00
2025-06-12 19:00:10.572125,599617101304963199,-116.00
2025-06-12 19:00:10.572125,599617101304963199,-119.00
2025-06-12 19:00:10.572125,599617101304963199,-123.00
2025-06-12 19:00:10.572125,599617101304963199,-131.00
2025-06-12 19:00:10.572125,599617101304963199,-102.00
2025-06-12 19:00:10.572125,599617101304963199,196.00
2025-06-12 19:00:10.572125,599617101304963199,852.00
2025-06-12 19:00:10.572125,599617101304963199,1493.00
2025-06-12 19:00:10.572125,599617101304963199,1622.00
2025-06-12 19:00:10.572125,599617101304963199,891.00
2025-06-12 19:00:10.572125,599617101304963199,-240.00
2025-06-12 19:00:10.572125,599617101304963199,-609.00
2025-06-12 19:00:10.572125,599617101304963199,-257.00
2025-06-12 19:00:10.572125,599617101304963199,-184.00
2025-06-12 19:00:10.572125,599617101304963199,-323.00
2025-06-12 19:00:10.572125,599617101304963199,-250.00
2025-06-12 19:00:10.572125,599617101304963199,-187.00
2025-06-12 19:00:10.572125,599617101304963199,-225.00
2025-06-12 19:00:10.572125,599617101304963199,-206.00
2025-06-12 19:00:10.572125,599617101304963199,-170.00
2025-06-12 19:00:10.572125,599617101304963199,-172.00
2025-06-12 19:00:10.572125,599617101304963199,-165.00
2025-06-12 19:00:10.572125,599617101304963199,-143.00
2025-06-12 19:00:10.572125,599617101304963199,-136.00
2025-06-12 19:00:10.572125,599617101304963199,-126.00
2025-06-12 19:00:10.572125,599617101304963199,-97.00
2025-06-12 19:00:10.572125,599617101304963199,-72.00
2025-06-12 19:00:10.572125,599617101304963199,-63.00
2025-06-12 19:00:10.572125,599617101304963199,-46.00
2025-06-12 19:00:11.109328,599617101865726364,-21.00
2025-06-12 19:00:11.109328,599617101865726364,0.00
2025-06-12 19:00:11.109328,599617101865726364,21.00
2025-06-12 19:00:11.109328,599617101865726364,46.00
2025-06-12 19:00:11.109328,599617101865726364,70.00
2025-06-12 19:00:11.109328,599617101865726364,89.00
2025-06-12 19:00:11.109328,599617101865726364,89.00
2025-06-12 19:00:11.109328,599617101865726364,77.00
2025-06-12 19:00:11.109328,599617101865726364,63.00
2025-06-12 19:00:11.109328,599617101865726364,41.00
2025-06-12 19:00:11.109328,599617101865726364,12.00
2025-06-12 19:00:11.109328,599617101865726364,-24.00
2025-06-12 19:00:11.109328,599617101865726364,-70.00
2025-06-12 19:00:11.109328,599617101865726364,-119.00
2025-06-12 19:00:11.109328,599617101865726364,-162.00
2025-06-12 19:00:11.109328,599617101865726364,-194.00
2025-06-12 19:00:11.109328,599617101865726364,-216.00
2025-06-12 19:00:11.109328,599617101865726364,-228.00
2025-06-12 19:00:11.109328,599617101865726364,-225.00
2025-06-12 19:00:11.109328,599617101865726364,-213.00
2025-06-12 19:00:11.109328,599617101865726364,-211.00
2025-06-12 19:00:11.109328,599617101865726364,-208.00
2025-06-12 19:00:11.109328,599617101865726364,-196.00
2025-06-12 19:00:11.109328,599617101865726364,-187.00
2025-06-12 19:00:11.109328,599617101865726364,-179.00
2025-06-12 19:00:11.109328,599617101865726364,-170.00
2025-06-12 19:00:11.109328,599617101865726364,-157.00
2025-06-12 19:00:11.109328,599617101865726364,-150.00
2025-06-12 19:00:11.109328,599617101865726364,-148.00
2025-06-12 19:00:11.109328,599617101865726364,-140.00
2025-06-12 19:00:11.109328,599617101865726364,-138.00
2025-06-12 19:00:11.109328,599617101865726364,-140.00
2025-06-12 19:00:11.109328,599617101865726364,-138.00
2025-06-12 19:00:11.109328,599617101865726364,-136.00
2025-06-12 19:00:11.109328,599617101865726364,-138.00
2025-06-12 19:00:11.109328,599617101865726364,-143.00
2025-06-12 19:00:11.109328,599617101865726364,-140.00
2025-06-12 19:00:11.109328,599617101865726364,-145.00
2025-06-12 19:00:11.109328,599617101865726364,-155.00
2025-06-12 19:00:11.109328,599617101865726364,-160.00
2025-06-12 19:00:11.109328,599617101865726364,-160.00
2025-06-12 19:00:11.109328,599617101865726364,-162.00
2025-06-12 19:00:11.109328,599617101865726364,-155.00
2025-06-12 19:00:11.109328,599617101865726364,-143.00
2025-06-12 19:00:11.109328,599617101865726364,-126.00
2025-06-12 19:00:11.109328,599617101865726364,-114.00
2025-06-12 19:00:11.109328,599617101865726364,-121.00
2025-06-12 19:00:11.109328,599617101865726364,-133.00
2025-06-12 19:00:11.109328,599617101865726364,-131.00
2025-06-12 19:00:11.109328,599617101865726364,-128.00
2025-06-12 19:00:11.109328,599617101865726364,-128.00
2025-06-12 19:00:11.109328,599617101865726364,-121.00
2025-06-12 19:00:11.109328,599617101865726364,-119.00
2025-06-12 19:00:11.109328,599617101865726364,-121.00
2025-06-12 19:00:11.109328,599617101865726364,-114.00
2025-06-12 19:00:11.109328,599617101865726364,-111.00
2025-06-12 19:00:11.109328,599617101865726364,-114.00
2025-06-12 19:00:11.109328,599617101865726364,-109.00
2025-06-12 19:00:11.109328,599617101865726364,-116.00
2025-06-12 19:00:11.109328,599617101865726364,-145.00
2025-06-12 19:00:11.109328,599617101865726364,-65.00
2025-06-12 19:00:11.109328,599617101865726364,361.00
2025-06-12 19:00:11.109328,599617101865726364,1066.00
2025-06-12 19:00:11.109328,599617101865726364,1622.00
2025-06-12 19:00:11.109328,599617101865726364,1535.00
2025-06-12 19:00:11.109328,599617101865726364,575.00
2025-06-12 19:00:11.109328,599617101865726364,-444.00
2025-06-12 19:00:11.109328,599617101865726364,-512.00
2025-06-12 19:00:11.109328,599617101865726364,-170.00
2025-06-12 19:00:11.109328,599617101865726364,-221.00
2025-06-12 19:00:11.109328,599617101865726364,-315.00
2025-06-12 19:00:11.109328,599617101865726364,-221.00
2025-06-12 19:00:11.109328,599617101865726364,-199.00
2025-06-12 19:00:11.713112,599617102426489529,-225.00
2025-06-12 19:00:11.713112,599617102426489529,-189.00
2025-06-12 19:00:11.713112,599617102426489529,-167.00
2025-06-12 19:00:11.713112,599617102426489529,-172.00
2025-06-12 19:00:11.713112,599617102426489529,-160.00
2025-06-12 19:00:11.713112,599617102426489529,-143.00
2025-06-12 19:00:11.713112,599617102426489529,-133.00
2025-06-12 19:00:11.713112,599617102426489529,-121.00
2025-06-12 19:00:11.713112,599617102426489529,-109.00
2025-06-12 19:00:11.713112,599617102426489529,-89.00
2025-06-12 19:00:11.713112,599617102426489529,-63.00
2025-06-12 19:00:11.713112,599617102426489529,-43.00
2025-06-12 19:00:11.713112,599617102426489529,-26.00
2025-06-12 19:00:11.713112,599617102426489529,-2.00
2025-06-12 19:00:11.713112,599617102426489529,21.00
2025-06-12 19:00:11.713112,599617102426489529,48.00
2025-06-12 19:00:11.713112,599617102426489529,63.00
2025-06-12 19:00:11.713112,599617102426489529,63.00
2025-06-12 19:00:11.713112,599617102426489529,63.00
2025-06-12 19:00:11.713112,599617102426489529,60.00
2025-06-12 19:00:11.713112,599617102426489529,43.00
2025-06-12 19:00:11.713112,599617102426489529,19.00
2025-06-12 19:00:11.713112,599617102426489529,-12.00
2025-06-12 19:00:11.713112,599617102426489529,-48.00
2025-06-12 19:00:11.713112,599617102426489529,-94.00
2025-06-12 19:00:11.713112,599617102426489529,-138.00
2025-06-12 19:00:11.713112,599617102426489529,-172.00
2025-06-12 19:00:11.713112,599617102426489529,-196.00
2025-06-12 19:00:11.713112,599617102426489529,-213.00
2025-06-12 19:00:11.713112,599617102426489529,-218.00
2025-06-12 19:00:11.713112,599617102426489529,-211.00
2025-06-12 19:00:11.713112,599617102426489529,-201.00
2025-06-12 19:00:11.713112,599617102426489529,-201.00
2025-06-12 19:00:11.713112,599617102426489529,-201.00
2025-06-12 19:00:11.713112,599617102426489529,-191.00
2025-06-12 19:00:11.713112,599617102426489529,-182.00
2025-06-12 19:00:11.713112,599617102426489529,-174.00
2025-06-12 19:00:11.713112,599617102426489529,-170.00
2025-06-12 19:00:11.713112,599617102426489529,-162.00
2025-06-12 19:00:11.713112,599617102426489529,-157.00
2025-06-12 19:00:11.713112,599617102426489529,-148.00
2025-06-12 19:00:11.713112,599617102426489529,-138.00
2025-06-12 19:00:11.713112,599617102426489529,-140.00
2025-06-12 19:00:11.713112,599617102426489529,-145.00
2025-06-12 19:00:11.713112,599617102426489529,-140.00
2025-06-12 19:00:11.713112,599617102426489529,-140.00
2025-06-12 19:00:11.713112,599617102426489529,-148.00
2025-06-12 19:00:11.713112,599617102426489529,-148.00
2025-06-12 19:00:11.713112,599617102426489529,-145.00
2025-06-12 19:00:11.713112,599617102426489529,-148.00
2025-06-12 19:00:11.713112,599617102426489529,-148.00
2025-06-12 19:00:11.713112,599617102426489529,-148.00
2025-06-12 19:00:11.713112,599617102426489529,-157.00
2025-06-12 19:00:11.713112,599617102426489529,-165.00
2025-06-12 19:00:11.713112,599617102426489529,-162.00
2025-06-12 19:00:11.713112,599617102426489529,-160.00
2025-06-12 19:00:11.713112,599617102426489529,-153.00
2025-06-12 19:00:11.713112,599617102426489529,-128.00
2025-06-12 19:00:11.713112,599617102426489529,-111.00
2025-06-12 19:00:11.713112,599617102426489529,-119.00
2025-06-12 19:00:11.713112,599617102426489529,-136.00
2025-06-12 19:00:11.713112,599617102426489529,-131.00
2025-06-12 19:00:11.713112,599617102426489529,-123.00
2025-06-12 19:00:11.713112,599617102426489529,-126.00
2025-06-12 19:00:11.713112,599617102426489529,-123.00
2025-06-12 19:00:11.713112,599617102426489529,-119.00
2025-06-12 19:00:11.713112,599617102426489529,-121.00
2025-06-12 19:00:11.713112,599617102426489529,-121.00
2025-06-12 19:00:11.713112,599617102426489529,-114.00
2025-06-12 19:00:11.713112,599617102426489529,-116.00
2025-06-12 19:00:11.713112,599617102426489529,-116.00
2025-06-12 19:00:11.713112,599617102426489529,-114.00
2025-06-12 19:00:11.713112,599617102426489529,-131.00
2025-06-12 19:00:12.251008,599617102987273038,-140.00
2025-06-12 19:00:12.251008,599617102987273038,63.00
2025-06-12 19:00:12.251008,599617102987273038,648.00
2025-06-12 19:00:12.251008,599617102987273038,1355.00
2025-06-12 19:00:12.251008,599617102987273038,1705.00
2025-06-12 19:00:12.251008,599617102987273038,1265.00
2025-06-12 19:00:12.251008,599617102987273038,116.00
2025-06-12 19:00:12.251008,599617102987273038,-617.00
2025-06-12 19:00:12.251008,599617102987273038,-378.00
2025-06-12 19:00:12.251008,599617102987273038,-148.00
2025-06-12 19:00:12.251008,599617102987273038,-303.00
2025-06-12 19:00:12.251008,599617102987273038,-308.00
2025-06-12 19:00:12.251008,599617102987273038,-204.00
2025-06-12 19:00:12.251008,599617102987273038,-225.00
2025-06-12 19:00:12.251008,599617102987273038,-238.00
2025-06-12 19:00:12.251008,599617102987273038,-191.00
2025-06-12 19:00:12.251008,599617102987273038,-177.00
2025-06-12 19:00:12.251008,599617102987273038,-177.00
2025-06-12 19:00:12.251008,599617102987273038,-162.00
2025-06-12 19:00:12.251008,599617102987273038,-150.00
2025-06-12 19:00:12.251008,599617102987273038,-138.00
2025-06-12 19:00:12.251008,599617102987273038,-123.00
2025-06-12 19:00:12.251008,599617102987273038,-106.00
2025-06-12 19:00:12.251008,599617102987273038,-87.00
2025-06-12 19:00:12.251008,599617102987273038,-63.00
2025-06-12 19:00:12.251008,599617102987273038,-31.00
2025-06-12 19:00:12.251008,599617102987273038,-9.00
2025-06-12 19:00:12.251008,599617102987273038,7.00
2025-06-12 19:00:12.251008,599617102987273038,31.00
2025-06-12 19:00:12.251008,599617102987273038,60.00
2025-06-12 19:00:12.251008,599617102987273038,75.00
2025-06-12 19:00:12.251008,599617102987273038,77.00
2025-06-12 19:00:12.251008,599617102987273038,65.00
2025-06-12 19:00:12.251008,599617102987273038,55.00
2025-06-12 19:00:12.251008,599617102987273038,43.00
2025-06-12 19:00:12.251008,599617102987273038,19.00
2025-06-12 19:00:12.251008,599617102987273038,-24.00
2025-06-12 19:00:12.251008,599617102987273038,-77.00
2025-06-12 19:00:12.251008,599617102987273038,-123.00
2025-06-12 19:00:12.251008,599617102987273038,-160.00
2025-06-12 19:00:12.251008,599617102987273038,-196.00
2025-06-12 19:00:12.251008,599617102987273038,-228.00
2025-06-12 19:00:12.251008,599617102987273038,-238.00
2025-06-12 19:00:12.251008,599617102987273038,-230.00
2025-06-12 19:00:12.251008,599617102987273038,-228.00
2025-06-12 19:00:12.251008,599617102987273038,-230.00
2025-06-12 19:00:12.251008,599617102987273038,-223.00
2025-06-12 19:00:12.251008,599617102987273038,-206.00
2025-06-12 19:00:12.251008,599617102987273038,-199.00
2025-06-12 19:00:12.251008,599617102987273038,-199.00
2025-06-12 19:00:12.251008,599617102987273038,-191.00
2025-06-12 19:00:12.251008,599617102987273038,-179.00
2025-06-12 19:00:12.251008,599617102987273038,-170.00
2025-06-12 19:00:12.251008,599617102987273038,-162.00
2025-06-12 19:00:12.251008,599617102987273038,-155.00
2025-06-12 19:00:12.251008,599617102987273038,-153.00
2025-06-12 19:00:12.251008,599617102987273038,-155.00
2025-06-12 19:00:12.251008,599617102987273038,-153.00
2025-06-12 19:00:12.251008,599617102987273038,-150.00
2025-06-12 19:00:12.251008,599617102987273038,-153.00
2025-06-12 19:00:12.251008,599617102987273038,-153.00
2025-06-12 19:00:12.251008,599617102987273038,-148.00
2025-06-12 19:00:12.251008,599617102987273038,-150.00
2025-06-12 19:00:12.251008,599617102987273038,-150.00
2025-06-12 19:00:12.251008,599617102987273038,-150.00
2025-06-12 19:00:12.251008,599617102987273038,-157.00
2025-06-12 19:00:12.251008,599617102987273038,-162.00
2025-06-12 19:00:12.251008,599617102987273038,-165.00
2025-06-12 19:00:12.251008,599617102987273038,-167.00
2025-06-12 19:00:12.251008,599617102987273038,-170.00
2025-06-12 19:00:12.251008,599617102987273038,-172.00
2025-06-12 19:00:12.251008,599617102987273038,-160.00
2025-06-12 19:00:12.251008,599617102987273038,-131.00
2025-06-12 19:00:12.855056,599617103548061633,-109.00
2025-06-12 19:00:12.855056,599617103548061633,-116.00
2025-06-12 19:00:12.855056,599617103548061633,-140.00
2025-06-12 19:00:12.855056,599617103548061633,-140.00
2025-06-12 19:00:12.855056,599617103548061633,-119.00
2025-06-12 19:00:12.855056,599617103548061633,-121.00
2025-06-12 19:00:12.855056,599617103548061633,-131.00
2025-06-12 19:00:12.855056,599617103548061633,-119.00
2025-06-12 19:00:12.855056,599617103548061633,-111.00
2025-06-12 19:00:12.855056,599617103548061633,-116.00
2025-06-12 19:00:12.855056,599617103548061633,-119.00
2025-06-12 19:00:12.855056,599617103548061633,-116.00
2025-06-12 19:00:12.855056,599617103548061633,-111.00
2025-06-12 19:00:12.855056,599617103548061633,-109.00
2025-06-12 19:00:12.855056,599617103548061633,-123.00
2025-06-12 19:00:12.855056,599617103548061633,-136.00
2025-06-12 19:00:12.855056,599617103548061633,4.00
2025-06-12 19:00:12.855056,599617103548061633,517.00
2025-06-12 19:00:12.855056,599617103548061633,1241.00
2025-06-12 19:00:12.855056,599617103548061633,1698.00
2025-06-12 19:00:12.855056,599617103548061633,1423.00
2025-06-12 19:00:12.855056,599617103548061633,342.00
2025-06-12 19:00:12.855056,599617103548061633,-546.00
2025-06-12 19:00:12.855056,599617103548061633,-442.00
2025-06-12 19:00:12.855056,599617103548061633,-150.00
2025-06-12 19:00:12.855056,599617103548061633,-264.00
2025-06-12 19:00:12.855056,599617103548061633,-306.00
2025-06-12 19:00:12.855056,599617103548061633,-201.00
2025-06-12 19:00:12.855056,599617103548061633,-216.00
2025-06-12 19:00:12.855056,599617103548061633,-242.00
2025-06-12 19:00:12.855056,599617103548061633,-196.00
2025-06-12 19:00:12.855056,599617103548061633,-174.00
2025-06-12 19:00:12.855056,599617103548061633,-179.00
2025-06-12 19:00:12.855056,599617103548061633,-162.00
2025-06-12 19:00:12.855056,599617103548061633,-138.00
2025-06-12 19:00:12.855056,599617103548061633,-126.00
2025-06-12 19:00:12.855056,599617103548061633,-111.00
2025-06-12 19:00:12.855056,599617103548061633,-99.00
2025-06-12 19:00:12.855056,599617103548061633,-87.00
2025-06-12 19:00:12.855056,599617103548061633,-60.00
2025-06-12 19:00:12.855056,599617103548061633,-38.00
2025-06-12 19:00:12.855056,599617103548061633,-24.00
2025-06-12 19:00:12.855056,599617103548061633,4.00
2025-06-12 19:00:12.855056,599617103548061633,36.00
2025-06-12 19:00:12.855056,599617103548061633,60.00
2025-06-12 19:00:12.855056,599617103548061633,75.00
2025-06-12 19:00:12.855056,599617103548061633,80.00
2025-06-12 19:00:12.855056,599617103548061633,75.00
2025-06-12 19:00:12.855056,599617103548061633,60.00
2025-06-12 19:00:12.855056,599617103548061633,41.00
2025-06-12 19:00:12.855056,599617103548061633,19.00
2025-06-12 19:00:12.855056,599617103548061633,-12.00
2025-06-12 19:00:12.855056,599617103548061633,-53.00
2025-06-12 19:00:12.855056,599617103548061633,-97.00
2025-06-12 19:00:12.855056,599617103548061633,-140.00
2025-06-12 19:00:12.855056,599617103548061633,-177.00
2025-06-12 19:00:12.855056,599617103548061633,-194.00
2025-06-12 19:00:12.855056,599617103548061633,-206.00
2025-06-12 19:00:12.855056,599617103548061633,-216.00
2025-06-12 19:00:12.855056,599617103548061633,-213.00
2025-06-12 19:00:12.855056,599617103548061633,-206.00
2025-06-12 19:00:12.855056,599617103548061633,-201.00
2025-06-12 19:00:12.855056,599617103548061633,-191.00
2025-06-12 19:00:12.855056,599617103548061633,-177.00
2025-06-12 19:00:12.855056,599617103548061633,-174.00
2025-06-12 19:00:12.855056,599617103548061633,-167.00
2025-06-12 19:00:12.855056,599617103548061633,-160.00
2025-06-12 19:00:12.855056,599617103548061633,-157.00
2025-06-12 19:00:12.855056,599617103548061633,-148.00
2025-06-12 19:00:12.855056,599617103548061633,-138.00
2025-06-12 19:00:12.855056,599617103548061633,-133.00
2025-06-12 19:00:12.855056,599617103548061633,-131.00
2025-06-12 19:00:12.855056,599617103548061633,-133.00
2025-06-12 19:00:13.363389,599617104108819710,-131.00
2025-06-12 19:00:13.363389,599617104108819710,-128.00
2025-06-12 19:00:13.363389,599617104108819710,-133.00
2025-06-12 19:00:13.363389,599617104108819710,-138.00
2025-06-12 19:00:13.363389,599617104108819710,-133.00
2025-06-12 19:00:13.363389,599617104108819710,-133.00
2025-06-12 19:00:13.363389,599617104108819710,-136.00
2025-06-12 19:00:13.363389,599617104108819710,-131.00
2025-06-12 19:00:13.363389,599617104108819710,-133.00
2025-06-12 19:00:13.363389,599617104108819710,-136.00
2025-06-12 19:00:13.363389,599617104108819710,-131.00
2025-06-12 19:00:13.363389,599617104108819710,-128.00
2025-06-12 19:00:13.363389,599617104108819710,-126.00
2025-06-12 19:00:13.363389,599617104108819710,-121.00
2025-06-12 19:00:13.363389,599617104108819710,-121.00
2025-06-12 19:00:13.363389,599617104108819710,-126.00
2025-06-12 19:00:13.363389,599617104108819710,-131.00
2025-06-12 19:00:13.363389,599617104108819710,-138.00
2025-06-12 19:00:13.363389,599617104108819710,-140.00
2025-06-12 19:00:13.363389,599617104108819710,-138.00
2025-06-12 19:00:13.363389,599617104108819710,-138.00
2025-06-12 19:00:13.363389,599617104108819710,-131.00
2025-06-12 19:00:13.363389,599617104108819710,-102.00
2025-06-12 19:00:13.363389,599617104108819710,-75.00
2025-06-12 19:00:13.363389,599617104108819710,-77.00
2025-06-12 19:00:13.363389,599617104108819710,-97.00
2025-06-12 19:00:13.363389,599617104108819710,-109.00
2025-06-12 19:00:13.363389,599617104108819710,-106.00
2025-06-12 19:00:13.363389,599617104108819710,-97.00
2025-06-12 19:00:13.363389,599617104108819710,-97.00
2025-06-12 19:00:13.363389,599617104108819710,-99.00
2025-06-12 19:00:13.363389,599617104108819710,-94.00
2025-06-12 19:00:13.363389,599617104108819710,-92.00
2025-06-12 19:00:13.363389,599617104108819710,-89.00
2025-06-12 19:00:13.363389,599617104108819710,-92.00
2025-06-12 19:00:13.363389,599617104108819710,-94.00
2025-06-12 19:00:13.363389,599617104108819710,-92.00
2025-06-12 19:00:13.363389,599617104108819710,-94.00
2025-06-12 19:00:13.363389,599617104108819710,-119.00
2025-06-12 19:00:13.363389,599617104108819710,-29.00
2025-06-12 19:00:13.363389,599617104108819710,408.00
2025-06-12 19:00:13.363389,599617104108819710,1110.00
2025-06-12 19:00:13.363389,599617104108819710,1649.00
2025-06-12 19:00:13.363389,599617104108819710,1540.00
2025-06-12 19:00:13.363389,599617104108819710,563.00
2025-06-12 19:00:13.363389,599617104108819710,-442.00
2025-06-12 19:00:13.363389,599617104108819710,-488.00
2025-06-12 19:00:13.363389,599617104108819710,-150.00
2025-06-12 19:00:13.363389,599617104108819710,-208.00
2025-06-12 19:00:13.363389,599617104108819710,-301.00
2025-06-12 19:00:13.363389,599617104108819710,-206.00
2025-06-12 19:00:13.363389,599617104108819710,-189.00
2025-06-12 19:00:13.363389,599617104108819710,-218.00
2025-06-12 19:00:13.363389,599617104108819710,-182.00
2025-06-12 19:00:13.363389,599617104108819710,-160.00
2025-06-12 19:00:13.363389,599617104108819710,-170.00
2025-06-12 19:00:13.363389,599617104108819710,-153.00
2025-06-12 19:00:13.363389,599617104108819710,-123.00
2025-06-12 19:00:13.363389,599617104108819710,-116.00
2025-06-12 19:00:13.363389,599617104108819710,-106.00
2025-06-12 19:00:13.363389,599617104108819710,-89.00
2025-06-12 19:00:13.363389,599617104108819710,-72.00
2025-06-12 19:00:13.363389,599617104108819710,-55.00
2025-06-12 19:00:13.363389,599617104108819710,-31.00
2025-06-12 19:00:13.363389,599617104108819710,-9.00
2025-06-12 19:00:13.363389,599617104108819710,4.00
2025-06-12 19:00:13.363389,599617104108819710,31.00
2025-06-12 19:00:13.363389,599617104108819710,65.00
2025-06-12 19:00:13.363389,599617104108819710,85.00
2025-06-12 19:00:13.363389,599617104108819710,89.00
2025-06-12 19:00:13.363389,599617104108819710,92.00
2025-06-12 19:00:13.363389,599617104108819710,85.00
2025-06-12 19:00:13.363389,599617104108819710,63.00
2025-06-12 19:00:13.930234,599617104669608305,46.00
2025-06-12 19:00:13.930234,599617104669608305,21.00
2025-06-12 19:00:13.930234,599617104669608305,-17.00
2025-06-12 19:00:13.930234,599617104669608305,-63.00
2025-06-12 19:00:13.930234,599617104669608305,-109.00
2025-06-12 19:00:13.930234,599617104669608305,-150.00
2025-06-12 19:00:13.930234,599617104669608305,-174.00
2025-06-12 19:00:13.930234,599617104669608305,-194.00
2025-06-12 19:00:13.930234,599617104669608305,-206.00
2025-06-12 19:00:13.930234,599617104669608305,-201.00
2025-06-12 19:00:13.930234,599617104669608305,-194.00
2025-06-12 19:00:13.930234,599617104669608305,-196.00
2025-06-12 19:00:13.930234,599617104669608305,-189.00
2025-06-12 19:00:13.930234,599617104669608305,-177.00
2025-06-12 19:00:13.930234,599617104669608305,-170.00
2025-06-12 19:00:13.930234,599617104669608305,-160.00
2025-06-12 19:00:13.930234,599617104669608305,-155.00
2025-06-12 19:00:13.930234,599617104669608305,-145.00
2025-06-12 19:00:13.930234,599617104669608305,-138.00
2025-06-12 19:00:13.930234,599617104669608305,-136.00
2025-06-12 19:00:13.930234,599617104669608305,-136.00
2025-06-12 19:00:13.930234,599617104669608305,-131.00
2025-06-12 19:00:13.930234,599617104669608305,-123.00
2025-06-12 19:00:13.930234,599617104669608305,-116.00
2025-06-12 19:00:13.930234,599617104669608305,-116.00
2025-06-12 19:00:13.930234,599617104669608305,-121.00
2025-06-12 19:00:13.930234,599617104669608305,-121.00
2025-06-12 19:00:13.930234,599617104669608305,-119.00
2025-06-12 19:00:13.930234,599617104669608305,-123.00
2025-06-12 19:00:13.930234,599617104669608305,-128.00
2025-06-12 19:00:13.930234,599617104669608305,-128.00
2025-06-12 19:00:13.930234,599617104669608305,-126.00
2025-06-12 19:00:13.930234,599617104669608305,-131.00
2025-06-12 19:00:13.930234,599617104669608305,-128.00
2025-06-12 19:00:13.930234,599617104669608305,-119.00
2025-06-12 19:00:13.930234,599617104669608305,-116.00
2025-06-12 19:00:13.930234,599617104669608305,-121.00
2025-06-12 19:00:13.930234,599617104669608305,-123.00
2025-06-12 19:00:13.930234,599617104669608305,-116.00
2025-06-12 19:00:13.930234,599617104669608305,-114.00
2025-06-12 19:00:13.930234,599617104669608305,-114.00
2025-06-12 19:00:13.930234,599617104669608305,-116.00
2025-06-12 19:00:13.930234,599617104669608305,-111.00
2025-06-12 19:00:13.930234,599617104669608305,-109.00
2025-06-12 19:00:13.930234,599617104669608305,-116.00
2025-06-12 19:00:13.930234,599617104669608305,-123.00
2025-06-12 19:00:13.930234,599617104669608305,-121.00
2025-06-12 19:00:13.930234,599617104669608305,-123.00
2025-06-12 19:00:13.930234,599617104669608305,-123.00
2025-06-12 19:00:13.930234,599617104669608305,-104.00
2025-06-12 19:00:13.930234,599617104669608305,-77.00
2025-06-12 19:00:13.930234,599617104669608305,-63.00
2025-06-12 19:00:13.930234,599617104669608305,-75.00
2025-06-12 19:00:13.930234,599617104669608305,-92.00
2025-06-12 19:00:13.930234,599617104669608305,-92.00
2025-06-12 19:00:13.930234,599617104669608305,-87.00
2025-06-12 19:00:13.930234,599617104669608305,-92.00
2025-06-12 19:00:13.930234,599617104669608305,-85.00
2025-06-12 19:00:13.930234,599617104669608305,-77.00
2025-06-12 19:00:13.930234,599617104669608305,-77.00
2025-06-12 19:00:13.930234,599617104669608305,-85.00
2025-06-12 19:00:13.930234,599617104669608305,-82.00
2025-06-12 19:00:13.930234,599617104669608305,-72.00
2025-06-12 19:00:13.930234,599617104669608305,-77.00
2025-06-12 19:00:13.930234,599617104669608305,-85.00
2025-06-12 19:00:13.930234,599617104669608305,-94.00
2025-06-12 19:00:13.930234,599617104669608305,-104.00
2025-06-12 19:00:13.930234,599617104669608305,65.00
2025-06-12 19:00:13.930234,599617104669608305,607.00
2025-06-12 19:00:13.930234,599617104669608305,1326.00
2025-06-12 19:00:13.930234,599617104669608305,1751.00
2025-06-12 19:00:13.930234,599617104669608305,1404.00
2025-06-12 19:00:13.930234,599617104669608305,281.00
2025-06-12 19:00:14.469828,599617105230366380,-531.00
2025-06-12 19:00:14.469828,599617105230366380,-366.00
2025-06-12 19:00:14.469828,599617105230366380,-111.00
2025-06-12 19:00:14.469828,599617105230366380,-242.00
2025-06-12 19:00:14.469828,599617105230366380,-276.00
2025-06-12 19:00:14.469828,599617105230366380,-179.00
2025-06-12 19:00:14.469828,599617105230366380,-187.00
2025-06-12 19:00:14.469828,599617105230366380,-199.00
2025-06-12 19:00:14.469828,599617105230366380,-157.00
2025-06-12 19:00:14.469828,599617105230366380,-145.00
2025-06-12 19:00:14.469828,599617105230366380,-148.00
2025-06-12 19:00:14.469828,599617105230366380,-128.00
2025-06-12 19:00:14.469828,599617105230366380,-109.00
2025-06-12 19:00:14.469828,599617105230366380,-102.00
2025-06-12 19:00:14.469828,599617105230366380,-87.00
2025-06-12 19:00:14.469828,599617105230366380,-70.00
2025-06-12 19:00:14.469828,599617105230366380,-51.00
2025-06-12 19:00:14.469828,599617105230366380,-36.00
2025-06-12 19:00:14.469828,599617105230366380,-19.00
2025-06-12 19:00:14.469828,599617105230366380,7.00
2025-06-12 19:00:14.469828,599617105230366380,38.00
2025-06-12 19:00:14.469828,599617105230366380,63.00
2025-06-12 19:00:14.469828,599617105230366380,80.00
2025-06-12 19:00:14.469828,599617105230366380,99.00
2025-06-12 19:00:14.469828,599617105230366380,119.00
2025-06-12 19:00:14.469828,599617105230366380,114.00
2025-06-12 19:00:14.469828,599617105230366380,97.00
2025-06-12 19:00:14.469828,599617105230366380,85.00
2025-06-12 19:00:14.469828,599617105230366380,63.00
2025-06-12 19:00:14.469828,599617105230366380,26.00
2025-06-12 19:00:14.469828,599617105230366380,-17.00
2025-06-12 19:00:14.469828,599617105230366380,-60.00
2025-06-12 19:00:14.469828,599617105230366380,-109.00
2025-06-12 19:00:14.469828,599617105230366380,-153.00
2025-06-12 19:00:14.469828,599617105230366380,-179.00
2025-06-12 19:00:14.469828,599617105230366380,-194.00
2025-06-12 19:00:14.469828,599617105230366380,-206.00
2025-06-12 19:00:14.469828,599617105230366380,-206.00
2025-06-12 19:00:14.469828,599617105230366380,-201.00
2025-06-12 19:00:14.469828,599617105230366380,-199.00
2025-06-12 19:00:14.469828,599617105230366380,-189.00
2025-06-12 19:00:14.469828,599617105230366380,-182.00
2025-06-12 19:00:14.469828,599617105230366380,-179.00
2025-06-12 19:00:14.469828,599617105230366380,-165.00
2025-06-12 19:00:14.469828,599617105230366380,-153.00
2025-06-12 19:00:14.469828,599617105230366380,-153.00
2025-06-12 19:00:14.469828,599617105230366380,-143.00
2025-06-12 19:00:14.469828,599617105230366380,-131.00
2025-06-12 19:00:14.469828,599617105230366380,-131.00
2025-06-12 19:00:14.469828,599617105230366380,-128.00
2025-06-12 19:00:14.469828,599617105230366380,-123.00
2025-06-12 19:00:14.469828,599617105230366380,-121.00
2025-06-12 19:00:14.469828,599617105230366380,-121.00
2025-06-12 19:00:14.469828,599617105230366380,-123.00
2025-06-12 19:00:14.469828,599617105230366380,-123.00
2025-06-12 19:00:14.469828,599617105230366380,-123.00
2025-06-12 19:00:14.469828,599617105230366380,-121.00
2025-06-12 19:00:14.469828,599617105230366380,-119.00
2025-06-12 19:00:14.469828,599617105230366380,-126.00
2025-06-12 19:00:14.469828,599617105230366380,-128.00
2025-06-12 19:00:14.469828,599617105230366380,-123.00
2025-06-12 19:00:14.469828,599617105230366380,-123.00
2025-06-12 19:00:14.469828,599617105230366380,-126.00
2025-06-12 19:00:14.469828,599617105230366380,-123.00
2025-06-12 19:00:14.469828,599617105230366380,-121.00
2025-06-12 19:00:14.469828,599617105230366380,-116.00
2025-06-12 19:00:14.469828,599617105230366380,-116.00
2025-06-12 19:00:14.469828,599617105230366380,-119.00
2025-06-12 19:00:14.469828,599617105230366380,-114.00
2025-06-12 19:00:14.469828,599617105230366380,-106.00
2025-06-12 19:00:14.469828,599617105230366380,-111.00
2025-06-12 19:00:14.469828,599617105230366380,-116.00
2025-06-12 19:00:14.469828,599617105230366380,-114.00
2025-06-12 19:00:15.071726,599617105791129547,-119.00
2025-06-12 19:00:15.071726,599617105791129547,-123.00
2025-06-12 19:00:15.071726,599617105791129547,-121.00
2025-06-12 19:00:15.071726,599617105791129547,-116.00
2025-06-12 19:00:15.071726,599617105791129547,-104.00
2025-06-12 19:00:15.071726,599617105791129547,-72.00
2025-06-12 19:00:15.071726,599617105791129547,-60.00
2025-06-12 19:00:15.071726,599617105791129547,-77.00
2025-06-12 19:00:15.071726,599617105791129547,-87.00
2025-06-12 19:00:15.071726,599617105791129547,-82.00
2025-06-12 19:00:15.071726,599617105791129547,-85.00
2025-06-12 19:00:15.071726,599617105791129547,-85.00
2025-06-12 19:00:15.071726,599617105791129547,-75.00
2025-06-12 19:00:15.071726,599617105791129547,-72.00
2025-06-12 19:00:15.071726,599617105791129547,-77.00
2025-06-12 19:00:15.071726,599617105791129547,-80.00
2025-06-12 19:00:15.071726,599617105791129547,-80.00
2025-06-12 19:00:15.071726,599617105791129547,-70.00
2025-06-12 19:00:15.071726,599617105791129547,-63.00
2025-06-12 19:00:15.071726,599617105791129547,-72.00
2025-06-12 19:00:15.071726,599617105791129547,-94.00
2025-06-12 19:00:15.071726,599617105791129547,-51.00
2025-06-12 19:00:15.071726,599617105791129547,279.00
2025-06-12 19:00:15.071726,599617105791129547,952.00
2025-06-12 19:00:15.071726,599617105791129547,1593.00
2025-06-12 19:00:15.071726,599617105791129547,1705.00
2025-06-12 19:00:15.071726,599617105791129547,949.00
2025-06-12 19:00:15.071726,599617105791129547,-191.00
2025-06-12 19:00:15.071726,599617105791129547,-553.00
2025-06-12 19:00:15.071726,599617105791129547,-201.00
2025-06-12 19:00:15.071726,599617105791129547,-140.00
2025-06-12 19:00:15.071726,599617105791129547,-289.00
2025-06-12 19:00:15.071726,599617105791129547,-218.00
2025-06-12 19:00:15.071726,599617105791129547,-165.00
2025-06-12 19:00:15.071726,599617105791129547,-208.00
2025-06-12 19:00:15.071726,599617105791129547,-182.00
2025-06-12 19:00:15.071726,599617105791129547,-148.00
2025-06-12 19:00:15.071726,599617105791129547,-157.00
2025-06-12 19:00:15.071726,599617105791129547,-143.00
2025-06-12 19:00:15.071726,599617105791129547,-116.00
2025-06-12 19:00:15.071726,599617105791129547,-111.00
2025-06-12 19:00:15.071726,599617105791129547,-97.00
2025-06-12 19:00:15.071726,599617105791129547,-70.00
2025-06-12 19:00:15.071726,599617105791129547,-60.00
2025-06-12 19:00:15.071726,599617105791129547,-55.00
2025-06-12 19:00:15.071726,599617105791129547,-29.00
2025-06-12 19:00:15.071726,599617105791129547,2.00
2025-06-12 19:00:15.071726,599617105791129547,21.00
2025-06-12 19:00:15.071726,599617105791129547,43.00
2025-06-12 19:00:15.071726,599617105791129547,77.00
2025-06-12 19:00:15.071726,599617105791129547,106.00
2025-06-12 19:00:15.071726,599617105791129547,121.00
2025-06-12 19:00:15.071726,599617105791129547,123.00
2025-06-12 19:00:15.071726,599617105791129547,114.00
2025-06-12 19:00:15.071726,599617105791129547,104.00
2025-06-12 19:00:15.071726,599617105791129547,89.00
2025-06-12 19:00:15.071726,599617105791129547,53.00
2025-06-12 19:00:15.071726,599617105791129547,4.00
2025-06-12 19:00:15.071726,599617105791129547,-43.00
2025-06-12 19:00:15.071726,599617105791129547,-92.00
2025-06-12 19:00:15.071726,599617105791129547,-138.00
2025-06-12 19:00:15.071726,599617105791129547,-177.00
2025-06-12 19:00:15.071726,599617105791129547,-206.00
2025-06-12 19:00:15.071726,599617105791129547,-211.00
2025-06-12 19:00:15.071726,599617105791129547,-213.00
2025-06-12 19:00:15.071726,599617105791129547,-221.00
2025-06-12 19:00:15.071726,599617105791129547,-216.00
2025-06-12 19:00:15.071726,599617105791129547,-211.00
2025-06-12 19:00:15.071726,599617105791129547,-211.00
2025-06-12 19:00:15.071726,599617105791129547,-201.00
2025-06-12 19:00:15.071726,599617105791129547,-184.00
2025-06-12 19:00:15.071726,599617105791129547,-174.00
2025-06-12 19:00:15.071726,599617105791129547,-162.00
2025-06-12 19:00:15.703493,599617106351913056,-150.00
2025-06-12 19:00:15.703493,599617106351913056,-150.00
2025-06-12 19:00:15.703493,599617106351913056,-150.00
2025-06-12 19:00:15.703493,599617106351913056,-143.00
2025-06-12 19:00:15.703493,599617106351913056,-140.00
2025-06-12 19:00:15.703493,599617106351913056,-138.00
2025-06-12 19:00:15.703493,599617106351913056,-133.00
2025-06-12 19:00:15.703493,599617106351913056,-136.00
2025-06-12 19:00:15.703493,599617106351913056,-138.00
2025-06-12 19:00:15.703493,599617106351913056,-128.00
2025-06-12 19:00:15.703493,599617106351913056,-126.00
2025-06-12 19:00:15.703493,599617106351913056,-133.00
2025-06-12 19:00:15.703493,599617106351913056,-138.00
2025-06-12 19:00:15.703493,599617106351913056,-138.00
2025-06-12 19:00:15.703493,599617106351913056,-138.00
2025-06-12 19:00:15.703493,599617106351913056,-140.00
2025-06-12 19:00:15.703493,599617106351913056,-138.00
2025-06-12 19:00:15.703493,599617106351913056,-131.00
2025-06-12 19:00:15.703493,599617106351913056,-126.00
2025-06-12 19:00:15.703493,599617106351913056,-123.00
2025-06-12 19:00:15.703493,599617106351913056,-123.00
2025-06-12 19:00:15.703493,599617106351913056,-123.00
2025-06-12 19:00:15.703493,599617106351913056,-126.00
2025-06-12 19:00:15.703493,599617106351913056,-133.00
2025-06-12 19:00:15.703493,599617106351913056,-131.00
2025-06-12 19:00:15.703493,599617106351913056,-123.00
2025-06-12 19:00:15.703493,599617106351913056,-123.00
2025-06-12 19:00:15.703493,599617106351913056,-131.00
2025-06-12 19:00:15.703493,599617106351913056,-131.00
2025-06-12 19:00:15.703493,599617106351913056,-111.00
2025-06-12 19:00:15.703493,599617106351913056,-87.00
2025-06-12 19:00:15.703493,599617106351913056,-80.00
2025-06-12 19:00:15.703493,599617106351913056,-97.00
2025-06-12 19:00:15.703493,599617106351913056,-106.00
2025-06-12 19:00:15.703493,599617106351913056,-104.00
2025-06-12 19:00:15.703493,599617106351913056,-99.00
2025-06-12 19:00:15.703493,599617106351913056,-94.00
2025-06-12 19:00:15.703493,599617106351913056,-92.00
2025-06-12 19:00:15.703493,599617106351913056,-97.00
2025-06-12 19:00:15.703493,599617106351913056,-99.00
2025-06-12 19:00:15.703493,599617106351913056,-85.00
2025-06-12 19:00:15.703493,599617106351913056,-80.00
2025-06-12 19:00:15.703493,599617106351913056,-89.00
2025-06-12 19:00:15.703493,599617106351913056,-94.00
2025-06-12 19:00:15.703493,599617106351913056,-87.00
2025-06-12 19:00:15.703493,599617106351913056,-97.00
2025-06-12 19:00:15.703493,599617106351913056,-17.00
2025-06-12 19:00:15.703493,599617106351913056,410.00
2025-06-12 19:00:15.703493,599617106351913056,1105.00
2025-06-12 19:00:15.703493,599617106351913056,1612.00
2025-06-12 19:00:15.703493,599617106351913056,1513.00
2025-06-12 19:00:15.703493,599617106351913056,602.00
2025-06-12 19:00:15.703493,599617106351913056,-410.00
2025-06-12 19:00:15.703493,599617106351913056,-507.00
2025-06-12 19:00:15.703493,599617106351913056,-160.00
2025-06-12 19:00:15.703493,599617106351913056,-196.00
2025-06-12 19:00:15.703493,599617106351913056,-291.00
2025-06-12 19:00:15.703493,599617106351913056,-189.00
2025-06-12 19:00:15.703493,599617106351913056,-174.00
2025-06-12 19:00:15.703493,599617106351913056,-221.00
2025-06-12 19:00:15.703493,599617106351913056,-182.00
2025-06-12 19:00:15.703493,599617106351913056,-140.00
2025-06-12 19:00:15.703493,599617106351913056,-153.00
2025-06-12 19:00:15.703493,599617106351913056,-145.00
2025-06-12 19:00:15.703493,599617106351913056,-114.00
2025-06-12 19:00:15.703493,599617106351913056,-94.00
2025-06-12 19:00:15.703493,599617106351913056,-92.00
2025-06-12 19:00:15.703493,599617106351913056,-77.00
2025-06-12 19:00:15.703493,599617106351913056,-53.00
2025-06-12 19:00:15.703493,599617106351913056,-34.00
2025-06-12 19:00:15.703493,599617106351913056,-14.00
2025-06-12 19:00:15.703493,599617106351913056,7.00
2025-06-12 19:00:15.703493,599617106351913056,36.00
2025-06-12 19:00:16.211042,599617106912671133,72.00
2025-06-12 19:00:16.211042,599617106912671133,104.00
2025-06-12 19:00:16.211042,599617106912671133,131.00
2025-06-12 19:00:16.211042,599617106912671133,145.00
2025-06-12 19:00:16.211042,599617106912671133,138.00
2025-06-12 19:00:16.211042,599617106912671133,126.00
2025-06-12 19:00:16.211042,599617106912671133,114.00
2025-06-12 19:00:16.211042,599617106912671133,87.00
