Timestamp,Device Timestamp (ns),ECG Value (uV)
2025-06-12 19:21:11.769854,599618362537562424,-123.00
2025-06-12 19:21:11.769854,599618362537562424,-114.00
2025-06-12 19:21:11.769854,599618362537562424,-116.00
2025-06-12 19:21:11.769854,599618362537562424,-123.00
2025-06-12 19:21:11.769854,599618362537562424,-116.00
2025-06-12 19:21:11.769854,599618362537562424,-111.00
2025-06-12 19:21:11.769854,599618362537562424,-119.00
2025-06-12 19:21:11.769854,599618362537562424,-116.00
2025-06-12 19:21:11.769854,599618362537562424,-111.00
2025-06-12 19:21:11.769854,599618362537562424,-116.00
2025-06-12 19:21:11.769854,599618362537562424,-119.00
2025-06-12 19:21:11.769854,599618362537562424,-104.00
2025-06-12 19:21:11.769854,599618362537562424,-89.00
2025-06-12 19:21:11.769854,599618362537562424,-89.00
2025-06-12 19:21:11.769854,599618362537562424,-94.00
2025-06-12 19:21:11.769854,599618362537562424,-97.00
2025-06-12 19:21:11.769854,599618362537562424,-94.00
2025-06-12 19:21:11.769854,599618362537562424,-92.00
2025-06-12 19:21:11.769854,599618362537562424,-92.00
2025-06-12 19:21:11.769854,599618362537562424,-94.00
2025-06-12 19:21:11.769854,599618362537562424,-92.00
2025-06-12 19:21:11.769854,599618362537562424,-87.00
2025-06-12 19:21:11.769854,599618362537562424,-85.00
2025-06-12 19:21:11.769854,599618362537562424,-80.00
2025-06-12 19:21:11.769854,599618362537562424,-70.00
2025-06-12 19:21:11.769854,599618362537562424,-70.00
2025-06-12 19:21:11.769854,599618362537562424,-85.00
2025-06-12 19:21:11.769854,599618362537562424,-89.00
2025-06-12 19:21:11.769854,599618362537562424,-89.00
2025-06-12 19:21:11.769854,599618362537562424,-99.00
2025-06-12 19:21:11.769854,599618362537562424,-104.00
2025-06-12 19:21:11.769854,599618362537562424,-82.00
2025-06-12 19:21:11.769854,599618362537562424,-51.00
2025-06-12 19:21:11.769854,599618362537562424,-34.00
2025-06-12 19:21:11.769854,599618362537562424,-46.00
2025-06-12 19:21:11.769854,599618362537562424,-60.00
2025-06-12 19:21:11.769854,599618362537562424,-65.00
2025-06-12 19:21:11.769854,599618362537562424,-65.00
2025-06-12 19:21:11.769854,599618362537562424,-58.00
2025-06-12 19:21:11.769854,599618362537562424,-53.00
2025-06-12 19:21:11.769854,599618362537562424,-60.00
2025-06-12 19:21:11.769854,599618362537562424,-65.00
2025-06-12 19:21:11.769854,599618362537562424,-55.00
2025-06-12 19:21:11.769854,599618362537562424,-51.00
2025-06-12 19:21:11.769854,599618362537562424,-48.00
2025-06-12 19:21:11.769854,599618362537562424,-46.00
2025-06-12 19:21:11.769854,599618362537562424,-53.00
2025-06-12 19:21:11.769854,599618362537562424,-68.00
2025-06-12 19:21:11.769854,599618362537562424,-51.00
2025-06-12 19:21:11.769854,599618362537562424,196.00
2025-06-12 19:21:11.769854,599618362537562424,799.00
2025-06-12 19:21:11.769854,599618362537562424,1462.00
2025-06-12 19:21:11.769854,599618362537562424,1698.00
2025-06-12 19:21:11.769854,599618362537562424,1127.00
2025-06-12 19:21:11.769854,599618362537562424,9.00
2025-06-12 19:21:11.769854,599618362537562424,-505.00
2025-06-12 19:21:11.769854,599618362537562424,-179.00
2025-06-12 19:21:11.769854,599618362537562424,-36.00
2025-06-12 19:21:11.769854,599618362537562424,-221.00
2025-06-12 19:21:11.769854,599618362537562424,-204.00
2025-06-12 19:21:11.769854,599618362537562424,-114.00
2025-06-12 19:21:11.769854,599618362537562424,-150.00
2025-06-12 19:21:11.769854,599618362537562424,-160.00
2025-06-12 19:21:11.769854,599618362537562424,-116.00
2025-06-12 19:21:11.769854,599618362537562424,-104.00
2025-06-12 19:21:11.769854,599618362537562424,-94.00
2025-06-12 19:21:11.769854,599618362537562424,-65.00
2025-06-12 19:21:11.769854,599618362537562424,-58.00
2025-06-12 19:21:11.769854,599618362537562424,-55.00
2025-06-12 19:21:11.769854,599618362537562424,-41.00
2025-06-12 19:21:11.769854,599618362537562424,-31.00
2025-06-12 19:21:11.769854,599618362537562424,-14.00
2025-06-12 19:21:11.769854,599618362537562424,24.00
2025-06-12 19:21:12.322888,599618363098381537,51.00
2025-06-12 19:21:12.322888,599618363098381537,63.00
2025-06-12 19:21:12.322888,599618363098381537,87.00
2025-06-12 19:21:12.322888,599618363098381537,133.00
2025-06-12 19:21:12.322888,599618363098381537,174.00
2025-06-12 19:21:12.322888,599618363098381537,191.00
2025-06-12 19:21:12.322888,599618363098381537,208.00
2025-06-12 19:21:12.322888,599618363098381537,233.00
2025-06-12 19:21:12.322888,599618363098381537,233.00
2025-06-12 19:21:12.322888,599618363098381537,211.00
2025-06-12 19:21:12.322888,599618363098381537,189.00
2025-06-12 19:21:12.322888,599618363098381537,153.00
2025-06-12 19:21:12.322888,599618363098381537,97.00
2025-06-12 19:21:12.322888,599618363098381537,26.00
2025-06-12 19:21:12.322888,599618363098381537,-51.00
2025-06-12 19:21:12.322888,599618363098381537,-114.00
2025-06-12 19:21:12.322888,599618363098381537,-162.00
2025-06-12 19:21:12.322888,599618363098381537,-211.00
2025-06-12 19:21:12.322888,599618363098381537,-235.00
2025-06-12 19:21:12.322888,599618363098381537,-235.00
2025-06-12 19:21:12.322888,599618363098381537,-235.00
2025-06-12 19:21:12.322888,599618363098381537,-240.00
2025-06-12 19:21:12.322888,599618363098381537,-235.00
2025-06-12 19:21:12.322888,599618363098381537,-221.00
2025-06-12 19:21:12.322888,599618363098381537,-206.00
2025-06-12 19:21:12.322888,599618363098381537,-196.00
2025-06-12 19:21:12.322888,599618363098381537,-182.00
2025-06-12 19:21:12.322888,599618363098381537,-179.00
2025-06-12 19:21:12.322888,599618363098381537,-174.00
2025-06-12 19:21:12.322888,599618363098381537,-157.00
2025-06-12 19:21:12.322888,599618363098381537,-150.00
2025-06-12 19:21:12.322888,599618363098381537,-155.00
2025-06-12 19:21:12.322888,599618363098381537,-155.00
2025-06-12 19:21:12.322888,599618363098381537,-155.00
2025-06-12 19:21:12.322888,599618363098381537,-145.00
2025-06-12 19:21:12.322888,599618363098381537,-136.00
2025-06-12 19:21:12.322888,599618363098381537,-136.00
2025-06-12 19:21:12.322888,599618363098381537,-148.00
2025-06-12 19:21:12.322888,599618363098381537,-150.00
2025-06-12 19:21:12.322888,599618363098381537,-131.00
2025-06-12 19:21:12.322888,599618363098381537,-128.00
2025-06-12 19:21:12.322888,599618363098381537,-140.00
2025-06-12 19:21:12.322888,599618363098381537,-140.00
2025-06-12 19:21:12.322888,599618363098381537,-131.00
2025-06-12 19:21:12.322888,599618363098381537,-131.00
2025-06-12 19:21:12.322888,599618363098381537,-119.00
2025-06-12 19:21:12.322888,599618363098381537,-114.00
2025-06-12 19:21:12.322888,599618363098381537,-126.00
2025-06-12 19:21:12.322888,599618363098381537,-123.00
2025-06-12 19:21:12.322888,599618363098381537,-109.00
2025-06-12 19:21:12.322888,599618363098381537,-109.00
2025-06-12 19:21:12.322888,599618363098381537,-119.00
2025-06-12 19:21:12.322888,599618363098381537,-111.00
2025-06-12 19:21:12.322888,599618363098381537,-102.00
2025-06-12 19:21:12.322888,599618363098381537,-109.00
2025-06-12 19:21:12.322888,599618363098381537,-109.00
2025-06-12 19:21:12.322888,599618363098381537,-94.00
2025-06-12 19:21:12.322888,599618363098381537,-87.00
2025-06-12 19:21:12.322888,599618363098381537,-92.00
2025-06-12 19:21:12.322888,599618363098381537,-87.00
2025-06-12 19:21:12.322888,599618363098381537,-85.00
2025-06-12 19:21:12.322888,599618363098381537,-92.00
2025-06-12 19:21:12.322888,599618363098381537,-99.00
2025-06-12 19:21:12.322888,599618363098381537,-106.00
2025-06-12 19:21:12.322888,599618363098381537,-106.00
2025-06-12 19:21:12.322888,599618363098381537,-94.00
2025-06-12 19:21:12.322888,599618363098381537,-80.00
2025-06-12 19:21:12.322888,599618363098381537,-63.00
2025-06-12 19:21:12.322888,599618363098381537,-46.00
2025-06-12 19:21:12.322888,599618363098381537,-51.00
2025-06-12 19:21:12.322888,599618363098381537,-77.00
2025-06-12 19:21:12.322888,599618363098381537,-77.00
2025-06-12 19:21:12.322888,599618363098381537,-60.00
2025-06-12 19:21:12.880920,599618363659200650,-63.00
2025-06-12 19:21:12.880920,599618363659200650,-72.00
2025-06-12 19:21:12.880920,599618363659200650,-68.00
2025-06-12 19:21:12.880920,599618363659200650,-58.00
2025-06-12 19:21:12.880920,599618363659200650,-58.00
2025-06-12 19:21:12.880920,599618363659200650,-65.00
2025-06-12 19:21:12.880920,599618363659200650,-60.00
2025-06-12 19:21:12.880920,599618363659200650,-51.00
2025-06-12 19:21:12.880920,599618363659200650,-53.00
2025-06-12 19:21:12.880920,599618363659200650,-63.00
2025-06-12 19:21:12.880920,599618363659200650,-24.00
2025-06-12 19:21:12.880920,599618363659200650,289.00
2025-06-12 19:21:12.880920,599618363659200650,932.00
2025-06-12 19:21:12.880920,599618363659200650,1513.00
2025-06-12 19:21:12.880920,599618363659200650,1576.00
2025-06-12 19:21:12.880920,599618363659200650,857.00
2025-06-12 19:21:12.880920,599618363659200650,-187.00
2025-06-12 19:21:12.880920,599618363659200650,-478.00
2025-06-12 19:21:12.880920,599618363659200650,-123.00
2025-06-12 19:21:12.880920,599618363659200650,-80.00
2025-06-12 19:21:12.880920,599618363659200650,-233.00
2025-06-12 19:21:12.880920,599618363659200650,-165.00
2025-06-12 19:21:12.880920,599618363659200650,-109.00
2025-06-12 19:21:12.880920,599618363659200650,-145.00
2025-06-12 19:21:12.880920,599618363659200650,-128.00
2025-06-12 19:21:12.880920,599618363659200650,-99.00
2025-06-12 19:21:12.880920,599618363659200650,-109.00
2025-06-12 19:21:12.880920,599618363659200650,-102.00
2025-06-12 19:21:12.880920,599618363659200650,-75.00
2025-06-12 19:21:12.880920,599618363659200650,-51.00
2025-06-12 19:21:12.880920,599618363659200650,-36.00
2025-06-12 19:21:12.880920,599618363659200650,-26.00
2025-06-12 19:21:12.880920,599618363659200650,-14.00
2025-06-12 19:21:12.880920,599618363659200650,4.00
2025-06-12 19:21:12.880920,599618363659200650,26.00
2025-06-12 19:21:12.880920,599618363659200650,51.00
2025-06-12 19:21:12.880920,599618363659200650,75.00
2025-06-12 19:21:12.880920,599618363659200650,104.00
2025-06-12 19:21:12.880920,599618363659200650,145.00
2025-06-12 19:21:12.880920,599618363659200650,179.00
2025-06-12 19:21:12.880920,599618363659200650,194.00
2025-06-12 19:21:12.880920,599618363659200650,208.00
2025-06-12 19:21:12.880920,599618363659200650,216.00
2025-06-12 19:21:12.880920,599618363659200650,213.00
2025-06-12 19:21:12.880920,599618363659200650,208.00
2025-06-12 19:21:12.880920,599618363659200650,179.00
2025-06-12 19:21:12.880920,599618363659200650,133.00
2025-06-12 19:21:12.880920,599618363659200650,77.00
2025-06-12 19:21:12.880920,599618363659200650,9.00
2025-06-12 19:21:12.880920,599618363659200650,-63.00
2025-06-12 19:21:12.880920,599618363659200650,-126.00
2025-06-12 19:21:12.880920,599618363659200650,-187.00
2025-06-12 19:21:12.880920,599618363659200650,-223.00
2025-06-12 19:21:12.880920,599618363659200650,-230.00
2025-06-12 19:21:12.880920,599618363659200650,-228.00
2025-06-12 19:21:12.880920,599618363659200650,-223.00
2025-06-12 19:21:12.880920,599618363659200650,-223.00
2025-06-12 19:21:12.880920,599618363659200650,-223.00
2025-06-12 19:21:12.880920,599618363659200650,-216.00
2025-06-12 19:21:12.880920,599618363659200650,-206.00
2025-06-12 19:21:12.880920,599618363659200650,-191.00
2025-06-12 19:21:12.880920,599618363659200650,-177.00
2025-06-12 19:21:12.880920,599618363659200650,-172.00
2025-06-12 19:21:12.880920,599618363659200650,-167.00
2025-06-12 19:21:12.880920,599618363659200650,-157.00
2025-06-12 19:21:12.880920,599618363659200650,-153.00
2025-06-12 19:21:12.880920,599618363659200650,-150.00
2025-06-12 19:21:12.880920,599618363659200650,-145.00
2025-06-12 19:21:12.880920,599618363659200650,-143.00
2025-06-12 19:21:12.880920,599618363659200650,-150.00
2025-06-12 19:21:12.880920,599618363659200650,-153.00
2025-06-12 19:21:12.880920,599618363659200650,-143.00
2025-06-12 19:21:12.880920,599618363659200650,-133.00
2025-06-12 19:21:13.476004,599618364220019765,-136.00
2025-06-12 19:21:13.476004,599618364220019765,-140.00
2025-06-12 19:21:13.476004,599618364220019765,-138.00
2025-06-12 19:21:13.476004,599618364220019765,-133.00
2025-06-12 19:21:13.476004,599618364220019765,-131.00
2025-06-12 19:21:13.476004,599618364220019765,-126.00
2025-06-12 19:21:13.476004,599618364220019765,-126.00
2025-06-12 19:21:13.476004,599618364220019765,-126.00
2025-06-12 19:21:13.476004,599618364220019765,-121.00
2025-06-12 19:21:13.476004,599618364220019765,-116.00
2025-06-12 19:21:13.476004,599618364220019765,-119.00
2025-06-12 19:21:13.476004,599618364220019765,-119.00
2025-06-12 19:21:13.476004,599618364220019765,-106.00
2025-06-12 19:21:13.476004,599618364220019765,-102.00
2025-06-12 19:21:13.476004,599618364220019765,-114.00
2025-06-12 19:21:13.476004,599618364220019765,-123.00
2025-06-12 19:21:13.476004,599618364220019765,-109.00
2025-06-12 19:21:13.476004,599618364220019765,-89.00
2025-06-12 19:21:13.476004,599618364220019765,-97.00
2025-06-12 19:21:13.476004,599618364220019765,-106.00
2025-06-12 19:21:13.476004,599618364220019765,-102.00
2025-06-12 19:21:13.476004,599618364220019765,-111.00
2025-06-12 19:21:13.476004,599618364220019765,-123.00
2025-06-12 19:21:13.476004,599618364220019765,-114.00
2025-06-12 19:21:13.476004,599618364220019765,-102.00
2025-06-12 19:21:13.476004,599618364220019765,-87.00
2025-06-12 19:21:13.476004,599618364220019765,-58.00
2025-06-12 19:21:13.476004,599618364220019765,-48.00
2025-06-12 19:21:13.476004,599618364220019765,-70.00
2025-06-12 19:21:13.476004,599618364220019765,-82.00
2025-06-12 19:21:13.476004,599618364220019765,-72.00
2025-06-12 19:21:13.476004,599618364220019765,-68.00
2025-06-12 19:21:13.476004,599618364220019765,-72.00
2025-06-12 19:21:13.476004,599618364220019765,-68.00
2025-06-12 19:21:13.476004,599618364220019765,-65.00
2025-06-12 19:21:13.476004,599618364220019765,-70.00
2025-06-12 19:21:13.476004,599618364220019765,-77.00
2025-06-12 19:21:13.476004,599618364220019765,-70.00
2025-06-12 19:21:13.476004,599618364220019765,-58.00
2025-06-12 19:21:13.476004,599618364220019765,-58.00
2025-06-12 19:21:13.476004,599618364220019765,-72.00
2025-06-12 19:21:13.476004,599618364220019765,-77.00
2025-06-12 19:21:13.476004,599618364220019765,99.00
2025-06-12 19:21:13.476004,599618364220019765,629.00
2025-06-12 19:21:13.476004,599618364220019765,1294.00
2025-06-12 19:21:13.476004,599618364220019765,1629.00
2025-06-12 19:21:13.476004,599618364220019765,1221.00
2025-06-12 19:21:13.476004,599618364220019765,160.00
2025-06-12 19:21:13.476004,599618364220019765,-497.00
2025-06-12 19:21:13.476004,599618364220019765,-257.00
2025-06-12 19:21:13.476004,599618364220019765,-51.00
2025-06-12 19:21:13.476004,599618364220019765,-201.00
2025-06-12 19:21:13.476004,599618364220019765,-206.00
2025-06-12 19:21:13.476004,599618364220019765,-119.00
2025-06-12 19:21:13.476004,599618364220019765,-155.00
2025-06-12 19:21:13.476004,599618364220019765,-170.00
2025-06-12 19:21:13.476004,599618364220019765,-119.00
2025-06-12 19:21:13.476004,599618364220019765,-102.00
2025-06-12 19:21:13.476004,599618364220019765,-111.00
2025-06-12 19:21:13.476004,599618364220019765,-92.00
2025-06-12 19:21:13.476004,599618364220019765,-70.00
2025-06-12 19:21:13.476004,599618364220019765,-68.00
2025-06-12 19:21:13.476004,599618364220019765,-53.00
2025-06-12 19:21:13.476004,599618364220019765,-29.00
2025-06-12 19:21:13.476004,599618364220019765,-12.00
2025-06-12 19:21:13.476004,599618364220019765,-2.00
2025-06-12 19:21:13.476004,599618364220019765,14.00
2025-06-12 19:21:13.476004,599618364220019765,48.00
2025-06-12 19:21:13.476004,599618364220019765,89.00
2025-06-12 19:21:13.476004,599618364220019765,116.00
2025-06-12 19:21:13.476004,599618364220019765,140.00
2025-06-12 19:21:13.476004,599618364220019765,170.00
2025-06-12 19:21:13.476004,599618364220019765,194.00
2025-06-12 19:21:14.017822,599618364780818532,201.00
2025-06-12 19:21:14.017822,599618364780818532,199.00
2025-06-12 19:21:14.017822,599618364780818532,187.00
2025-06-12 19:21:14.017822,599618364780818532,177.00
2025-06-12 19:21:14.017822,599618364780818532,153.00
2025-06-12 19:21:14.017822,599618364780818532,97.00
2025-06-12 19:21:14.017822,599618364780818532,26.00
2025-06-12 19:21:14.017822,599618364780818532,-48.00
2025-06-12 19:21:14.017822,599618364780818532,-119.00
2025-06-12 19:21:14.017822,599618364780818532,-165.00
2025-06-12 19:21:14.017822,599618364780818532,-201.00
2025-06-12 19:21:14.017822,599618364780818532,-225.00
2025-06-12 19:21:14.017822,599618364780818532,-233.00
2025-06-12 19:21:14.017822,599618364780818532,-230.00
2025-06-12 19:21:14.017822,599618364780818532,-228.00
2025-06-12 19:21:14.017822,599618364780818532,-218.00
2025-06-12 19:21:14.017822,599618364780818532,-208.00
2025-06-12 19:21:14.017822,599618364780818532,-206.00
2025-06-12 19:21:14.017822,599618364780818532,-199.00
2025-06-12 19:21:14.017822,599618364780818532,-184.00
2025-06-12 19:21:14.017822,599618364780818532,-165.00
2025-06-12 19:21:14.017822,599618364780818532,-160.00
2025-06-12 19:21:14.017822,599618364780818532,-160.00
2025-06-12 19:21:14.017822,599618364780818532,-160.00
2025-06-12 19:21:14.017822,599618364780818532,-153.00
2025-06-12 19:21:14.017822,599618364780818532,-138.00
2025-06-12 19:21:14.017822,599618364780818532,-133.00
2025-06-12 19:21:14.017822,599618364780818532,-133.00
2025-06-12 19:21:14.017822,599618364780818532,-131.00
2025-06-12 19:21:14.017822,599618364780818532,-131.00
2025-06-12 19:21:14.017822,599618364780818532,-136.00
2025-06-12 19:21:14.017822,599618364780818532,-136.00
2025-06-12 19:21:14.017822,599618364780818532,-131.00
2025-06-12 19:21:14.017822,599618364780818532,-131.00
2025-06-12 19:21:14.017822,599618364780818532,-136.00
2025-06-12 19:21:14.017822,599618364780818532,-131.00
2025-06-12 19:21:14.017822,599618364780818532,-131.00
2025-06-12 19:21:14.017822,599618364780818532,-133.00
2025-06-12 19:21:14.017822,599618364780818532,-126.00
2025-06-12 19:21:14.017822,599618364780818532,-121.00
2025-06-12 19:21:14.017822,599618364780818532,-123.00
2025-06-12 19:21:14.017822,599618364780818532,-119.00
2025-06-12 19:21:14.017822,599618364780818532,-106.00
2025-06-12 19:21:14.017822,599618364780818532,-102.00
2025-06-12 19:21:14.017822,599618364780818532,-106.00
2025-06-12 19:21:14.017822,599618364780818532,-109.00
2025-06-12 19:21:14.017822,599618364780818532,-109.00
2025-06-12 19:21:14.017822,599618364780818532,-114.00
2025-06-12 19:21:14.017822,599618364780818532,-119.00
2025-06-12 19:21:14.017822,599618364780818532,-114.00
2025-06-12 19:21:14.017822,599618364780818532,-116.00
2025-06-12 19:21:14.017822,599618364780818532,-121.00
2025-06-12 19:21:14.017822,599618364780818532,-121.00
2025-06-12 19:21:14.017822,599618364780818532,-109.00
2025-06-12 19:21:14.017822,599618364780818532,-77.00
2025-06-12 19:21:14.017822,599618364780818532,-43.00
2025-06-12 19:21:14.017822,599618364780818532,-43.00
2025-06-12 19:21:14.017822,599618364780818532,-75.00
2025-06-12 19:21:14.017822,599618364780818532,-92.00
2025-06-12 19:21:14.017822,599618364780818532,-80.00
2025-06-12 19:21:14.017822,599618364780818532,-65.00
2025-06-12 19:21:14.017822,599618364780818532,-65.00
2025-06-12 19:21:14.017822,599618364780818532,-75.00
2025-06-12 19:21:14.017822,599618364780818532,-68.00
2025-06-12 19:21:14.017822,599618364780818532,-68.00
2025-06-12 19:21:14.017822,599618364780818532,-85.00
2025-06-12 19:21:14.017822,599618364780818532,-77.00
2025-06-12 19:21:14.017822,599618364780818532,-58.00
2025-06-12 19:21:14.017822,599618364780818532,-63.00
2025-06-12 19:21:14.017822,599618364780818532,-75.00
2025-06-12 19:21:14.017822,599618364780818532,-65.00
2025-06-12 19:21:14.017822,599618364780818532,87.00
2025-06-12 19:21:14.017822,599618364780818532,590.00
2025-06-12 19:21:14.592574,599618365341642731,1268.00
2025-06-12 19:21:14.592574,599618365341642731,1642.00
2025-06-12 19:21:14.592574,599618365341642731,1294.00
2025-06-12 19:21:14.592574,599618365341642731,257.00
2025-06-12 19:21:14.592574,599618365341642731,-478.00
2025-06-12 19:21:14.592574,599618365341642731,-293.00
2025-06-12 19:21:14.592574,599618365341642731,-48.00
2025-06-12 19:21:14.592574,599618365341642731,-194.00
2025-06-12 19:21:14.592574,599618365341642731,-216.00
2025-06-12 19:21:14.592574,599618365341642731,-111.00
2025-06-12 19:21:14.592574,599618365341642731,-138.00
2025-06-12 19:21:14.592574,599618365341642731,-162.00
2025-06-12 19:21:14.592574,599618365341642731,-114.00
2025-06-12 19:21:14.592574,599618365341642731,-104.00
2025-06-12 19:21:14.592574,599618365341642731,-104.00
2025-06-12 19:21:14.592574,599618365341642731,-75.00
2025-06-12 19:21:14.592574,599618365341642731,-63.00
2025-06-12 19:21:14.592574,599618365341642731,-68.00
2025-06-12 19:21:14.592574,599618365341642731,-46.00
2025-06-12 19:21:14.592574,599618365341642731,-19.00
2025-06-12 19:21:14.592574,599618365341642731,-4.00
2025-06-12 19:21:14.592574,599618365341642731,17.00
2025-06-12 19:21:14.592574,599618365341642731,38.00
2025-06-12 19:21:14.592574,599618365341642731,70.00
2025-06-12 19:21:14.592574,599618365341642731,102.00
2025-06-12 19:21:14.592574,599618365341642731,126.00
2025-06-12 19:21:14.592574,599618365341642731,155.00
2025-06-12 19:21:14.592574,599618365341642731,182.00
2025-06-12 19:21:14.592574,599618365341642731,204.00
2025-06-12 19:21:14.592574,599618365341642731,216.00
2025-06-12 19:21:14.592574,599618365341642731,213.00
2025-06-12 19:21:14.592574,599618365341642731,208.00
2025-06-12 19:21:14.592574,599618365341642731,201.00
2025-06-12 19:21:14.592574,599618365341642731,165.00
2025-06-12 19:21:14.592574,599618365341642731,106.00
2025-06-12 19:21:14.592574,599618365341642731,36.00
2025-06-12 19:21:14.592574,599618365341642731,-38.00
2025-06-12 19:21:14.592574,599618365341642731,-111.00
2025-06-12 19:21:14.592574,599618365341642731,-170.00
2025-06-12 19:21:14.592574,599618365341642731,-204.00
2025-06-12 19:21:14.592574,599618365341642731,-230.00
2025-06-12 19:21:14.592574,599618365341642731,-245.00
2025-06-12 19:21:14.592574,599618365341642731,-233.00
2025-06-12 19:21:14.592574,599618365341642731,-216.00
2025-06-12 19:21:14.592574,599618365341642731,-218.00
2025-06-12 19:21:14.592574,599618365341642731,-225.00
2025-06-12 19:21:14.592574,599618365341642731,-213.00
2025-06-12 19:21:14.592574,599618365341642731,-187.00
2025-06-12 19:21:14.592574,599618365341642731,-177.00
2025-06-12 19:21:14.592574,599618365341642731,-177.00
2025-06-12 19:21:14.592574,599618365341642731,-167.00
2025-06-12 19:21:14.592574,599618365341642731,-148.00
2025-06-12 19:21:14.592574,599618365341642731,-128.00
2025-06-12 19:21:14.592574,599618365341642731,-136.00
2025-06-12 19:21:14.592574,599618365341642731,-148.00
2025-06-12 19:21:14.592574,599618365341642731,-143.00
2025-06-12 19:21:14.592574,599618365341642731,-148.00
2025-06-12 19:21:14.592574,599618365341642731,-150.00
2025-06-12 19:21:14.592574,599618365341642731,-138.00
2025-06-12 19:21:14.592574,599618365341642731,-150.00
2025-06-12 19:21:14.592574,599618365341642731,-153.00
2025-06-12 19:21:14.592574,599618365341642731,-109.00
2025-06-12 19:21:14.592574,599618365341642731,-97.00
2025-06-12 19:21:14.592574,599618365341642731,-123.00
2025-06-12 19:21:14.592574,599618365341642731,-126.00
2025-06-12 19:21:14.592574,599618365341642731,-116.00
2025-06-12 19:21:14.592574,599618365341642731,-136.00
2025-06-12 19:21:14.592574,599618365341642731,-153.00
2025-06-12 19:21:14.592574,599618365341642731,-153.00
2025-06-12 19:21:14.592574,599618365341642731,-138.00
2025-06-12 19:21:14.592574,599618365341642731,-109.00
2025-06-12 19:21:14.592574,599618365341642731,-106.00
2025-06-12 19:21:14.592574,599618365341642731,-126.00
2025-06-12 19:21:15.128960,599618365902446586,-111.00
2025-06-12 19:21:15.128960,599618365902446586,-102.00
2025-06-12 19:21:15.128960,599618365902446586,-121.00
2025-06-12 19:21:15.128960,599618365902446586,-116.00
2025-06-12 19:21:15.128960,599618365902446586,-94.00
2025-06-12 19:21:15.128960,599618365902446586,-94.00
2025-06-12 19:21:15.128960,599618365902446586,-99.00
2025-06-12 19:21:15.128960,599618365902446586,-94.00
2025-06-12 19:21:15.128960,599618365902446586,-85.00
2025-06-12 19:21:15.128960,599618365902446586,-68.00
2025-06-12 19:21:15.128960,599618365902446586,-53.00
2025-06-12 19:21:15.128960,599618365902446586,-60.00
2025-06-12 19:21:15.128960,599618365902446586,-82.00
2025-06-12 19:21:15.128960,599618365902446586,-92.00
2025-06-12 19:21:15.128960,599618365902446586,-77.00
2025-06-12 19:21:15.128960,599618365902446586,-70.00
2025-06-12 19:21:15.128960,599618365902446586,-82.00
2025-06-12 19:21:15.128960,599618365902446586,-77.00
2025-06-12 19:21:15.128960,599618365902446586,-63.00
2025-06-12 19:21:15.128960,599618365902446586,-58.00
2025-06-12 19:21:15.128960,599618365902446586,123.00
2025-06-12 19:21:15.128960,599618365902446586,670.00
2025-06-12 19:21:15.128960,599618365902446586,1285.00
2025-06-12 19:21:15.128960,599618365902446586,1510.00
2025-06-12 19:21:15.128960,599618365902446586,1085.00
2025-06-12 19:21:15.128960,599618365902446586,89.00
2025-06-12 19:21:15.128960,599618365902446586,-534.00
2025-06-12 19:21:15.128960,599618365902446586,-274.00
2025-06-12 19:21:15.128960,599618365902446586,-43.00
2025-06-12 19:21:15.128960,599618365902446586,-208.00
2025-06-12 19:21:15.128960,599618365902446586,-213.00
2025-06-12 19:21:15.128960,599618365902446586,-85.00
2025-06-12 19:21:15.128960,599618365902446586,-99.00
2025-06-12 19:21:15.128960,599618365902446586,-138.00
2025-06-12 19:21:15.128960,599618365902446586,-121.00
2025-06-12 19:21:15.128960,599618365902446586,-114.00
2025-06-12 19:21:15.128960,599618365902446586,-99.00
2025-06-12 19:21:15.128960,599618365902446586,-48.00
2025-06-12 19:21:15.128960,599618365902446586,-21.00
2025-06-12 19:21:15.128960,599618365902446586,-29.00
2025-06-12 19:21:15.128960,599618365902446586,-14.00
2025-06-12 19:21:15.128960,599618365902446586,7.00
2025-06-12 19:21:15.128960,599618365902446586,9.00
2025-06-12 19:21:15.128960,599618365902446586,14.00
2025-06-12 19:21:15.128960,599618365902446586,55.00
2025-06-12 19:21:15.128960,599618365902446586,109.00
2025-06-12 19:21:15.128960,599618365902446586,140.00
2025-06-12 19:21:15.128960,599618365902446586,157.00
2025-06-12 19:21:15.128960,599618365902446586,182.00
2025-06-12 19:21:15.128960,599618365902446586,233.00
2025-06-12 19:21:15.128960,599618365902446586,279.00
2025-06-12 19:21:15.128960,599618365902446586,269.00
2025-06-12 19:21:15.128960,599618365902446586,242.00
2025-06-12 19:21:15.128960,599618365902446586,238.00
2025-06-12 19:21:15.128960,599618365902446586,223.00
2025-06-12 19:21:15.128960,599618365902446586,160.00
2025-06-12 19:21:15.128960,599618365902446586,87.00
2025-06-12 19:21:15.128960,599618365902446586,19.00
2025-06-12 19:21:15.128960,599618365902446586,-65.00
2025-06-12 19:21:15.128960,599618365902446586,-143.00
2025-06-12 19:21:15.128960,599618365902446586,-187.00
2025-06-12 19:21:15.128960,599618365902446586,-225.00
2025-06-12 19:21:15.128960,599618365902446586,-267.00
2025-06-12 19:21:15.128960,599618365902446586,-279.00
2025-06-12 19:21:15.128960,599618365902446586,-262.00
2025-06-12 19:21:15.128960,599618365902446586,-240.00
2025-06-12 19:21:15.128960,599618365902446586,-230.00
2025-06-12 19:21:15.128960,599618365902446586,-223.00
2025-06-12 19:21:15.128960,599618365902446586,-216.00
2025-06-12 19:21:15.128960,599618365902446586,-211.00
2025-06-12 19:21:15.128960,599618365902446586,-204.00
2025-06-12 19:21:15.128960,599618365902446586,-196.00
2025-06-12 19:21:15.128960,599618365902446586,-184.00
2025-06-12 19:21:15.698625,599618366463265699,-148.00
2025-06-12 19:21:15.698625,599618366463265699,-121.00
2025-06-12 19:21:15.698625,599618366463265699,-131.00
2025-06-12 19:21:15.698625,599618366463265699,-143.00
2025-06-12 19:21:15.698625,599618366463265699,-136.00
2025-06-12 19:21:15.698625,599618366463265699,-126.00
2025-06-12 19:21:15.698625,599618366463265699,-128.00
2025-06-12 19:21:15.698625,599618366463265699,-140.00
2025-06-12 19:21:15.698625,599618366463265699,-136.00
2025-06-12 19:21:15.698625,599618366463265699,-116.00
2025-06-12 19:21:15.698625,599618366463265699,-123.00
2025-06-12 19:21:15.698625,599618366463265699,-136.00
2025-06-12 19:21:15.698625,599618366463265699,-131.00
2025-06-12 19:21:15.698625,599618366463265699,-136.00
2025-06-12 19:21:15.698625,599618366463265699,-140.00
2025-06-12 19:21:15.698625,599618366463265699,-136.00
2025-06-12 19:21:15.698625,599618366463265699,-126.00
2025-06-12 19:21:15.698625,599618366463265699,-121.00
2025-06-12 19:21:15.698625,599618366463265699,-123.00
2025-06-12 19:21:15.698625,599618366463265699,-116.00
2025-06-12 19:21:15.698625,599618366463265699,-94.00
2025-06-12 19:21:15.698625,599618366463265699,-89.00
2025-06-12 19:21:15.698625,599618366463265699,-106.00
2025-06-12 19:21:15.698625,599618366463265699,-106.00
2025-06-12 19:21:15.698625,599618366463265699,-97.00
2025-06-12 19:21:15.698625,599618366463265699,-99.00
2025-06-12 19:21:15.698625,599618366463265699,-99.00
2025-06-12 19:21:15.698625,599618366463265699,-80.00
2025-06-12 19:21:15.698625,599618366463265699,-65.00
2025-06-12 19:21:15.698625,599618366463265699,-75.00
2025-06-12 19:21:15.698625,599618366463265699,-94.00
2025-06-12 19:21:15.698625,599618366463265699,-97.00
2025-06-12 19:21:15.698625,599618366463265699,-92.00
2025-06-12 19:21:15.698625,599618366463265699,-82.00
2025-06-12 19:21:15.698625,599618366463265699,-63.00
2025-06-12 19:21:15.698625,599618366463265699,-58.00
2025-06-12 19:21:15.698625,599618366463265699,53.00
2025-06-12 19:21:15.698625,599618366463265699,531.00
2025-06-12 19:21:15.698625,599618366463265699,1183.00
2025-06-12 19:21:15.698625,599618366463265699,1515.00
2025-06-12 19:21:15.698625,599618366463265699,1214.00
2025-06-12 19:21:15.698625,599618366463265699,259.00
2025-06-12 19:21:15.698625,599618366463265699,-488.00
2025-06-12 19:21:15.698625,599618366463265699,-332.00
2025-06-12 19:21:15.698625,599618366463265699,-51.00
2025-06-12 19:21:15.698625,599618366463265699,-182.00
2025-06-12 19:21:15.698625,599618366463265699,-228.00
2025-06-12 19:21:15.698625,599618366463265699,-119.00
2025-06-12 19:21:15.698625,599618366463265699,-148.00
2025-06-12 19:21:15.698625,599618366463265699,-182.00
2025-06-12 19:21:15.698625,599618366463265699,-114.00
2025-06-12 19:21:15.698625,599618366463265699,-77.00
2025-06-12 19:21:15.698625,599618366463265699,-94.00
2025-06-12 19:21:15.698625,599618366463265699,-89.00
2025-06-12 19:21:15.698625,599618366463265699,-58.00
2025-06-12 19:21:15.698625,599618366463265699,-53.00
2025-06-12 19:21:15.698625,599618366463265699,-53.00
2025-06-12 19:21:15.698625,599618366463265699,-21.00
2025-06-12 19:21:15.698625,599618366463265699,7.00
2025-06-12 19:21:15.698625,599618366463265699,14.00
2025-06-12 19:21:15.698625,599618366463265699,26.00
2025-06-12 19:21:15.698625,599618366463265699,60.00
2025-06-12 19:21:15.698625,599618366463265699,109.00
2025-06-12 19:21:15.698625,599618366463265699,148.00
2025-06-12 19:21:15.698625,599618366463265699,167.00
2025-06-12 19:21:15.698625,599618366463265699,194.00
2025-06-12 19:21:15.698625,599618366463265699,228.00
2025-06-12 19:21:15.698625,599618366463265699,235.00
2025-06-12 19:21:15.698625,599618366463265699,218.00
2025-06-12 19:21:15.698625,599618366463265699,201.00
2025-06-12 19:21:15.698625,599618366463265699,182.00
2025-06-12 19:21:15.698625,599618366463265699,138.00
2025-06-12 19:21:15.698625,599618366463265699,70.00
2025-06-12 19:21:16.237817,599618367024084812,-4.00
2025-06-12 19:21:16.237817,599618367024084812,-77.00
2025-06-12 19:21:16.237817,599618367024084812,-148.00
2025-06-12 19:21:16.237817,599618367024084812,-204.00
2025-06-12 19:21:16.237817,599618367024084812,-230.00
2025-06-12 19:21:16.237817,599618367024084812,-240.00
2025-06-12 19:21:16.237817,599618367024084812,-247.00
2025-06-12 19:21:16.237817,599618367024084812,-252.00
2025-06-12 19:21:16.237817,599618367024084812,-238.00
2025-06-12 19:21:16.237817,599618367024084812,-216.00
2025-06-12 19:21:16.237817,599618367024084812,-213.00
2025-06-12 19:21:16.237817,599618367024084812,-208.00
2025-06-12 19:21:16.237817,599618367024084812,-194.00
2025-06-12 19:21:16.237817,599618367024084812,-191.00
2025-06-12 19:21:16.237817,599618367024084812,-179.00
2025-06-12 19:21:16.237817,599618367024084812,-157.00
2025-06-12 19:21:16.237817,599618367024084812,-148.00
2025-06-12 19:21:16.237817,599618367024084812,-155.00
2025-06-12 19:21:16.237817,599618367024084812,-150.00
2025-06-12 19:21:16.237817,599618367024084812,-145.00
2025-06-12 19:21:16.237817,599618367024084812,-143.00
2025-06-12 19:21:16.237817,599618367024084812,-140.00
2025-06-12 19:21:16.237817,599618367024084812,-143.00
2025-06-12 19:21:16.237817,599618367024084812,-136.00
2025-06-12 19:21:16.237817,599618367024084812,-123.00
2025-06-12 19:21:16.237817,599618367024084812,-126.00
2025-06-12 19:21:16.237817,599618367024084812,-128.00
2025-06-12 19:21:16.237817,599618367024084812,-126.00
2025-06-12 19:21:16.237817,599618367024084812,-131.00
2025-06-12 19:21:16.237817,599618367024084812,-136.00
2025-06-12 19:21:16.237817,599618367024084812,-138.00
2025-06-12 19:21:16.237817,599618367024084812,-138.00
2025-06-12 19:21:16.237817,599618367024084812,-138.00
2025-06-12 19:21:16.237817,599618367024084812,-140.00
2025-06-12 19:21:16.237817,599618367024084812,-145.00
2025-06-12 19:21:16.237817,599618367024084812,-136.00
2025-06-12 19:21:16.237817,599618367024084812,-104.00
2025-06-12 19:21:16.237817,599618367024084812,-77.00
2025-06-12 19:21:16.237817,599618367024084812,-85.00
2025-06-12 19:21:16.237817,599618367024084812,-106.00
2025-06-12 19:21:16.237817,599618367024084812,-104.00
2025-06-12 19:21:16.237817,599618367024084812,-87.00
2025-06-12 19:21:16.237817,599618367024084812,-80.00
2025-06-12 19:21:16.237817,599618367024084812,-85.00
2025-06-12 19:21:16.237817,599618367024084812,-89.00
2025-06-12 19:21:16.237817,599618367024084812,-89.00
2025-06-12 19:21:16.237817,599618367024084812,-80.00
2025-06-12 19:21:16.237817,599618367024084812,-75.00
2025-06-12 19:21:16.237817,599618367024084812,-80.00
2025-06-12 19:21:16.237817,599618367024084812,-82.00
2025-06-12 19:21:16.237817,599618367024084812,-80.00
2025-06-12 19:21:16.237817,599618367024084812,-89.00
2025-06-12 19:21:16.237817,599618367024084812,-72.00
2025-06-12 19:21:16.237817,599618367024084812,189.00
2025-06-12 19:21:16.237817,599618367024084812,813.00
2025-06-12 19:21:16.237817,599618367024084812,1484.00
2025-06-12 19:21:16.237817,599618367024084812,1710.00
2025-06-12 19:21:16.237817,599618367024084812,1095.00
2025-06-12 19:21:16.237817,599618367024084812,-34.00
2025-06-12 19:21:16.237817,599618367024084812,-507.00
2025-06-12 19:21:16.237817,599618367024084812,-184.00
2025-06-12 19:21:16.237817,599618367024084812,-72.00
2025-06-12 19:21:16.237817,599618367024084812,-233.00
2025-06-12 19:21:16.237817,599618367024084812,-201.00
2025-06-12 19:21:16.237817,599618367024084812,-143.00
2025-06-12 19:21:16.237817,599618367024084812,-172.00
2025-06-12 19:21:16.237817,599618367024084812,-148.00
2025-06-12 19:21:16.237817,599618367024084812,-106.00
2025-06-12 19:21:16.237817,599618367024084812,-119.00
2025-06-12 19:21:16.237817,599618367024084812,-123.00
2025-06-12 19:21:16.237817,599618367024084812,-94.00
2025-06-12 19:21:16.237817,599618367024084812,-82.00
2025-06-12 19:21:16.237817,599618367024084812,-82.00
2025-06-12 19:21:16.836789,599618367584903927,-60.00
2025-06-12 19:21:16.836789,599618367584903927,-36.00
2025-06-12 19:21:16.836789,599618367584903927,-24.00
2025-06-12 19:21:16.836789,599618367584903927,-2.00
2025-06-12 19:21:16.836789,599618367584903927,41.00
2025-06-12 19:21:16.836789,599618367584903927,80.00
2025-06-12 19:21:16.836789,599618367584903927,99.00
2025-06-12 19:21:16.836789,599618367584903927,119.00
2025-06-12 19:21:16.836789,599618367584903927,150.00
2025-06-12 19:21:16.836789,599618367584903927,177.00
2025-06-12 19:21:16.836789,599618367584903927,187.00
2025-06-12 19:21:16.836789,599618367584903927,184.00
2025-06-12 19:21:16.836789,599618367584903927,177.00
2025-06-12 19:21:16.836789,599618367584903927,170.00
2025-06-12 19:21:16.836789,599618367584903927,153.00
2025-06-12 19:21:16.836789,599618367584903927,111.00
2025-06-12 19:21:16.836789,599618367584903927,46.00
2025-06-12 19:21:16.836789,599618367584903927,-21.00
2025-06-12 19:21:16.836789,599618367584903927,-92.00
2025-06-12 19:21:16.836789,599618367584903927,-162.00
2025-06-12 19:21:16.836789,599618367584903927,-201.00
2025-06-12 19:21:16.836789,599618367584903927,-208.00
2025-06-12 19:21:16.836789,599618367584903927,-221.00
2025-06-12 19:21:16.836789,599618367584903927,-242.00
2025-06-12 19:21:16.836789,599618367584903927,-240.00
2025-06-12 19:21:16.836789,599618367584903927,-218.00
2025-06-12 19:21:16.836789,599618367584903927,-201.00
2025-06-12 19:21:16.836789,599618367584903927,-191.00
2025-06-12 19:21:16.836789,599618367584903927,-189.00
2025-06-12 19:21:16.836789,599618367584903927,-182.00
2025-06-12 19:21:16.836789,599618367584903927,-165.00
2025-06-12 19:21:16.836789,599618367584903927,-150.00
2025-06-12 19:21:16.836789,599618367584903927,-150.00
2025-06-12 19:21:16.836789,599618367584903927,-148.00
2025-06-12 19:21:16.836789,599618367584903927,-138.00
2025-06-12 19:21:16.836789,599618367584903927,-138.00
2025-06-12 19:21:16.836789,599618367584903927,-140.00
2025-06-12 19:21:16.836789,599618367584903927,-136.00
2025-06-12 19:21:16.836789,599618367584903927,-128.00
2025-06-12 19:21:16.836789,599618367584903927,-128.00
2025-06-12 19:21:16.836789,599618367584903927,-128.00
2025-06-12 19:21:16.836789,599618367584903927,-123.00
2025-06-12 19:21:16.836789,599618367584903927,-123.00
2025-06-12 19:21:16.836789,599618367584903927,-126.00
2025-06-12 19:21:16.836789,599618367584903927,-123.00
2025-06-12 19:21:16.836789,599618367584903927,-119.00
2025-06-12 19:21:16.836789,599618367584903927,-128.00
2025-06-12 19:21:16.836789,599618367584903927,-133.00
2025-06-12 19:21:16.836789,599618367584903927,-133.00
2025-06-12 19:21:16.836789,599618367584903927,-136.00
2025-06-12 19:21:16.836789,599618367584903927,-133.00
2025-06-12 19:21:16.836789,599618367584903927,-121.00
2025-06-12 19:21:16.836789,599618367584903927,-94.00
2025-06-12 19:21:16.836789,599618367584903927,-75.00
2025-06-12 19:21:16.836789,599618367584903927,-85.00
2025-06-12 19:21:16.836789,599618367584903927,-97.00
2025-06-12 19:21:16.836789,599618367584903927,-85.00
2025-06-12 19:21:16.836789,599618367584903927,-75.00
2025-06-12 19:21:16.836789,599618367584903927,-77.00
2025-06-12 19:21:16.836789,599618367584903927,-80.00
2025-06-12 19:21:16.836789,599618367584903927,-75.00
2025-06-12 19:21:16.836789,599618367584903927,-77.00
2025-06-12 19:21:16.836789,599618367584903927,-80.00
2025-06-12 19:21:16.836789,599618367584903927,-75.00
2025-06-12 19:21:16.836789,599618367584903927,-70.00
2025-06-12 19:21:16.836789,599618367584903927,-68.00
2025-06-12 19:21:16.836789,599618367584903927,-65.00
2025-06-12 19:21:16.836789,599618367584903927,-77.00
2025-06-12 19:21:16.836789,599618367584903927,-38.00
2025-06-12 19:21:16.836789,599618367584903927,281.00
2025-06-12 19:21:16.836789,599618367584903927,932.00
2025-06-12 19:21:16.836789,599618367584903927,1525.00
2025-06-12 19:21:16.836789,599618367584903927,1608.00
2025-06-12 19:21:17.380201,599618368145723040,889.00
2025-06-12 19:21:17.380201,599618368145723040,-187.00
2025-06-12 19:21:17.380201,599618368145723040,-505.00
2025-06-12 19:21:17.380201,599618368145723040,-133.00
2025-06-12 19:21:17.380201,599618368145723040,-77.00
2025-06-12 19:21:17.380201,599618368145723040,-242.00
2025-06-12 19:21:17.380201,599618368145723040,-174.00
2025-06-12 19:21:17.380201,599618368145723040,-102.00
2025-06-12 19:21:17.380201,599618368145723040,-143.00
2025-06-12 19:21:17.380201,599618368145723040,-140.00
2025-06-12 19:21:17.380201,599618368145723040,-106.00
2025-06-12 19:21:17.380201,599618368145723040,-97.00
2025-06-12 19:21:17.380201,599618368145723040,-89.00
2025-06-12 19:21:17.380201,599618368145723040,-70.00
2025-06-12 19:21:17.380201,599618368145723040,-63.00
2025-06-12 19:21:17.380201,599618368145723040,-53.00
2025-06-12 19:21:17.380201,599618368145723040,-26.00
2025-06-12 19:21:17.380201,599618368145723040,-4.00
2025-06-12 19:21:17.380201,599618368145723040,9.00
2025-06-12 19:21:17.380201,599618368145723040,29.00
2025-06-12 19:21:17.380201,599618368145723040,55.00
2025-06-12 19:21:17.380201,599618368145723040,80.00
2025-06-12 19:21:17.380201,599618368145723040,106.00
2025-06-12 19:21:17.380201,599618368145723040,140.00
2025-06-12 19:21:17.380201,599618368145723040,172.00
2025-06-12 19:21:17.380201,599618368145723040,189.00
2025-06-12 19:21:17.380201,599618368145723040,196.00
2025-06-12 19:21:17.380201,599618368145723040,201.00
2025-06-12 19:21:17.380201,599618368145723040,196.00
2025-06-12 19:21:17.380201,599618368145723040,174.00
2025-06-12 19:21:17.380201,599618368145723040,140.00
2025-06-12 19:21:17.380201,599618368145723040,99.00
2025-06-12 19:21:17.380201,599618368145723040,36.00
2025-06-12 19:21:17.380201,599618368145723040,-36.00
2025-06-12 19:21:17.380201,599618368145723040,-104.00
2025-06-12 19:21:17.380201,599618368145723040,-162.00
2025-06-12 19:21:17.380201,599618368145723040,-199.00
2025-06-12 19:21:17.380201,599618368145723040,-216.00
2025-06-12 19:21:17.380201,599618368145723040,-223.00
2025-06-12 19:21:17.380201,599618368145723040,-216.00
2025-06-12 19:21:17.380201,599618368145723040,-204.00
2025-06-12 19:21:17.380201,599618368145723040,-204.00
2025-06-12 19:21:17.380201,599618368145723040,-199.00
2025-06-12 19:21:17.380201,599618368145723040,-179.00
2025-06-12 19:21:17.380201,599618368145723040,-172.00
2025-06-12 19:21:17.380201,599618368145723040,-170.00
2025-06-12 19:21:17.380201,599618368145723040,-157.00
2025-06-12 19:21:17.380201,599618368145723040,-145.00
2025-06-12 19:21:17.380201,599618368145723040,-145.00
2025-06-12 19:21:17.380201,599618368145723040,-143.00
2025-06-12 19:21:17.380201,599618368145723040,-131.00
2025-06-12 19:21:17.380201,599618368145723040,-121.00
2025-06-12 19:21:17.380201,599618368145723040,-121.00
2025-06-12 19:21:17.380201,599618368145723040,-123.00
2025-06-12 19:21:17.380201,599618368145723040,-114.00
2025-06-12 19:21:17.380201,599618368145723040,-114.00
2025-06-12 19:21:17.380201,599618368145723040,-121.00
2025-06-12 19:21:17.380201,599618368145723040,-116.00
2025-06-12 19:21:17.380201,599618368145723040,-116.00
2025-06-12 19:21:17.380201,599618368145723040,-119.00
2025-06-12 19:21:17.380201,599618368145723040,-111.00
2025-06-12 19:21:17.380201,599618368145723040,-109.00
2025-06-12 19:21:17.380201,599618368145723040,-114.00
2025-06-12 19:21:17.380201,599618368145723040,-116.00
2025-06-12 19:21:17.380201,599618368145723040,-121.00
2025-06-12 19:21:17.380201,599618368145723040,-128.00
2025-06-12 19:21:17.380201,599618368145723040,-123.00
2025-06-12 19:21:17.380201,599618368145723040,-116.00
2025-06-12 19:21:17.380201,599618368145723040,-123.00
2025-06-12 19:21:17.380201,599618368145723040,-116.00
2025-06-12 19:21:17.380201,599618368145723040,-77.00
2025-06-12 19:21:17.380201,599618368145723040,-55.00
2025-06-12 19:21:17.380201,599618368145723040,-72.00
2025-06-12 19:21:17.949963,599618368706542153,-94.00
2025-06-12 19:21:17.949963,599618368706542153,-94.00
2025-06-12 19:21:17.949963,599618368706542153,-82.00
2025-06-12 19:21:17.949963,599618368706542153,-80.00
2025-06-12 19:21:17.949963,599618368706542153,-77.00
2025-06-12 19:21:17.949963,599618368706542153,-72.00
2025-06-12 19:21:17.949963,599618368706542153,-72.00
2025-06-12 19:21:17.949963,599618368706542153,-72.00
2025-06-12 19:21:17.949963,599618368706542153,-68.00
2025-06-12 19:21:17.949963,599618368706542153,-65.00
2025-06-12 19:21:17.949963,599618368706542153,-60.00
2025-06-12 19:21:17.949963,599618368706542153,-60.00
2025-06-12 19:21:17.949963,599618368706542153,-75.00
2025-06-12 19:21:17.949963,599618368706542153,-68.00
2025-06-12 19:21:17.949963,599618368706542153,148.00
2025-06-12 19:21:17.949963,599618368706542153,731.00
2025-06-12 19:21:17.949963,599618368706542153,1401.00
2025-06-12 19:21:17.949963,599618368706542153,1688.00
2025-06-12 19:21:17.949963,599618368706542153,1200.00
2025-06-12 19:21:17.949963,599618368706542153,114.00
2025-06-12 19:21:17.949963,599618368706542153,-478.00
2025-06-12 19:21:17.949963,599618368706542153,-204.00
2025-06-12 19:21:17.949963,599618368706542153,-36.00
2025-06-12 19:21:17.949963,599618368706542153,-213.00
2025-06-12 19:21:17.949963,599618368706542153,-201.00
2025-06-12 19:21:17.949963,599618368706542153,-102.00
2025-06-12 19:21:17.949963,599618368706542153,-133.00
2025-06-12 19:21:17.949963,599618368706542153,-148.00
2025-06-12 19:21:17.949963,599618368706542153,-106.00
2025-06-12 19:21:17.949963,599618368706542153,-99.00
2025-06-12 19:21:17.949963,599618368706542153,-104.00
2025-06-12 19:21:17.949963,599618368706542153,-82.00
2025-06-12 19:21:17.949963,599618368706542153,-65.00
2025-06-12 19:21:17.949963,599618368706542153,-55.00
2025-06-12 19:21:17.949963,599618368706542153,-41.00
2025-06-12 19:21:17.949963,599618368706542153,-19.00
2025-06-12 19:21:17.949963,599618368706542153,-2.00
2025-06-12 19:21:17.949963,599618368706542153,17.00
2025-06-12 19:21:17.949963,599618368706542153,41.00
2025-06-12 19:21:17.949963,599618368706542153,63.00
2025-06-12 19:21:17.949963,599618368706542153,85.00
2025-06-12 19:21:17.949963,599618368706542153,114.00
2025-06-12 19:21:17.949963,599618368706542153,138.00
2025-06-12 19:21:17.949963,599618368706542153,165.00
2025-06-12 19:21:17.949963,599618368706542153,184.00
2025-06-12 19:21:17.949963,599618368706542153,194.00
2025-06-12 19:21:17.949963,599618368706542153,189.00
2025-06-12 19:21:17.949963,599618368706542153,170.00
2025-06-12 19:21:17.949963,599618368706542153,140.00
2025-06-12 19:21:17.949963,599618368706542153,94.00
2025-06-12 19:21:17.949963,599618368706542153,34.00
2025-06-12 19:21:17.949963,599618368706542153,-24.00
2025-06-12 19:21:17.949963,599618368706542153,-87.00
2025-06-12 19:21:17.949963,599618368706542153,-153.00
2025-06-12 19:21:17.949963,599618368706542153,-187.00
2025-06-12 19:21:17.949963,599618368706542153,-196.00
2025-06-12 19:21:17.949963,599618368706542153,-211.00
2025-06-12 19:21:17.949963,599618368706542153,-218.00
2025-06-12 19:21:17.949963,599618368706542153,-208.00
2025-06-12 19:21:17.949963,599618368706542153,-204.00
2025-06-12 19:21:17.949963,599618368706542153,-199.00
2025-06-12 19:21:17.949963,599618368706542153,-189.00
2025-06-12 19:21:17.949963,599618368706542153,-179.00
2025-06-12 19:21:17.949963,599618368706542153,-170.00
2025-06-12 19:21:17.949963,599618368706542153,-160.00
2025-06-12 19:21:17.949963,599618368706542153,-157.00
2025-06-12 19:21:17.949963,599618368706542153,-153.00
2025-06-12 19:21:17.949963,599618368706542153,-138.00
2025-06-12 19:21:17.949963,599618368706542153,-131.00
2025-06-12 19:21:17.949963,599618368706542153,-131.00
2025-06-12 19:21:17.949963,599618368706542153,-133.00
2025-06-12 19:21:17.949963,599618368706542153,-131.00
2025-06-12 19:21:17.949963,599618368706542153,-128.00
2025-06-12 19:21:18.518659,599618369267361266,-126.00
2025-06-12 19:21:18.518659,599618369267361266,-128.00
2025-06-12 19:21:18.518659,599618369267361266,-128.00
2025-06-12 19:21:18.518659,599618369267361266,-123.00
2025-06-12 19:21:18.518659,599618369267361266,-121.00
2025-06-12 19:21:18.518659,599618369267361266,-123.00
2025-06-12 19:21:18.518659,599618369267361266,-121.00
2025-06-12 19:21:18.518659,599618369267361266,-121.00
2025-06-12 19:21:18.518659,599618369267361266,-121.00
2025-06-12 19:21:18.518659,599618369267361266,-111.00
2025-06-12 19:21:18.518659,599618369267361266,-106.00
2025-06-12 19:21:18.518659,599618369267361266,-111.00
2025-06-12 19:21:18.518659,599618369267361266,-109.00
2025-06-12 19:21:18.518659,599618369267361266,-106.00
2025-06-12 19:21:18.518659,599618369267361266,-104.00
2025-06-12 19:21:18.518659,599618369267361266,-99.00
2025-06-12 19:21:18.518659,599618369267361266,-99.00
2025-06-12 19:21:18.518659,599618369267361266,-102.00
2025-06-12 19:21:18.518659,599618369267361266,-104.00
2025-06-12 19:21:18.518659,599618369267361266,-114.00
2025-06-12 19:21:18.518659,599618369267361266,-119.00
2025-06-12 19:21:18.518659,599618369267361266,-106.00
2025-06-12 19:21:18.518659,599618369267361266,-77.00
2025-06-12 19:21:18.518659,599618369267361266,-51.00
2025-06-12 19:21:18.518659,599618369267361266,-46.00
2025-06-12 19:21:18.518659,599618369267361266,-65.00
2025-06-12 19:21:18.518659,599618369267361266,-80.00
2025-06-12 19:21:18.518659,599618369267361266,-77.00
2025-06-12 19:21:18.518659,599618369267361266,-72.00
2025-06-12 19:21:18.518659,599618369267361266,-75.00
2025-06-12 19:21:18.518659,599618369267361266,-70.00
2025-06-12 19:21:18.518659,599618369267361266,-65.00
2025-06-12 19:21:18.518659,599618369267361266,-63.00
2025-06-12 19:21:18.518659,599618369267361266,-58.00
2025-06-12 19:21:18.518659,599618369267361266,-58.00
2025-06-12 19:21:18.518659,599618369267361266,-68.00
2025-06-12 19:21:18.518659,599618369267361266,-70.00
2025-06-12 19:21:18.518659,599618369267361266,-65.00
2025-06-12 19:21:18.518659,599618369267361266,-70.00
2025-06-12 19:21:18.518659,599618369267361266,-2.00
2025-06-12 19:21:18.518659,599618369267361266,383.00
2025-06-12 19:21:18.518659,599618369267361266,1061.00
2025-06-12 19:21:18.518659,599618369267361266,1608.00
2025-06-12 19:21:18.518659,599618369267361266,1578.00
2025-06-12 19:21:18.518659,599618369267361266,719.00
2025-06-12 19:21:18.518659,599618369267361266,-301.00
2025-06-12 19:21:18.518659,599618369267361266,-415.00
2025-06-12 19:21:18.518659,599618369267361266,-60.00
2025-06-12 19:21:18.518659,599618369267361266,-114.00
2025-06-12 19:21:18.518659,599618369267361266,-242.00
2025-06-12 19:21:18.518659,599618369267361266,-140.00
2025-06-12 19:21:18.518659,599618369267361266,-116.00
2025-06-12 19:21:18.518659,599618369267361266,-165.00
2025-06-12 19:21:18.518659,599618369267361266,-133.00
2025-06-12 19:21:18.518659,599618369267361266,-102.00
2025-06-12 19:21:18.518659,599618369267361266,-106.00
2025-06-12 19:21:18.518659,599618369267361266,-94.00
2025-06-12 19:21:18.518659,599618369267361266,-77.00
2025-06-12 19:21:18.518659,599618369267361266,-68.00
2025-06-12 19:21:18.518659,599618369267361266,-51.00
2025-06-12 19:21:18.518659,599618369267361266,-31.00
2025-06-12 19:21:18.518659,599618369267361266,-21.00
2025-06-12 19:21:18.518659,599618369267361266,0.00
2025-06-12 19:21:18.518659,599618369267361266,26.00
2025-06-12 19:21:18.518659,599618369267361266,38.00
2025-06-12 19:21:18.518659,599618369267361266,63.00
2025-06-12 19:21:18.518659,599618369267361266,99.00
2025-06-12 19:21:18.518659,599618369267361266,123.00
2025-06-12 19:21:18.518659,599618369267361266,145.00
2025-06-12 19:21:18.518659,599618369267361266,167.00
2025-06-12 19:21:18.518659,599618369267361266,182.00
2025-06-12 19:21:18.518659,599618369267361266,182.00
2025-06-12 19:21:18.518659,599618369267361266,165.00
2025-06-12 19:21:19.056967,599618369828175291,145.00
2025-06-12 19:21:19.056967,599618369828175291,126.00
2025-06-12 19:21:19.056967,599618369828175291,87.00
2025-06-12 19:21:19.056967,599618369828175291,29.00
2025-06-12 19:21:19.056967,599618369828175291,-31.00
2025-06-12 19:21:19.056967,599618369828175291,-92.00
2025-06-12 19:21:19.056967,599618369828175291,-148.00
2025-06-12 19:21:19.056967,599618369828175291,-187.00
2025-06-12 19:21:19.056967,599618369828175291,-211.00
2025-06-12 19:21:19.056967,599618369828175291,-218.00
2025-06-12 19:21:19.056967,599618369828175291,-213.00
2025-06-12 19:21:19.056967,599618369828175291,-206.00
2025-06-12 19:21:19.056967,599618369828175291,-201.00
2025-06-12 19:21:19.056967,599618369828175291,-194.00
2025-06-12 19:21:19.056967,599618369828175291,-179.00
2025-06-12 19:21:19.056967,599618369828175291,-167.00
2025-06-12 19:21:19.056967,599618369828175291,-157.00
2025-06-12 19:21:19.056967,599618369828175291,-155.00
2025-06-12 19:21:19.056967,599618369828175291,-148.00
2025-06-12 19:21:19.056967,599618369828175291,-140.00
2025-06-12 19:21:19.056967,599618369828175291,-143.00
2025-06-12 19:21:19.056967,599618369828175291,-143.00
2025-06-12 19:21:19.056967,599618369828175291,-133.00
2025-06-12 19:21:19.056967,599618369828175291,-131.00
2025-06-12 19:21:19.056967,599618369828175291,-131.00
2025-06-12 19:21:19.056967,599618369828175291,-128.00
2025-06-12 19:21:19.056967,599618369828175291,-128.00
2025-06-12 19:21:19.056967,599618369828175291,-126.00
2025-06-12 19:21:19.056967,599618369828175291,-123.00
2025-06-12 19:21:19.056967,599618369828175291,-123.00
2025-06-12 19:21:19.056967,599618369828175291,-123.00
2025-06-12 19:21:19.056967,599618369828175291,-123.00
2025-06-12 19:21:19.056967,599618369828175291,-128.00
2025-06-12 19:21:19.056967,599618369828175291,-126.00
2025-06-12 19:21:19.056967,599618369828175291,-119.00
2025-06-12 19:21:19.056967,599618369828175291,-114.00
2025-06-12 19:21:19.056967,599618369828175291,-116.00
2025-06-12 19:21:19.056967,599618369828175291,-114.00
2025-06-12 19:21:19.056967,599618369828175291,-106.00
2025-06-12 19:21:19.056967,599618369828175291,-102.00
2025-06-12 19:21:19.056967,599618369828175291,-104.00
2025-06-12 19:21:19.056967,599618369828175291,-106.00
2025-06-12 19:21:19.056967,599618369828175291,-99.00
2025-06-12 19:21:19.056967,599618369828175291,-97.00
2025-06-12 19:21:19.056967,599618369828175291,-99.00
2025-06-12 19:21:19.056967,599618369828175291,-104.00
2025-06-12 19:21:19.056967,599618369828175291,-109.00
2025-06-12 19:21:19.056967,599618369828175291,-106.00
2025-06-12 19:21:19.056967,599618369828175291,-109.00
2025-06-12 19:21:19.056967,599618369828175291,-106.00
2025-06-12 19:21:19.056967,599618369828175291,-92.00
2025-06-12 19:21:19.056967,599618369828175291,-75.00
2025-06-12 19:21:19.056967,599618369828175291,-55.00
2025-06-12 19:21:19.056967,599618369828175291,-51.00
2025-06-12 19:21:19.056967,599618369828175291,-65.00
2025-06-12 19:21:19.056967,599618369828175291,-80.00
2025-06-12 19:21:19.056967,599618369828175291,-77.00
2025-06-12 19:21:19.056967,599618369828175291,-68.00
2025-06-12 19:21:19.056967,599618369828175291,-63.00
2025-06-12 19:21:19.056967,599618369828175291,-60.00
2025-06-12 19:21:19.056967,599618369828175291,-65.00
2025-06-12 19:21:19.056967,599618369828175291,-63.00
2025-06-12 19:21:19.056967,599618369828175291,-63.00
2025-06-12 19:21:19.056967,599618369828175291,-65.00
2025-06-12 19:21:19.056967,599618369828175291,-58.00
2025-06-12 19:21:19.056967,599618369828175291,-53.00
2025-06-12 19:21:19.056967,599618369828175291,-65.00
2025-06-12 19:21:19.056967,599618369828175291,-80.00
2025-06-12 19:21:19.056967,599618369828175291,-7.00
2025-06-12 19:21:19.056967,599618369828175291,374.00
2025-06-12 19:21:19.056967,599618369828175291,1066.00
2025-06-12 19:21:19.056967,599618369828175291,1639.00
2025-06-12 19:21:19.056967,599618369828175291,1603.00
2025-06-12 19:21:19.596950,599618370388999490,711.00
2025-06-12 19:21:19.596950,599618370388999490,-318.00
2025-06-12 19:21:19.596950,599618370388999490,-434.00
2025-06-12 19:21:19.596950,599618370388999490,-75.00
2025-06-12 19:21:19.596950,599618370388999490,-111.00
2025-06-12 19:21:19.596950,599618370388999490,-240.00
2025-06-12 19:21:19.596950,599618370388999490,-162.00
2025-06-12 19:21:19.596950,599618370388999490,-131.00
2025-06-12 19:21:19.596950,599618370388999490,-155.00
2025-06-12 19:21:19.596950,599618370388999490,-128.00
2025-06-12 19:21:19.596950,599618370388999490,-109.00
2025-06-12 19:21:19.596950,599618370388999490,-116.00
2025-06-12 19:21:19.596950,599618370388999490,-102.00
2025-06-12 19:21:19.596950,599618370388999490,-75.00
2025-06-12 19:21:19.596950,599618370388999490,-68.00
2025-06-12 19:21:19.596950,599618370388999490,-55.00
2025-06-12 19:21:19.596950,599618370388999490,-38.00
2025-06-12 19:21:19.596950,599618370388999490,-26.00
2025-06-12 19:21:19.596950,599618370388999490,-7.00
2025-06-12 19:21:19.596950,599618370388999490,19.00
2025-06-12 19:21:19.596950,599618370388999490,38.00
2025-06-12 19:21:19.596950,599618370388999490,58.00
2025-06-12 19:21:19.596950,599618370388999490,89.00
2025-06-12 19:21:19.596950,599618370388999490,123.00
2025-06-12 19:21:19.596950,599618370388999490,145.00
2025-06-12 19:21:19.596950,599618370388999490,162.00
2025-06-12 19:21:19.596950,599618370388999490,177.00
2025-06-12 19:21:19.596950,599618370388999490,174.00
2025-06-12 19:21:19.596950,599618370388999490,167.00
2025-06-12 19:21:19.596950,599618370388999490,157.00
2025-06-12 19:21:19.596950,599618370388999490,131.00
2025-06-12 19:21:19.596950,599618370388999490,85.00
2025-06-12 19:21:19.596950,599618370388999490,26.00
2025-06-12 19:21:19.596950,599618370388999490,-34.00
2025-06-12 19:21:19.596950,599618370388999490,-85.00
2025-06-12 19:21:19.596950,599618370388999490,-140.00
2025-06-12 19:21:19.596950,599618370388999490,-187.00
2025-06-12 19:21:19.596950,599618370388999490,-204.00
2025-06-12 19:21:19.596950,599618370388999490,-208.00
2025-06-12 19:21:19.596950,599618370388999490,-216.00
2025-06-12 19:21:19.596950,599618370388999490,-218.00
2025-06-12 19:21:19.596950,599618370388999490,-211.00
2025-06-12 19:21:19.596950,599618370388999490,-201.00
2025-06-12 19:21:19.596950,599618370388999490,-182.00
2025-06-12 19:21:19.596950,599618370388999490,-167.00
2025-06-12 19:21:19.596950,599618370388999490,-162.00
2025-06-12 19:21:19.596950,599618370388999490,-155.00
2025-06-12 19:21:19.596950,599618370388999490,-145.00
2025-06-12 19:21:19.596950,599618370388999490,-145.00
2025-06-12 19:21:19.596950,599618370388999490,-150.00
2025-06-12 19:21:19.596950,599618370388999490,-145.00
2025-06-12 19:21:19.596950,599618370388999490,-131.00
2025-06-12 19:21:19.596950,599618370388999490,-131.00
2025-06-12 19:21:19.596950,599618370388999490,-136.00
2025-06-12 19:21:19.596950,599618370388999490,-133.00
2025-06-12 19:21:19.596950,599618370388999490,-128.00
2025-06-12 19:21:19.596950,599618370388999490,-131.00
2025-06-12 19:21:19.596950,599618370388999490,-136.00
2025-06-12 19:21:19.596950,599618370388999490,-133.00
2025-06-12 19:21:19.596950,599618370388999490,-131.00
2025-06-12 19:21:19.596950,599618370388999490,-131.00
2025-06-12 19:21:19.596950,599618370388999490,-128.00
2025-06-12 19:21:19.596950,599618370388999490,-121.00
2025-06-12 19:21:19.596950,599618370388999490,-116.00
2025-06-12 19:21:19.596950,599618370388999490,-119.00
2025-06-12 19:21:19.596950,599618370388999490,-119.00
2025-06-12 19:21:19.596950,599618370388999490,-109.00
2025-06-12 19:21:19.596950,599618370388999490,-106.00
2025-06-12 19:21:19.596950,599618370388999490,-109.00
2025-06-12 19:21:19.596950,599618370388999490,-109.00
2025-06-12 19:21:19.596950,599618370388999490,-104.00
2025-06-12 19:21:19.596950,599618370388999490,-99.00
2025-06-12 19:21:19.596950,599618370388999490,-97.00
2025-06-12 19:21:20.226878,599618370949844039,-89.00
2025-06-12 19:21:20.226878,599618370949844039,-89.00
2025-06-12 19:21:20.226878,599618370949844039,-99.00
2025-06-12 19:21:20.226878,599618370949844039,-106.00
2025-06-12 19:21:20.226878,599618370949844039,-111.00
2025-06-12 19:21:20.226878,599618370949844039,-104.00
2025-06-12 19:21:20.226878,599618370949844039,-89.00
2025-06-12 19:21:20.226878,599618370949844039,-72.00
2025-06-12 19:21:20.226878,599618370949844039,-46.00
2025-06-12 19:21:20.226878,599618370949844039,-36.00
2025-06-12 19:21:20.226878,599618370949844039,-51.00
2025-06-12 19:21:20.226878,599618370949844039,-65.00
2025-06-12 19:21:20.226878,599618370949844039,-63.00
2025-06-12 19:21:20.226878,599618370949844039,-55.00
2025-06-12 19:21:20.226878,599618370949844039,-58.00
2025-06-12 19:21:20.226878,599618370949844039,-63.00
2025-06-12 19:21:20.226878,599618370949844039,-65.00
2025-06-12 19:21:20.226878,599618370949844039,-65.00
2025-06-12 19:21:20.226878,599618370949844039,-55.00
2025-06-12 19:21:20.226878,599618370949844039,-51.00
2025-06-12 19:21:20.226878,599618370949844039,-55.00
2025-06-12 19:21:20.226878,599618370949844039,-51.00
2025-06-12 19:21:20.226878,599618370949844039,-46.00
2025-06-12 19:21:20.226878,599618370949844039,-60.00
2025-06-12 19:21:20.226878,599618370949844039,0.00
2025-06-12 19:21:20.226878,599618370949844039,366.00
2025-06-12 19:21:20.226878,599618370949844039,1044.00
2025-06-12 19:21:20.226878,599618370949844039,1620.00
2025-06-12 19:21:20.226878,599618370949844039,1625.00
2025-06-12 19:21:20.226878,599618370949844039,796.00
2025-06-12 19:21:20.226878,599618370949844039,-269.00
2025-06-12 19:21:20.226878,599618370949844039,-476.00
2025-06-12 19:21:20.226878,599618370949844039,-106.00
2025-06-12 19:21:20.226878,599618370949844039,-104.00
2025-06-12 19:21:20.226878,599618370949844039,-240.00
2025-06-12 19:21:20.226878,599618370949844039,-155.00
2025-06-12 19:21:20.226878,599618370949844039,-123.00
2025-06-12 19:21:20.226878,599618370949844039,-170.00
2025-06-12 19:21:20.226878,599618370949844039,-133.00
2025-06-12 19:21:20.226878,599618370949844039,-97.00
2025-06-12 19:21:20.226878,599618370949844039,-109.00
2025-06-12 19:21:20.226878,599618370949844039,-106.00
2025-06-12 19:21:20.226878,599618370949844039,-82.00
2025-06-12 19:21:20.226878,599618370949844039,-68.00
2025-06-12 19:21:20.226878,599618370949844039,-51.00
2025-06-12 19:21:20.226878,599618370949844039,-36.00
2025-06-12 19:21:20.226878,599618370949844039,-21.00
2025-06-12 19:21:20.226878,599618370949844039,2.00
2025-06-12 19:21:20.226878,599618370949844039,29.00
2025-06-12 19:21:20.226878,599618370949844039,53.00
2025-06-12 19:21:20.226878,599618370949844039,82.00
2025-06-12 19:21:20.226878,599618370949844039,111.00
2025-06-12 19:21:20.226878,599618370949844039,143.00
2025-06-12 19:21:20.226878,599618370949844039,167.00
2025-06-12 19:21:20.226878,599618370949844039,187.00
2025-06-12 19:21:20.226878,599618370949844039,204.00
2025-06-12 19:21:20.226878,599618370949844039,204.00
2025-06-12 19:21:20.226878,599618370949844039,189.00
2025-06-12 19:21:20.226878,599618370949844039,174.00
2025-06-12 19:21:20.226878,599618370949844039,153.00
2025-06-12 19:21:20.226878,599618370949844039,106.00
2025-06-12 19:21:20.226878,599618370949844039,41.00
2025-06-12 19:21:20.226878,599618370949844039,-34.00
2025-06-12 19:21:20.226878,599618370949844039,-109.00
2025-06-12 19:21:20.226878,599618370949844039,-167.00
2025-06-12 19:21:20.226878,599618370949844039,-199.00
2025-06-12 19:21:20.226878,599618370949844039,-218.00
2025-06-12 19:21:20.226878,599618370949844039,-240.00
2025-06-12 19:21:20.226878,599618370949844039,-242.00
2025-06-12 19:21:20.226878,599618370949844039,-240.00
2025-06-12 19:21:20.226878,599618370949844039,-238.00
2025-06-12 19:21:20.226878,599618370949844039,-221.00
2025-06-12 19:21:20.226878,599618370949844039,-208.00
2025-06-12 19:21:20.767530,599618371510637720,-208.00
2025-06-12 19:21:20.767530,599618371510637720,-194.00
2025-06-12 19:21:20.767530,599618371510637720,-167.00
2025-06-12 19:21:20.767530,599618371510637720,-157.00
2025-06-12 19:21:20.767530,599618371510637720,-160.00
2025-06-12 19:21:20.767530,599618371510637720,-157.00
2025-06-12 19:21:20.767530,599618371510637720,-150.00
2025-06-12 19:21:20.767530,599618371510637720,-143.00
2025-06-12 19:21:20.767530,599618371510637720,-143.00
2025-06-12 19:21:20.767530,599618371510637720,-143.00
2025-06-12 19:21:20.767530,599618371510637720,-126.00
2025-06-12 19:21:20.767530,599618371510637720,-121.00
2025-06-12 19:21:20.767530,599618371510637720,-131.00
2025-06-12 19:21:20.767530,599618371510637720,-138.00
2025-06-12 19:21:20.767530,599618371510637720,-131.00
2025-06-12 19:21:20.767530,599618371510637720,-123.00
2025-06-12 19:21:20.767530,599618371510637720,-123.00
2025-06-12 19:21:20.767530,599618371510637720,-126.00
2025-06-12 19:21:20.767530,599618371510637720,-128.00
2025-06-12 19:21:20.767530,599618371510637720,-123.00
2025-06-12 19:21:20.767530,599618371510637720,-111.00
2025-06-12 19:21:20.767530,599618371510637720,-109.00
2025-06-12 19:21:20.767530,599618371510637720,-119.00
2025-06-12 19:21:20.767530,599618371510637720,-126.00
2025-06-12 19:21:20.767530,599618371510637720,-123.00
2025-06-12 19:21:20.767530,599618371510637720,-126.00
2025-06-12 19:21:20.767530,599618371510637720,-133.00
2025-06-12 19:21:20.767530,599618371510637720,-123.00
2025-06-12 19:21:20.767530,599618371510637720,-89.00
2025-06-12 19:21:20.767530,599618371510637720,-68.00
2025-06-12 19:21:20.767530,599618371510637720,-75.00
2025-06-12 19:21:20.767530,599618371510637720,-87.00
2025-06-12 19:21:20.767530,599618371510637720,-89.00
2025-06-12 19:21:20.767530,599618371510637720,-85.00
2025-06-12 19:21:20.767530,599618371510637720,-82.00
2025-06-12 19:21:20.767530,599618371510637720,-82.00
2025-06-12 19:21:20.767530,599618371510637720,-77.00
2025-06-12 19:21:20.767530,599618371510637720,-75.00
2025-06-12 19:21:20.767530,599618371510637720,-77.00
2025-06-12 19:21:20.767530,599618371510637720,-80.00
2025-06-12 19:21:20.767530,599618371510637720,-82.00
2025-06-12 19:21:20.767530,599618371510637720,-80.00
2025-06-12 19:21:20.767530,599618371510637720,-72.00
2025-06-12 19:21:20.767530,599618371510637720,-77.00
2025-06-12 19:21:20.767530,599618371510637720,-87.00
2025-06-12 19:21:20.767530,599618371510637720,55.00
2025-06-12 19:21:20.767530,599618371510637720,575.00
2025-06-12 19:21:20.767530,599618371510637720,1297.00
2025-06-12 19:21:20.767530,599618371510637720,1717.00
2025-06-12 19:21:20.767530,599618371510637720,1391.00
2025-06-12 19:21:20.767530,599618371510637720,320.00
2025-06-12 19:21:20.767530,599618371510637720,-495.00
2025-06-12 19:21:20.767530,599618371510637720,-340.00
2025-06-12 19:21:20.767530,599618371510637720,-48.00
2025-06-12 19:21:20.767530,599618371510637720,-184.00
2025-06-12 19:21:20.767530,599618371510637720,-245.00
2025-06-12 19:21:20.767530,599618371510637720,-140.00
2025-06-12 19:21:20.767530,599618371510637720,-145.00
2025-06-12 19:21:20.767530,599618371510637720,-172.00
2025-06-12 19:21:20.767530,599618371510637720,-136.00
2025-06-12 19:21:20.767530,599618371510637720,-119.00
2025-06-12 19:21:20.767530,599618371510637720,-119.00
2025-06-12 19:21:20.767530,599618371510637720,-99.00
2025-06-12 19:21:20.767530,599618371510637720,-85.00
2025-06-12 19:21:20.767530,599618371510637720,-75.00
2025-06-12 19:21:20.767530,599618371510637720,-60.00
2025-06-12 19:21:20.767530,599618371510637720,-41.00
2025-06-12 19:21:20.767530,599618371510637720,-14.00
2025-06-12 19:21:20.767530,599618371510637720,9.00
2025-06-12 19:21:20.767530,599618371510637720,24.00
2025-06-12 19:21:20.767530,599618371510637720,53.00
2025-06-12 19:21:20.767530,599618371510637720,85.00
2025-06-12 19:21:20.767530,599618371510637720,114.00
2025-06-12 19:21:21.309026,599618372071441573,143.00
2025-06-12 19:21:21.309026,599618372071441573,170.00
2025-06-12 19:21:21.309026,599618372071441573,184.00
2025-06-12 19:21:21.309026,599618372071441573,191.00
2025-06-12 19:21:21.309026,599618372071441573,184.00
2025-06-12 19:21:21.309026,599618372071441573,172.00
2025-06-12 19:21:21.309026,599618372071441573,157.00
2025-06-12 19:21:21.309026,599618372071441573,121.00
2025-06-12 19:21:21.309026,599618372071441573,63.00
2025-06-12 19:21:21.309026,599618372071441573,-7.00
2025-06-12 19:21:21.309026,599618372071441573,-85.00
2025-06-12 19:21:21.309026,599618372071441573,-145.00
2025-06-12 19:21:21.309026,599618372071441573,-191.00
2025-06-12 19:21:21.309026,599618372071441573,-228.00
2025-06-12 19:21:21.309026,599618372071441573,-240.00
2025-06-12 19:21:21.309026,599618372071441573,-233.00
2025-06-12 19:21:21.309026,599618372071441573,-238.00
2025-06-12 19:21:21.309026,599618372071441573,-235.00
2025-06-12 19:21:21.309026,599618372071441573,-223.00
2025-06-12 19:21:21.309026,599618372071441573,-216.00
2025-06-12 19:21:21.309026,599618372071441573,-211.00
2025-06-12 19:21:21.309026,599618372071441573,-194.00
2025-06-12 19:21:21.309026,599618372071441573,-179.00
2025-06-12 19:21:21.309026,599618372071441573,-172.00
2025-06-12 19:21:21.309026,599618372071441573,-165.00
2025-06-12 19:21:21.309026,599618372071441573,-153.00
2025-06-12 19:21:21.309026,599618372071441573,-145.00
2025-06-12 19:21:21.309026,599618372071441573,-148.00
2025-06-12 19:21:21.309026,599618372071441573,-148.00
2025-06-12 19:21:21.309026,599618372071441573,-148.00
2025-06-12 19:21:21.309026,599618372071441573,-145.00
2025-06-12 19:21:21.309026,599618372071441573,-138.00
2025-06-12 19:21:21.309026,599618372071441573,-136.00
2025-06-12 19:21:21.309026,599618372071441573,-138.00
2025-06-12 19:21:21.309026,599618372071441573,-133.00
2025-06-12 19:21:21.309026,599618372071441573,-136.00
2025-06-12 19:21:21.309026,599618372071441573,-140.00
2025-06-12 19:21:21.309026,599618372071441573,-136.00
2025-06-12 19:21:21.309026,599618372071441573,-128.00
2025-06-12 19:21:21.309026,599618372071441573,-123.00
2025-06-12 19:21:21.309026,599618372071441573,-126.00
2025-06-12 19:21:21.309026,599618372071441573,-121.00
2025-06-12 19:21:21.309026,599618372071441573,-119.00
2025-06-12 19:21:21.309026,599618372071441573,-128.00
2025-06-12 19:21:21.309026,599618372071441573,-140.00
2025-06-12 19:21:21.309026,599618372071441573,-140.00
2025-06-12 19:21:21.309026,599618372071441573,-131.00
2025-06-12 19:21:21.309026,599618372071441573,-119.00
2025-06-12 19:21:21.309026,599618372071441573,-99.00
2025-06-12 19:21:21.309026,599618372071441573,-75.00
2025-06-12 19:21:21.309026,599618372071441573,-70.00
2025-06-12 19:21:21.309026,599618372071441573,-92.00
2025-06-12 19:21:21.309026,599618372071441573,-104.00
2025-06-12 19:21:21.309026,599618372071441573,-94.00
2025-06-12 19:21:21.309026,599618372071441573,-89.00
2025-06-12 19:21:21.309026,599618372071441573,-89.00
2025-06-12 19:21:21.309026,599618372071441573,-87.00
2025-06-12 19:21:21.309026,599618372071441573,-82.00
2025-06-12 19:21:21.309026,599618372071441573,-82.00
2025-06-12 19:21:21.309026,599618372071441573,-80.00
2025-06-12 19:21:21.309026,599618372071441573,-77.00
2025-06-12 19:21:21.309026,599618372071441573,-75.00
2025-06-12 19:21:21.309026,599618372071441573,-75.00
2025-06-12 19:21:21.309026,599618372071441573,-85.00
2025-06-12 19:21:21.309026,599618372071441573,-99.00
2025-06-12 19:21:21.309026,599618372071441573,-19.00
2025-06-12 19:21:21.309026,599618372071441573,388.00
2025-06-12 19:21:21.309026,599618372071441573,1085.00
2025-06-12 19:21:21.309026,599618372071441573,1646.00
2025-06-12 19:21:21.309026,599618372071441573,1583.00
2025-06-12 19:21:21.309026,599618372071441573,658.00
2025-06-12 19:21:21.309026,599618372071441573,-359.00
2025-06-12 19:21:21.309026,599618372071441573,-437.00
2025-06-12 19:21:21.850377,599618372632245428,-82.00
2025-06-12 19:21:21.850377,599618372632245428,-143.00
2025-06-12 19:21:21.850377,599618372632245428,-255.00
2025-06-12 19:21:21.850377,599618372632245428,-157.00
2025-06-12 19:21:21.850377,599618372632245428,-140.00
2025-06-12 19:21:21.850377,599618372632245428,-177.00
2025-06-12 19:21:21.850377,599618372632245428,-143.00
2025-06-12 19:21:21.850377,599618372632245428,-116.00
2025-06-12 19:21:21.850377,599618372632245428,-123.00
2025-06-12 19:21:21.850377,599618372632245428,-106.00
2025-06-12 19:21:21.850377,599618372632245428,-82.00
2025-06-12 19:21:21.850377,599618372632245428,-77.00
2025-06-12 19:21:21.850377,599618372632245428,-68.00
2025-06-12 19:21:21.850377,599618372632245428,-51.00
2025-06-12 19:21:21.850377,599618372632245428,-29.00
2025-06-12 19:21:21.850377,599618372632245428,-9.00
2025-06-12 19:21:21.850377,599618372632245428,12.00
2025-06-12 19:21:21.850377,599618372632245428,38.00
2025-06-12 19:21:21.850377,599618372632245428,63.00
2025-06-12 19:21:21.850377,599618372632245428,87.00
2025-06-12 19:21:21.850377,599618372632245428,126.00
2025-06-12 19:21:21.850377,599618372632245428,160.00
2025-06-12 19:21:21.850377,599618372632245428,167.00
2025-06-12 19:21:21.850377,599618372632245428,177.00
2025-06-12 19:21:21.850377,599618372632245428,187.00
2025-06-12 19:21:21.850377,599618372632245428,177.00
2025-06-12 19:21:21.850377,599618372632245428,148.00
2025-06-12 19:21:21.850377,599618372632245428,114.00
2025-06-12 19:21:21.850377,599618372632245428,72.00
2025-06-12 19:21:21.850377,599618372632245428,9.00
2025-06-12 19:21:21.850377,599618372632245428,-58.00
2025-06-12 19:21:21.850377,599618372632245428,-111.00
2025-06-12 19:21:21.850377,599618372632245428,-162.00
2025-06-12 19:21:21.850377,599618372632245428,-204.00
2025-06-12 19:21:21.850377,599618372632245428,-225.00
2025-06-12 19:21:21.850377,599618372632245428,-233.00
2025-06-12 19:21:21.850377,599618372632245428,-230.00
2025-06-12 19:21:21.850377,599618372632245428,-218.00
2025-06-12 19:21:21.850377,599618372632245428,-216.00
2025-06-12 19:21:21.850377,599618372632245428,-211.00
2025-06-12 19:21:21.850377,599618372632245428,-194.00
2025-06-12 19:21:21.850377,599618372632245428,-182.00
2025-06-12 19:21:21.850377,599618372632245428,-179.00
2025-06-12 19:21:21.850377,599618372632245428,-172.00
2025-06-12 19:21:21.850377,599618372632245428,-162.00
2025-06-12 19:21:21.850377,599618372632245428,-157.00
2025-06-12 19:21:21.850377,599618372632245428,-150.00
2025-06-12 19:21:21.850377,599618372632245428,-140.00
2025-06-12 19:21:21.850377,599618372632245428,-143.00
2025-06-12 19:21:21.850377,599618372632245428,-145.00
2025-06-12 19:21:21.850377,599618372632245428,-136.00
2025-06-12 19:21:21.850377,599618372632245428,-128.00
2025-06-12 19:21:21.850377,599618372632245428,-126.00
2025-06-12 19:21:21.850377,599618372632245428,-128.00
2025-06-12 19:21:21.850377,599618372632245428,-131.00
2025-06-12 19:21:21.850377,599618372632245428,-128.00
2025-06-12 19:21:21.850377,599618372632245428,-128.00
2025-06-12 19:21:21.850377,599618372632245428,-133.00
2025-06-12 19:21:21.850377,599618372632245428,-131.00
2025-06-12 19:21:21.850377,599618372632245428,-123.00
2025-06-12 19:21:21.850377,599618372632245428,-111.00
2025-06-12 19:21:21.850377,599618372632245428,-104.00
2025-06-12 19:21:21.850377,599618372632245428,-106.00
2025-06-12 19:21:21.850377,599618372632245428,-114.00
2025-06-12 19:21:21.850377,599618372632245428,-119.00
2025-06-12 19:21:21.850377,599618372632245428,-121.00
2025-06-12 19:21:21.850377,599618372632245428,-121.00
2025-06-12 19:21:21.850377,599618372632245428,-121.00
2025-06-12 19:21:21.850377,599618372632245428,-119.00
2025-06-12 19:21:21.850377,599618372632245428,-119.00
2025-06-12 19:21:21.850377,599618372632245428,-97.00
2025-06-12 19:21:21.850377,599618372632245428,-63.00
2025-06-12 19:21:21.850377,599618372632245428,-53.00
2025-06-12 19:21:22.447471,599618373193064541,-68.00
2025-06-12 19:21:22.447471,599618373193064541,-85.00
2025-06-12 19:21:22.447471,599618373193064541,-87.00
2025-06-12 19:21:22.447471,599618373193064541,-82.00
2025-06-12 19:21:22.447471,599618373193064541,-77.00
2025-06-12 19:21:22.447471,599618373193064541,-68.00
2025-06-12 19:21:22.447471,599618373193064541,-68.00
2025-06-12 19:21:22.447471,599618373193064541,-70.00
2025-06-12 19:21:22.447471,599618373193064541,-72.00
2025-06-12 19:21:22.447471,599618373193064541,-75.00
2025-06-12 19:21:22.447471,599618373193064541,-72.00
2025-06-12 19:21:22.447471,599618373193064541,-68.00
2025-06-12 19:21:22.447471,599618373193064541,-68.00
2025-06-12 19:21:22.447471,599618373193064541,-75.00
2025-06-12 19:21:22.447471,599618373193064541,-72.00
2025-06-12 19:21:22.447471,599618373193064541,148.00
2025-06-12 19:21:22.447471,599618373193064541,760.00
2025-06-12 19:21:22.447471,599618373193064541,1455.00
2025-06-12 19:21:22.447471,599618373193064541,1715.00
2025-06-12 19:21:22.447471,599618373193064541,1153.00
2025-06-12 19:21:22.447471,599618373193064541,31.00
2025-06-12 19:21:22.447471,599618373193064541,-512.00
2025-06-12 19:21:22.447471,599618373193064541,-206.00
2025-06-12 19:21:22.447471,599618373193064541,-60.00
2025-06-12 19:21:22.447471,599618373193064541,-233.00
2025-06-12 19:21:22.447471,599618373193064541,-204.00
2025-06-12 19:21:22.447471,599618373193064541,-123.00
2025-06-12 19:21:22.447471,599618373193064541,-165.00
2025-06-12 19:21:22.447471,599618373193064541,-160.00
2025-06-12 19:21:22.447471,599618373193064541,-114.00
2025-06-12 19:21:22.447471,599618373193064541,-119.00
2025-06-12 19:21:22.447471,599618373193064541,-116.00
2025-06-12 19:21:22.447471,599618373193064541,-89.00
2025-06-12 19:21:22.447471,599618373193064541,-77.00
2025-06-12 19:21:22.447471,599618373193064541,-65.00
2025-06-12 19:21:22.447471,599618373193064541,-48.00
2025-06-12 19:21:22.447471,599618373193064541,-36.00
2025-06-12 19:21:22.447471,599618373193064541,-19.00
2025-06-12 19:21:22.447471,599618373193064541,2.00
2025-06-12 19:21:22.447471,599618373193064541,24.00
2025-06-12 19:21:22.447471,599618373193064541,51.00
2025-06-12 19:21:22.447471,599618373193064541,82.00
2025-06-12 19:21:22.447471,599618373193064541,109.00
2025-06-12 19:21:22.447471,599618373193064541,133.00
2025-06-12 19:21:22.447471,599618373193064541,162.00
2025-06-12 19:21:22.447471,599618373193064541,189.00
2025-06-12 19:21:22.447471,599618373193064541,189.00
2025-06-12 19:21:22.447471,599618373193064541,177.00
2025-06-12 19:21:22.447471,599618373193064541,162.00
2025-06-12 19:21:22.447471,599618373193064541,138.00
2025-06-12 19:21:22.447471,599618373193064541,102.00
2025-06-12 19:21:22.447471,599618373193064541,46.00
2025-06-12 19:21:22.447471,599618373193064541,-21.00
2025-06-12 19:21:22.447471,599618373193064541,-85.00
2025-06-12 19:21:22.447471,599618373193064541,-138.00
2025-06-12 19:21:22.447471,599618373193064541,-189.00
2025-06-12 19:21:22.447471,599618373193064541,-221.00
2025-06-12 19:21:22.447471,599618373193064541,-223.00
2025-06-12 19:21:22.447471,599618373193064541,-223.00
2025-06-12 19:21:22.447471,599618373193064541,-228.00
2025-06-12 19:21:22.447471,599618373193064541,-223.00
2025-06-12 19:21:22.447471,599618373193064541,-208.00
2025-06-12 19:21:22.447471,599618373193064541,-199.00
2025-06-12 19:21:22.447471,599618373193064541,-199.00
2025-06-12 19:21:22.447471,599618373193064541,-184.00
2025-06-12 19:21:22.447471,599618373193064541,-165.00
2025-06-12 19:21:22.447471,599618373193064541,-160.00
2025-06-12 19:21:22.447471,599618373193064541,-157.00
2025-06-12 19:21:22.447471,599618373193064541,-155.00
2025-06-12 19:21:22.447471,599618373193064541,-150.00
2025-06-12 19:21:22.447471,599618373193064541,-145.00
2025-06-12 19:21:22.447471,599618373193064541,-140.00
2025-06-12 19:21:22.447471,599618373193064541,-143.00
2025-06-12 19:21:22.959457,599618373753883652,-140.00
2025-06-12 19:21:22.959457,599618373753883652,-136.00
2025-06-12 19:21:22.959457,599618373753883652,-138.00
2025-06-12 19:21:22.959457,599618373753883652,-143.00
2025-06-12 19:21:22.959457,599618373753883652,-143.00
2025-06-12 19:21:22.959457,599618373753883652,-131.00
2025-06-12 19:21:22.959457,599618373753883652,-126.00
2025-06-12 19:21:22.959457,599618373753883652,-131.00
2025-06-12 19:21:22.959457,599618373753883652,-128.00
2025-06-12 19:21:22.959457,599618373753883652,-126.00
2025-06-12 19:21:22.959457,599618373753883652,-126.00
2025-06-12 19:21:22.959457,599618373753883652,-121.00
2025-06-12 19:21:22.959457,599618373753883652,-116.00
2025-06-12 19:21:22.959457,599618373753883652,-111.00
2025-06-12 19:21:22.959457,599618373753883652,-114.00
2025-06-12 19:21:22.959457,599618373753883652,-121.00
2025-06-12 19:21:22.959457,599618373753883652,-116.00
2025-06-12 19:21:22.959457,599618373753883652,-116.00
2025-06-12 19:21:22.959457,599618373753883652,-128.00
2025-06-12 19:21:22.959457,599618373753883652,-116.00
2025-06-12 19:21:22.959457,599618373753883652,-85.00
2025-06-12 19:21:22.959457,599618373753883652,-63.00
2025-06-12 19:21:22.959457,599618373753883652,-60.00
2025-06-12 19:21:22.959457,599618373753883652,-72.00
2025-06-12 19:21:22.959457,599618373753883652,-87.00
2025-06-12 19:21:22.959457,599618373753883652,-82.00
2025-06-12 19:21:22.959457,599618373753883652,-70.00
2025-06-12 19:21:22.959457,599618373753883652,-68.00
2025-06-12 19:21:22.959457,599618373753883652,-70.00
2025-06-12 19:21:22.959457,599618373753883652,-72.00
2025-06-12 19:21:22.959457,599618373753883652,-70.00
2025-06-12 19:21:22.959457,599618373753883652,-68.00
2025-06-12 19:21:22.959457,599618373753883652,-65.00
2025-06-12 19:21:22.959457,599618373753883652,-65.00
2025-06-12 19:21:22.959457,599618373753883652,-70.00
2025-06-12 19:21:22.959457,599618373753883652,-65.00
2025-06-12 19:21:22.959457,599618373753883652,-70.00
2025-06-12 19:21:22.959457,599618373753883652,-68.00
2025-06-12 19:21:22.959457,599618373753883652,162.00
2025-06-12 19:21:22.959457,599618373753883652,774.00
2025-06-12 19:21:22.959457,599618373753883652,1462.00
2025-06-12 19:21:22.959457,599618373753883652,1729.00
2025-06-12 19:21:22.959457,599618373753883652,1178.00
2025-06-12 19:21:22.959457,599618373753883652,38.00
2025-06-12 19:21:22.959457,599618373753883652,-522.00
2025-06-12 19:21:22.959457,599618373753883652,-206.00
2025-06-12 19:21:22.959457,599618373753883652,-46.00
2025-06-12 19:21:22.959457,599618373753883652,-221.00
2025-06-12 19:21:22.959457,599618373753883652,-204.00
2025-06-12 19:21:22.959457,599618373753883652,-114.00
2025-06-12 19:21:22.959457,599618373753883652,-150.00
2025-06-12 19:21:22.959457,599618373753883652,-160.00
2025-06-12 19:21:22.959457,599618373753883652,-114.00
2025-06-12 19:21:22.959457,599618373753883652,-104.00
2025-06-12 19:21:22.959457,599618373753883652,-106.00
2025-06-12 19:21:22.959457,599618373753883652,-87.00
2025-06-12 19:21:22.959457,599618373753883652,-70.00
2025-06-12 19:21:22.959457,599618373753883652,-60.00
2025-06-12 19:21:22.959457,599618373753883652,-46.00
2025-06-12 19:21:22.959457,599618373753883652,-29.00
2025-06-12 19:21:22.959457,599618373753883652,-9.00
2025-06-12 19:21:22.959457,599618373753883652,7.00
2025-06-12 19:21:22.959457,599618373753883652,24.00
2025-06-12 19:21:22.959457,599618373753883652,53.00
2025-06-12 19:21:22.959457,599618373753883652,87.00
2025-06-12 19:21:22.959457,599618373753883652,123.00
2025-06-12 19:21:22.959457,599618373753883652,150.00
2025-06-12 19:21:22.959457,599618373753883652,167.00
2025-06-12 19:21:22.959457,599618373753883652,184.00
2025-06-12 19:21:22.959457,599618373753883652,191.00
2025-06-12 19:21:22.959457,599618373753883652,179.00
2025-06-12 19:21:22.959457,599618373753883652,160.00
2025-06-12 19:21:22.959457,599618373753883652,145.00
2025-06-12 19:21:23.557186,599618374314702769,106.00
2025-06-12 19:21:23.557186,599618374314702769,38.00
2025-06-12 19:21:23.557186,599618374314702769,-31.00
2025-06-12 19:21:23.557186,599618374314702769,-85.00
2025-06-12 19:21:23.557186,599618374314702769,-131.00
2025-06-12 19:21:23.557186,599618374314702769,-179.00
2025-06-12 19:21:23.557186,599618374314702769,-216.00
2025-06-12 19:21:23.557186,599618374314702769,-221.00
2025-06-12 19:21:23.557186,599618374314702769,-213.00
2025-06-12 19:21:23.557186,599618374314702769,-221.00
2025-06-12 19:21:23.557186,599618374314702769,-225.00
2025-06-12 19:21:23.557186,599618374314702769,-206.00
2025-06-12 19:21:23.557186,599618374314702769,-191.00
2025-06-12 19:21:23.557186,599618374314702769,-191.00
2025-06-12 19:21:23.557186,599618374314702769,-187.00
2025-06-12 19:21:23.557186,599618374314702769,-167.00
2025-06-12 19:21:23.557186,599618374314702769,-150.00
2025-06-12 19:21:23.557186,599618374314702769,-150.00
2025-06-12 19:21:23.557186,599618374314702769,-150.00
2025-06-12 19:21:23.557186,599618374314702769,-140.00
2025-06-12 19:21:23.557186,599618374314702769,-136.00
2025-06-12 19:21:23.557186,599618374314702769,-140.00
2025-06-12 19:21:23.557186,599618374314702769,-133.00
2025-06-12 19:21:23.557186,599618374314702769,-128.00
2025-06-12 19:21:23.557186,599618374314702769,-133.00
2025-06-12 19:21:23.557186,599618374314702769,-138.00
2025-06-12 19:21:23.557186,599618374314702769,-136.00
2025-06-12 19:21:23.557186,599618374314702769,-128.00
2025-06-12 19:21:23.557186,599618374314702769,-126.00
2025-06-12 19:21:23.557186,599618374314702769,-126.00
2025-06-12 19:21:23.557186,599618374314702769,-126.00
2025-06-12 19:21:23.557186,599618374314702769,-126.00
2025-06-12 19:21:23.557186,599618374314702769,-116.00
2025-06-12 19:21:23.557186,599618374314702769,-111.00
2025-06-12 19:21:23.557186,599618374314702769,-116.00
2025-06-12 19:21:23.557186,599618374314702769,-116.00
2025-06-12 19:21:23.557186,599618374314702769,-109.00
2025-06-12 19:21:23.557186,599618374314702769,-102.00
2025-06-12 19:21:23.557186,599618374314702769,-102.00
2025-06-12 19:21:23.557186,599618374314702769,-109.00
2025-06-12 19:21:23.557186,599618374314702769,-109.00
2025-06-12 19:21:23.557186,599618374314702769,-104.00
2025-06-12 19:21:23.557186,599618374314702769,-106.00
2025-06-12 19:21:23.557186,599618374314702769,-116.00
2025-06-12 19:21:23.557186,599618374314702769,-116.00
2025-06-12 19:21:23.557186,599618374314702769,-106.00
2025-06-12 19:21:23.557186,599618374314702769,-82.00
2025-06-12 19:21:23.557186,599618374314702769,-51.00
2025-06-12 19:21:23.557186,599618374314702769,-46.00
2025-06-12 19:21:23.557186,599618374314702769,-70.00
2025-06-12 19:21:23.557186,599618374314702769,-77.00
2025-06-12 19:21:23.557186,599618374314702769,-68.00
2025-06-12 19:21:23.557186,599618374314702769,-65.00
2025-06-12 19:21:23.557186,599618374314702769,-70.00
2025-06-12 19:21:23.557186,599618374314702769,-65.00
2025-06-12 19:21:23.557186,599618374314702769,-60.00
2025-06-12 19:21:23.557186,599618374314702769,-63.00
2025-06-12 19:21:23.557186,599618374314702769,-60.00
2025-06-12 19:21:23.557186,599618374314702769,-65.00
2025-06-12 19:21:23.557186,599618374314702769,-72.00
2025-06-12 19:21:23.557186,599618374314702769,-63.00
2025-06-12 19:21:23.557186,599618374314702769,-53.00
2025-06-12 19:21:23.557186,599618374314702769,-60.00
2025-06-12 19:21:23.557186,599618374314702769,9.00
2025-06-12 19:21:23.557186,599618374314702769,391.00
2025-06-12 19:21:23.557186,599618374314702769,1076.00
2025-06-12 19:21:23.557186,599618374314702769,1629.00
2025-06-12 19:21:23.557186,599618374314702769,1574.00
2025-06-12 19:21:23.557186,599618374314702769,699.00
2025-06-12 19:21:23.557186,599618374314702769,-315.00
2025-06-12 19:21:23.557186,599618374314702769,-449.00
2025-06-12 19:21:23.557186,599618374314702769,-92.00
2025-06-12 19:21:23.557186,599618374314702769,-123.00
2025-06-12 19:21:24.127387,599618374875501536,-242.00
2025-06-12 19:21:24.127387,599618374875501536,-145.00
2025-06-12 19:21:24.127387,599618374875501536,-114.00
2025-06-12 19:21:24.127387,599618374875501536,-160.00
2025-06-12 19:21:24.127387,599618374875501536,-131.00
2025-06-12 19:21:24.127387,599618374875501536,-102.00
2025-06-12 19:21:24.127387,599618374875501536,-106.00
2025-06-12 19:21:24.127387,599618374875501536,-92.00
2025-06-12 19:21:24.127387,599618374875501536,-68.00
2025-06-12 19:21:24.127387,599618374875501536,-60.00
2025-06-12 19:21:24.127387,599618374875501536,-43.00
2025-06-12 19:21:24.127387,599618374875501536,-24.00
2025-06-12 19:21:24.127387,599618374875501536,-12.00
2025-06-12 19:21:24.127387,599618374875501536,7.00
2025-06-12 19:21:24.127387,599618374875501536,36.00
2025-06-12 19:21:24.127387,599618374875501536,58.00
2025-06-12 19:21:24.127387,599618374875501536,80.00
2025-06-12 19:21:24.127387,599618374875501536,114.00
2025-06-12 19:21:24.127387,599618374875501536,150.00
2025-06-12 19:21:24.127387,599618374875501536,172.00
2025-06-12 19:21:24.127387,599618374875501536,191.00
2025-06-12 19:21:24.127387,599618374875501536,216.00
2025-06-12 19:21:24.127387,599618374875501536,221.00
2025-06-12 19:21:24.127387,599618374875501536,204.00
2025-06-12 19:21:24.127387,599618374875501536,187.00
2025-06-12 19:21:24.127387,599618374875501536,157.00
2025-06-12 19:21:24.127387,599618374875501536,104.00
2025-06-12 19:21:24.127387,599618374875501536,38.00
2025-06-12 19:21:24.127387,599618374875501536,-31.00
2025-06-12 19:21:24.127387,599618374875501536,-97.00
2025-06-12 19:21:24.127387,599618374875501536,-153.00
2025-06-12 19:21:24.127387,599618374875501536,-196.00
2025-06-12 19:21:24.127387,599618374875501536,-221.00
2025-06-12 19:21:24.127387,599618374875501536,-230.00
2025-06-12 19:21:24.127387,599618374875501536,-238.00
2025-06-12 19:21:24.127387,599618374875501536,-228.00
2025-06-12 19:21:24.127387,599618374875501536,-216.00
2025-06-12 19:21:24.127387,599618374875501536,-213.00
2025-06-12 19:21:24.127387,599618374875501536,-201.00
2025-06-12 19:21:24.127387,599618374875501536,-184.00
2025-06-12 19:21:24.127387,599618374875501536,-174.00
2025-06-12 19:21:24.127387,599618374875501536,-170.00
2025-06-12 19:21:24.127387,599618374875501536,-167.00
2025-06-12 19:21:24.127387,599618374875501536,-162.00
2025-06-12 19:21:24.127387,599618374875501536,-155.00
2025-06-12 19:21:24.127387,599618374875501536,-148.00
2025-06-12 19:21:24.127387,599618374875501536,-143.00
2025-06-12 19:21:24.127387,599618374875501536,-143.00
2025-06-12 19:21:24.127387,599618374875501536,-145.00
2025-06-12 19:21:24.127387,599618374875501536,-140.00
2025-06-12 19:21:24.127387,599618374875501536,-136.00
2025-06-12 19:21:24.127387,599618374875501536,-136.00
2025-06-12 19:21:24.127387,599618374875501536,-136.00
2025-06-12 19:21:24.127387,599618374875501536,-138.00
2025-06-12 19:21:24.127387,599618374875501536,-138.00
2025-06-12 19:21:24.127387,599618374875501536,-136.00
2025-06-12 19:21:24.127387,599618374875501536,-131.00
2025-06-12 19:21:24.127387,599618374875501536,-133.00
2025-06-12 19:21:24.127387,599618374875501536,-136.00
2025-06-12 19:21:24.127387,599618374875501536,-123.00
2025-06-12 19:21:24.127387,599618374875501536,-114.00
2025-06-12 19:21:24.127387,599618374875501536,-121.00
2025-06-12 19:21:24.127387,599618374875501536,-123.00
2025-06-12 19:21:24.127387,599618374875501536,-114.00
2025-06-12 19:21:24.127387,599618374875501536,-109.00
2025-06-12 19:21:24.127387,599618374875501536,-106.00
2025-06-12 19:21:24.127387,599618374875501536,-111.00
2025-06-12 19:21:24.127387,599618374875501536,-119.00
2025-06-12 19:21:24.127387,599618374875501536,-121.00
2025-06-12 19:21:24.127387,599618374875501536,-121.00
2025-06-12 19:21:24.127387,599618374875501536,-116.00
2025-06-12 19:21:24.127387,599618374875501536,-116.00
2025-06-12 19:21:24.127387,599618374875501536,-106.00
2025-06-12 19:21:24.668006,599618375436310477,-68.00
2025-06-12 19:21:24.668006,599618375436310477,-43.00
2025-06-12 19:21:24.668006,599618375436310477,-63.00
2025-06-12 19:21:24.668006,599618375436310477,-85.00
2025-06-12 19:21:24.668006,599618375436310477,-82.00
2025-06-12 19:21:24.668006,599618375436310477,-77.00
2025-06-12 19:21:24.668006,599618375436310477,-75.00
2025-06-12 19:21:24.668006,599618375436310477,-72.00
2025-06-12 19:21:24.668006,599618375436310477,-77.00
2025-06-12 19:21:24.668006,599618375436310477,-72.00
2025-06-12 19:21:24.668006,599618375436310477,-63.00
2025-06-12 19:21:24.668006,599618375436310477,-63.00
2025-06-12 19:21:24.668006,599618375436310477,-65.00
2025-06-12 19:21:24.668006,599618375436310477,-65.00
2025-06-12 19:21:24.668006,599618375436310477,-63.00
2025-06-12 19:21:24.668006,599618375436310477,-60.00
2025-06-12 19:21:24.668006,599618375436310477,-60.00
2025-06-12 19:21:24.668006,599618375436310477,87.00
2025-06-12 19:21:24.668006,599618375436310477,614.00
2025-06-12 19:21:24.668006,599618375436310477,1323.00
2025-06-12 19:21:24.668006,599618375436310477,1702.00
2025-06-12 19:21:24.668006,599618375436310477,1326.00
2025-06-12 19:21:24.668006,599618375436310477,238.00
2025-06-12 19:21:24.668006,599618375436310477,-507.00
2025-06-12 19:21:24.668006,599618375436310477,-293.00
2025-06-12 19:21:24.668006,599618375436310477,-36.00
2025-06-12 19:21:24.668006,599618375436310477,-191.00
2025-06-12 19:21:24.668006,599618375436310477,-223.00
2025-06-12 19:21:24.668006,599618375436310477,-121.00
2025-06-12 19:21:24.668006,599618375436310477,-143.00
2025-06-12 19:21:24.668006,599618375436310477,-167.00
2025-06-12 19:21:24.668006,599618375436310477,-121.00
2025-06-12 19:21:24.668006,599618375436310477,-104.00
2025-06-12 19:21:24.668006,599618375436310477,-111.00
2025-06-12 19:21:24.668006,599618375436310477,-92.00
2025-06-12 19:21:24.668006,599618375436310477,-72.00
2025-06-12 19:21:24.668006,599618375436310477,-70.00
2025-06-12 19:21:24.668006,599618375436310477,-58.00
2025-06-12 19:21:24.668006,599618375436310477,-36.00
2025-06-12 19:21:24.668006,599618375436310477,-17.00
2025-06-12 19:21:24.668006,599618375436310477,7.00
2025-06-12 19:21:24.668006,599618375436310477,29.00
2025-06-12 19:21:24.668006,599618375436310477,48.00
2025-06-12 19:21:24.668006,599618375436310477,77.00
2025-06-12 19:21:24.668006,599618375436310477,111.00
2025-06-12 19:21:24.668006,599618375436310477,138.00
2025-06-12 19:21:24.668006,599618375436310477,155.00
2025-06-12 19:21:24.668006,599618375436310477,172.00
2025-06-12 19:21:24.668006,599618375436310477,184.00
2025-06-12 19:21:24.668006,599618375436310477,182.00
2025-06-12 19:21:24.668006,599618375436310477,170.00
2025-06-12 19:21:24.668006,599618375436310477,150.00
2025-06-12 19:21:24.668006,599618375436310477,116.00
2025-06-12 19:21:24.668006,599618375436310477,63.00
2025-06-12 19:21:24.668006,599618375436310477,0.00
2025-06-12 19:21:24.668006,599618375436310477,-70.00
2025-06-12 19:21:24.668006,599618375436310477,-136.00
2025-06-12 19:21:24.668006,599618375436310477,-179.00
2025-06-12 19:21:24.668006,599618375436310477,-204.00
2025-06-12 19:21:24.668006,599618375436310477,-221.00
2025-06-12 19:21:24.668006,599618375436310477,-225.00
2025-06-12 19:21:24.668006,599618375436310477,-221.00
2025-06-12 19:21:24.668006,599618375436310477,-218.00
2025-06-12 19:21:24.668006,599618375436310477,-216.00
2025-06-12 19:21:24.668006,599618375436310477,-208.00
2025-06-12 19:21:24.668006,599618375436310477,-196.00
2025-06-12 19:21:24.668006,599618375436310477,-184.00
2025-06-12 19:21:24.668006,599618375436310477,-177.00
2025-06-12 19:21:24.668006,599618375436310477,-170.00
2025-06-12 19:21:24.668006,599618375436310477,-153.00
2025-06-12 19:21:24.668006,599618375436310477,-148.00
2025-06-12 19:21:24.668006,599618375436310477,-153.00
2025-06-12 19:21:24.668006,599618375436310477,-145.00
2025-06-12 19:21:25.238310,599618375997129590,-138.00
2025-06-12 19:21:25.238310,599618375997129590,-143.00
2025-06-12 19:21:25.238310,599618375997129590,-140.00
2025-06-12 19:21:25.238310,599618375997129590,-128.00
2025-06-12 19:21:25.238310,599618375997129590,-128.00
2025-06-12 19:21:25.238310,599618375997129590,-138.00
2025-06-12 19:21:25.238310,599618375997129590,-133.00
2025-06-12 19:21:25.238310,599618375997129590,-126.00
2025-06-12 19:21:25.238310,599618375997129590,-128.00
2025-06-12 19:21:25.238310,599618375997129590,-128.00
2025-06-12 19:21:25.238310,599618375997129590,-121.00
2025-06-12 19:21:25.238310,599618375997129590,-119.00
2025-06-12 19:21:25.238310,599618375997129590,-114.00
2025-06-12 19:21:25.238310,599618375997129590,-106.00
2025-06-12 19:21:25.238310,599618375997129590,-111.00
2025-06-12 19:21:25.238310,599618375997129590,-116.00
2025-06-12 19:21:25.238310,599618375997129590,-114.00
2025-06-12 19:21:25.238310,599618375997129590,-102.00
2025-06-12 19:21:25.238310,599618375997129590,-97.00
2025-06-12 19:21:25.238310,599618375997129590,-99.00
2025-06-12 19:21:25.238310,599618375997129590,-94.00
2025-06-12 19:21:25.238310,599618375997129590,-89.00
2025-06-12 19:21:25.238310,599618375997129590,-89.00
2025-06-12 19:21:25.238310,599618375997129590,-92.00
2025-06-12 19:21:25.238310,599618375997129590,-99.00
2025-06-12 19:21:25.238310,599618375997129590,-104.00
2025-06-12 19:21:25.238310,599618375997129590,-106.00
2025-06-12 19:21:25.238310,599618375997129590,-106.00
2025-06-12 19:21:25.238310,599618375997129590,-102.00
2025-06-12 19:21:25.238310,599618375997129590,-89.00
2025-06-12 19:21:25.238310,599618375997129590,-65.00
2025-06-12 19:21:25.238310,599618375997129590,-41.00
2025-06-12 19:21:25.238310,599618375997129590,-46.00
2025-06-12 19:21:25.238310,599618375997129590,-70.00
2025-06-12 19:21:25.238310,599618375997129590,-77.00
2025-06-12 19:21:25.238310,599618375997129590,-70.00
2025-06-12 19:21:25.238310,599618375997129590,-63.00
2025-06-12 19:21:25.238310,599618375997129590,-65.00
2025-06-12 19:21:25.238310,599618375997129590,-68.00
2025-06-12 19:21:25.238310,599618375997129590,-65.00
2025-06-12 19:21:25.238310,599618375997129590,-60.00
2025-06-12 19:21:25.238310,599618375997129590,-63.00
2025-06-12 19:21:25.238310,599618375997129590,-65.00
2025-06-12 19:21:25.238310,599618375997129590,-68.00
2025-06-12 19:21:25.238310,599618375997129590,-60.00
2025-06-12 19:21:25.238310,599618375997129590,-53.00
2025-06-12 19:21:25.238310,599618375997129590,-77.00
2025-06-12 19:21:25.238310,599618375997129590,9.00
2025-06-12 19:21:25.238310,599618375997129590,454.00
2025-06-12 19:21:25.238310,599618375997129590,1156.00
2025-06-12 19:21:25.238310,599618375997129590,1664.00
2025-06-12 19:21:25.238310,599618375997129590,1525.00
2025-06-12 19:21:25.238310,599618375997129590,558.00
2025-06-12 19:21:25.238310,599618375997129590,-393.00
2025-06-12 19:21:25.238310,599618375997129590,-383.00
2025-06-12 19:21:25.238310,599618375997129590,-53.00
2025-06-12 19:21:25.238310,599618375997129590,-150.00
2025-06-12 19:21:25.238310,599618375997129590,-250.00
2025-06-12 19:21:25.238310,599618375997129590,-148.00
2025-06-12 19:21:25.238310,599618375997129590,-131.00
2025-06-12 19:21:25.238310,599618375997129590,-177.00
2025-06-12 19:21:25.238310,599618375997129590,-143.00
2025-06-12 19:21:25.238310,599618375997129590,-102.00
2025-06-12 19:21:25.238310,599618375997129590,-106.00
2025-06-12 19:21:25.238310,599618375997129590,-106.00
2025-06-12 19:21:25.238310,599618375997129590,-87.00
2025-06-12 19:21:25.238310,599618375997129590,-72.00
2025-06-12 19:21:25.238310,599618375997129590,-60.00
2025-06-12 19:21:25.238310,599618375997129590,-38.00
2025-06-12 19:21:25.238310,599618375997129590,-17.00
2025-06-12 19:21:25.238310,599618375997129590,-4.00
2025-06-12 19:21:25.238310,599618375997129590,14.00
2025-06-12 19:21:25.238310,599618375997129590,51.00
2025-06-12 19:21:25.777262,599618376557948703,82.00
2025-06-12 19:21:25.777262,599618376557948703,102.00
2025-06-12 19:21:25.777262,599618376557948703,126.00
2025-06-12 19:21:25.777262,599618376557948703,155.00
2025-06-12 19:21:25.777262,599618376557948703,179.00
2025-06-12 19:21:25.777262,599618376557948703,194.00
2025-06-12 19:21:25.777262,599618376557948703,189.00
2025-06-12 19:21:25.777262,599618376557948703,177.00
2025-06-12 19:21:25.777262,599618376557948703,167.00
2025-06-12 19:21:25.777262,599618376557948703,143.00
2025-06-12 19:21:25.777262,599618376557948703,89.00
2025-06-12 19:21:25.777262,599618376557948703,24.00
2025-06-12 19:21:25.777262,599618376557948703,-38.00
2025-06-12 19:21:25.777262,599618376557948703,-97.00
2025-06-12 19:21:25.777262,599618376557948703,-157.00
2025-06-12 19:21:25.777262,599618376557948703,-199.00
2025-06-12 19:21:25.777262,599618376557948703,-221.00
2025-06-12 19:21:25.777262,599618376557948703,-228.00
2025-06-12 19:21:25.777262,599618376557948703,-228.00
2025-06-12 19:21:25.777262,599618376557948703,-223.00
2025-06-12 19:21:25.777262,599618376557948703,-218.00
2025-06-12 19:21:25.777262,599618376557948703,-211.00
2025-06-12 19:21:25.777262,599618376557948703,-196.00
2025-06-12 19:21:25.777262,599618376557948703,-184.00
2025-06-12 19:21:25.777262,599618376557948703,-179.00
2025-06-12 19:21:25.777262,599618376557948703,-170.00
2025-06-12 19:21:25.777262,599618376557948703,-160.00
2025-06-12 19:21:25.777262,599618376557948703,-155.00
2025-06-12 19:21:25.777262,599618376557948703,-148.00
2025-06-12 19:21:25.777262,599618376557948703,-138.00
2025-06-12 19:21:25.777262,599618376557948703,-138.00
2025-06-12 19:21:25.777262,599618376557948703,-138.00
2025-06-12 19:21:25.777262,599618376557948703,-131.00
2025-06-12 19:21:25.777262,599618376557948703,-131.00
2025-06-12 19:21:25.777262,599618376557948703,-131.00
2025-06-12 19:21:25.777262,599618376557948703,-123.00
2025-06-12 19:21:25.777262,599618376557948703,-123.00
2025-06-12 19:21:25.777262,599618376557948703,-131.00
2025-06-12 19:21:25.777262,599618376557948703,-131.00
2025-06-12 19:21:25.777262,599618376557948703,-126.00
2025-06-12 19:21:25.777262,599618376557948703,-123.00
2025-06-12 19:21:25.777262,599618376557948703,-119.00
2025-06-12 19:21:25.777262,599618376557948703,-114.00
2025-06-12 19:21:25.777262,599618376557948703,-111.00
2025-06-12 19:21:25.777262,599618376557948703,-111.00
2025-06-12 19:21:25.777262,599618376557948703,-109.00
2025-06-12 19:21:25.777262,599618376557948703,-109.00
2025-06-12 19:21:25.777262,599618376557948703,-102.00
2025-06-12 19:21:25.777262,599618376557948703,-99.00
2025-06-12 19:21:25.777262,599618376557948703,-106.00
2025-06-12 19:21:25.777262,599618376557948703,-106.00
2025-06-12 19:21:25.777262,599618376557948703,-94.00
2025-06-12 19:21:25.777262,599618376557948703,-92.00
2025-06-12 19:21:25.777262,599618376557948703,-92.00
2025-06-12 19:21:25.777262,599618376557948703,-87.00
2025-06-12 19:21:25.777262,599618376557948703,-85.00
2025-06-12 19:21:25.777262,599618376557948703,-85.00
2025-06-12 19:21:25.777262,599618376557948703,-89.00
2025-06-12 19:21:25.777262,599618376557948703,-97.00
2025-06-12 19:21:25.777262,599618376557948703,-94.00
2025-06-12 19:21:25.777262,599618376557948703,-89.00
2025-06-12 19:21:25.777262,599618376557948703,-97.00
2025-06-12 19:21:25.777262,599618376557948703,-97.00
2025-06-12 19:21:25.777262,599618376557948703,-70.00
2025-06-12 19:21:25.777262,599618376557948703,-41.00
2025-06-12 19:21:25.777262,599618376557948703,-29.00
2025-06-12 19:21:25.777262,599618376557948703,-41.00
2025-06-12 19:21:25.777262,599618376557948703,-65.00
2025-06-12 19:21:25.777262,599618376557948703,-72.00
2025-06-12 19:21:25.777262,599618376557948703,-63.00
2025-06-12 19:21:25.777262,599618376557948703,-48.00
2025-06-12 19:21:25.777262,599618376557948703,-48.00
2025-06-12 19:21:25.777262,599618376557948703,-55.00
2025-06-12 19:21:26.320136,599618377118767814,-58.00
2025-06-12 19:21:26.320136,599618377118767814,-46.00
2025-06-12 19:21:26.320136,599618377118767814,-46.00
2025-06-12 19:21:26.320136,599618377118767814,-60.00
2025-06-12 19:21:26.320136,599618377118767814,-55.00
2025-06-12 19:21:26.320136,599618377118767814,-38.00
2025-06-12 19:21:26.320136,599618377118767814,-43.00
2025-06-12 19:21:26.320136,599618377118767814,-53.00
2025-06-12 19:21:26.320136,599618377118767814,143.00
2025-06-12 19:21:26.320136,599618377118767814,726.00
2025-06-12 19:21:26.320136,599618377118767814,1423.00
2025-06-12 19:21:26.320136,599618377118767814,1739.00
2025-06-12 19:21:26.320136,599618377118767814,1265.00
2025-06-12 19:21:26.320136,599618377118767814,145.00
2025-06-12 19:21:26.320136,599618377118767814,-497.00
2025-06-12 19:21:26.320136,599618377118767814,-228.00
2025-06-12 19:21:26.320136,599618377118767814,-31.00
2025-06-12 19:21:26.320136,599618377118767814,-201.00
2025-06-12 19:21:26.320136,599618377118767814,-204.00
2025-06-12 19:21:26.320136,599618377118767814,-119.00
2025-06-12 19:21:26.320136,599618377118767814,-145.00
2025-06-12 19:21:26.320136,599618377118767814,-148.00
2025-06-12 19:21:26.320136,599618377118767814,-111.00
2025-06-12 19:21:26.320136,599618377118767814,-111.00
2025-06-12 19:21:26.320136,599618377118767814,-109.00
2025-06-12 19:21:26.320136,599618377118767814,-87.00
2025-06-12 19:21:26.320136,599618377118767814,-70.00
2025-06-12 19:21:26.320136,599618377118767814,-60.00
2025-06-12 19:21:26.320136,599618377118767814,-48.00
2025-06-12 19:21:26.320136,599618377118767814,-29.00
2025-06-12 19:21:26.320136,599618377118767814,-9.00
2025-06-12 19:21:26.320136,599618377118767814,4.00
2025-06-12 19:21:26.320136,599618377118767814,29.00
2025-06-12 19:21:26.320136,599618377118767814,58.00
2025-06-12 19:21:26.320136,599618377118767814,77.00
2025-06-12 19:21:26.320136,599618377118767814,104.00
2025-06-12 19:21:26.320136,599618377118767814,138.00
2025-06-12 19:21:26.320136,599618377118767814,165.00
2025-06-12 19:21:26.320136,599618377118767814,184.00
2025-06-12 19:21:26.320136,599618377118767814,194.00
2025-06-12 19:21:26.320136,599618377118767814,187.00
2025-06-12 19:21:26.320136,599618377118767814,172.00
2025-06-12 19:21:26.320136,599618377118767814,150.00
2025-06-12 19:21:26.320136,599618377118767814,116.00
2025-06-12 19:21:26.320136,599618377118767814,65.00
2025-06-12 19:21:26.320136,599618377118767814,-7.00
2025-06-12 19:21:26.320136,599618377118767814,-82.00
2025-06-12 19:21:26.320136,599618377118767814,-138.00
2025-06-12 19:21:26.320136,599618377118767814,-187.00
2025-06-12 19:21:26.320136,599618377118767814,-228.00
2025-06-12 19:21:26.320136,599618377118767814,-247.00
2025-06-12 19:21:26.320136,599618377118767814,-247.00
2025-06-12 19:21:26.320136,599618377118767814,-245.00
2025-06-12 19:21:26.320136,599618377118767814,-242.00
2025-06-12 19:21:26.320136,599618377118767814,-233.00
2025-06-12 19:21:26.320136,599618377118767814,-221.00
2025-06-12 19:21:26.320136,599618377118767814,-211.00
2025-06-12 19:21:26.320136,599618377118767814,-208.00
2025-06-12 19:21:26.320136,599618377118767814,-196.00
2025-06-12 19:21:26.320136,599618377118767814,-182.00
2025-06-12 19:21:26.320136,599618377118767814,-174.00
2025-06-12 19:21:26.320136,599618377118767814,-167.00
2025-06-12 19:21:26.320136,599618377118767814,-162.00
2025-06-12 19:21:26.320136,599618377118767814,-160.00
2025-06-12 19:21:26.320136,599618377118767814,-155.00
2025-06-12 19:21:26.320136,599618377118767814,-148.00
2025-06-12 19:21:26.320136,599618377118767814,-145.00
2025-06-12 19:21:26.320136,599618377118767814,-153.00
2025-06-12 19:21:26.320136,599618377118767814,-153.00
2025-06-12 19:21:26.320136,599618377118767814,-143.00
2025-06-12 19:21:26.320136,599618377118767814,-140.00
2025-06-12 19:21:26.320136,599618377118767814,-145.00
2025-06-12 19:21:26.320136,599618377118767814,-148.00
2025-06-12 19:21:26.917882,599618377679561499,-150.00
2025-06-12 19:21:26.917882,599618377679561499,-150.00
2025-06-12 19:21:26.917882,599618377679561499,-143.00
2025-06-12 19:21:26.917882,599618377679561499,-138.00
2025-06-12 19:21:26.917882,599618377679561499,-136.00
2025-06-12 19:21:26.917882,599618377679561499,-138.00
2025-06-12 19:21:26.917882,599618377679561499,-140.00
2025-06-12 19:21:26.917882,599618377679561499,-133.00
2025-06-12 19:21:26.917882,599618377679561499,-128.00
2025-06-12 19:21:26.917882,599618377679561499,-123.00
2025-06-12 19:21:26.917882,599618377679561499,-121.00
2025-06-12 19:21:26.917882,599618377679561499,-119.00
2025-06-12 19:21:26.917882,599618377679561499,-121.00
2025-06-12 19:21:26.917882,599618377679561499,-123.00
2025-06-12 19:21:26.917882,599618377679561499,-119.00
2025-06-12 19:21:26.917882,599618377679561499,-114.00
2025-06-12 19:21:26.917882,599618377679561499,-111.00
2025-06-12 19:21:26.917882,599618377679561499,-106.00
2025-06-12 19:21:26.917882,599618377679561499,-106.00
2025-06-12 19:21:26.917882,599618377679561499,-119.00
2025-06-12 19:21:26.917882,599618377679561499,-123.00
2025-06-12 19:21:26.917882,599618377679561499,-119.00
2025-06-12 19:21:26.917882,599618377679561499,-119.00
2025-06-12 19:21:26.917882,599618377679561499,-121.00
2025-06-12 19:21:26.917882,599618377679561499,-119.00
2025-06-12 19:21:26.917882,599618377679561499,-92.00
2025-06-12 19:21:26.917882,599618377679561499,-65.00
2025-06-12 19:21:26.917882,599618377679561499,-72.00
2025-06-12 19:21:26.917882,599618377679561499,-92.00
2025-06-12 19:21:26.917882,599618377679561499,-92.00
2025-06-12 19:21:26.917882,599618377679561499,-89.00
2025-06-12 19:21:26.917882,599618377679561499,-92.00
2025-06-12 19:21:26.917882,599618377679561499,-94.00
2025-06-12 19:21:26.917882,599618377679561499,-87.00
2025-06-12 19:21:26.917882,599618377679561499,-82.00
2025-06-12 19:21:26.917882,599618377679561499,-89.00
2025-06-12 19:21:26.917882,599618377679561499,-92.00
2025-06-12 19:21:26.917882,599618377679561499,-82.00
2025-06-12 19:21:26.917882,599618377679561499,-80.00
2025-06-12 19:21:26.917882,599618377679561499,-89.00
2025-06-12 19:21:26.917882,599618377679561499,-89.00
2025-06-12 19:21:26.917882,599618377679561499,-89.00
2025-06-12 19:21:26.917882,599618377679561499,-19.00
2025-06-12 19:21:26.917882,599618377679561499,371.00
2025-06-12 19:21:26.917882,599618377679561499,1066.00
2025-06-12 19:21:26.917882,599618377679561499,1615.00
2025-06-12 19:21:26.917882,599618377679561499,1530.00
2025-06-12 19:21:26.917882,599618377679561499,621.00
2025-06-12 19:21:26.917882,599618377679561499,-378.00
2025-06-12 19:21:26.917882,599618377679561499,-459.00
2025-06-12 19:21:26.917882,599618377679561499,-92.00
2025-06-12 19:21:26.917882,599618377679561499,-131.00
2025-06-12 19:21:26.917882,599618377679561499,-255.00
2025-06-12 19:21:26.917882,599618377679561499,-172.00
2025-06-12 19:21:26.917882,599618377679561499,-153.00
2025-06-12 19:21:26.917882,599618377679561499,-191.00
2025-06-12 19:21:26.917882,599618377679561499,-157.00
2025-06-12 19:21:26.917882,599618377679561499,-133.00
2025-06-12 19:21:26.917882,599618377679561499,-138.00
2025-06-12 19:21:26.917882,599618377679561499,-119.00
2025-06-12 19:21:26.917882,599618377679561499,-94.00
2025-06-12 19:21:26.917882,599618377679561499,-89.00
2025-06-12 19:21:26.917882,599618377679561499,-77.00
2025-06-12 19:21:26.917882,599618377679561499,-58.00
2025-06-12 19:21:26.917882,599618377679561499,-38.00
2025-06-12 19:21:26.917882,599618377679561499,-19.00
2025-06-12 19:21:26.917882,599618377679561499,-4.00
2025-06-12 19:21:26.917882,599618377679561499,9.00
2025-06-12 19:21:26.917882,599618377679561499,48.00
2025-06-12 19:21:26.917882,599618377679561499,87.00
2025-06-12 19:21:26.917882,599618377679561499,109.00
2025-06-12 19:21:26.917882,599618377679561499,136.00
2025-06-12 19:21:26.917882,599618377679561499,167.00
2025-06-12 19:21:27.486396,599618378240385698,179.00
2025-06-12 19:21:27.486396,599618378240385698,177.00
2025-06-12 19:21:27.486396,599618378240385698,177.00
2025-06-12 19:21:27.486396,599618378240385698,162.00
2025-06-12 19:21:27.486396,599618378240385698,126.00
2025-06-12 19:21:27.486396,599618378240385698,87.00
2025-06-12 19:21:27.486396,599618378240385698,24.00
2025-06-12 19:21:27.486396,599618378240385698,-60.00
2025-06-12 19:21:27.486396,599618378240385698,-121.00
2025-06-12 19:21:27.486396,599618378240385698,-162.00
2025-06-12 19:21:27.486396,599618378240385698,-213.00
2025-06-12 19:21:27.486396,599618378240385698,-242.00
2025-06-12 19:21:27.486396,599618378240385698,-240.00
2025-06-12 19:21:27.486396,599618378240385698,-245.00
2025-06-12 19:21:27.486396,599618378240385698,-245.00
2025-06-12 19:21:27.486396,599618378240385698,-230.00
2025-06-12 19:21:27.486396,599618378240385698,-216.00
2025-06-12 19:21:27.486396,599618378240385698,-211.00
2025-06-12 19:21:27.486396,599618378240385698,-208.00
2025-06-12 19:21:27.486396,599618378240385698,-199.00
2025-06-12 19:21:27.486396,599618378240385698,-184.00
2025-06-12 19:21:27.486396,599618378240385698,-174.00
2025-06-12 19:21:27.486396,599618378240385698,-167.00
2025-06-12 19:21:27.486396,599618378240385698,-165.00
2025-06-12 19:21:27.486396,599618378240385698,-162.00
2025-06-12 19:21:27.486396,599618378240385698,-150.00
2025-06-12 19:21:27.486396,599618378240385698,-143.00
2025-06-12 19:21:27.486396,599618378240385698,-143.00
2025-06-12 19:21:27.486396,599618378240385698,-138.00
2025-06-12 19:21:27.486396,599618378240385698,-136.00
2025-06-12 19:21:27.486396,599618378240385698,-138.00
2025-06-12 19:21:27.486396,599618378240385698,-140.00
2025-06-12 19:21:27.486396,599618378240385698,-145.00
2025-06-12 19:21:27.486396,599618378240385698,-140.00
2025-06-12 19:21:27.486396,599618378240385698,-131.00
2025-06-12 19:21:27.486396,599618378240385698,-131.00
2025-06-12 19:21:27.486396,599618378240385698,-136.00
2025-06-12 19:21:27.486396,599618378240385698,-131.00
2025-06-12 19:21:27.486396,599618378240385698,-128.00
2025-06-12 19:21:27.486396,599618378240385698,-123.00
2025-06-12 19:21:27.486396,599618378240385698,-123.00
2025-06-12 19:21:27.486396,599618378240385698,-128.00
2025-06-12 19:21:27.486396,599618378240385698,-128.00
2025-06-12 19:21:27.486396,599618378240385698,-111.00
2025-06-12 19:21:27.486396,599618378240385698,-102.00
2025-06-12 19:21:27.486396,599618378240385698,-109.00
2025-06-12 19:21:27.486396,599618378240385698,-114.00
2025-06-12 19:21:27.486396,599618378240385698,-111.00
2025-06-12 19:21:27.486396,599618378240385698,-109.00
2025-06-12 19:21:27.486396,599618378240385698,-106.00
2025-06-12 19:21:27.486396,599618378240385698,-102.00
2025-06-12 19:21:27.486396,599618378240385698,-99.00
2025-06-12 19:21:27.486396,599618378240385698,-94.00
2025-06-12 19:21:27.486396,599618378240385698,-92.00
2025-06-12 19:21:27.486396,599618378240385698,-92.00
2025-06-12 19:21:27.486396,599618378240385698,-94.00
2025-06-12 19:21:27.486396,599618378240385698,-99.00
2025-06-12 19:21:27.486396,599618378240385698,-104.00
2025-06-12 19:21:27.486396,599618378240385698,-109.00
2025-06-12 19:21:27.486396,599618378240385698,-114.00
2025-06-12 19:21:27.486396,599618378240385698,-109.00
2025-06-12 19:21:27.486396,599618378240385698,-85.00
2025-06-12 19:21:27.486396,599618378240385698,-53.00
2025-06-12 19:21:27.486396,599618378240385698,-43.00
2025-06-12 19:21:27.486396,599618378240385698,-60.00
2025-06-12 19:21:27.486396,599618378240385698,-77.00
2025-06-12 19:21:27.486396,599618378240385698,-70.00
2025-06-12 19:21:27.486396,599618378240385698,-60.00
2025-06-12 19:21:27.486396,599618378240385698,-65.00
2025-06-12 19:21:27.486396,599618378240385698,-70.00
2025-06-12 19:21:27.486396,599618378240385698,-63.00
2025-06-12 19:21:27.486396,599618378240385698,-63.00
2025-06-12 19:21:27.486396,599618378240385698,-68.00
2025-06-12 19:21:28.030684,599618378801209897,-68.00
2025-06-12 19:21:28.030684,599618378801209897,-65.00
2025-06-12 19:21:28.030684,599618378801209897,-60.00
2025-06-12 19:21:28.030684,599618378801209897,-63.00
2025-06-12 19:21:28.030684,599618378801209897,-75.00
2025-06-12 19:21:28.030684,599618378801209897,-43.00
2025-06-12 19:21:28.030684,599618378801209897,233.00
2025-06-12 19:21:28.030684,599618378801209897,847.00
2025-06-12 19:21:28.030684,599618378801209897,1484.00
2025-06-12 19:21:28.030684,599618378801209897,1634.00
2025-06-12 19:21:28.030684,599618378801209897,944.00
2025-06-12 19:21:28.030684,599618378801209897,-143.00
2025-06-12 19:21:28.030684,599618378801209897,-493.00
2025-06-12 19:21:28.030684,599618378801209897,-145.00
2025-06-12 19:21:28.030684,599618378801209897,-77.00
2025-06-12 19:21:28.030684,599618378801209897,-233.00
2025-06-12 19:21:28.030684,599618378801209897,-174.00
2025-06-12 19:21:28.030684,599618378801209897,-116.00
2025-06-12 19:21:28.030684,599618378801209897,-167.00
2025-06-12 19:21:28.030684,599618378801209897,-155.00
2025-06-12 19:21:28.030684,599618378801209897,-111.00
2025-06-12 19:21:28.030684,599618378801209897,-116.00
2025-06-12 19:21:28.030684,599618378801209897,-116.00
2025-06-12 19:21:28.030684,599618378801209897,-92.00
2025-06-12 19:21:28.030684,599618378801209897,-80.00
2025-06-12 19:21:28.030684,599618378801209897,-68.00
2025-06-12 19:21:28.030684,599618378801209897,-41.00
2025-06-12 19:21:28.030684,599618378801209897,-31.00
2025-06-12 19:21:28.030684,599618378801209897,-21.00
2025-06-12 19:21:28.030684,599618378801209897,0.00
2025-06-12 19:21:28.030684,599618378801209897,24.00
2025-06-12 19:21:28.030684,599618378801209897,48.00
2025-06-12 19:21:28.030684,599618378801209897,77.00
2025-06-12 19:21:28.030684,599618378801209897,109.00
2025-06-12 19:21:28.030684,599618378801209897,138.00
2025-06-12 19:21:28.030684,599618378801209897,167.00
2025-06-12 19:21:28.030684,599618378801209897,187.00
2025-06-12 19:21:28.030684,599618378801209897,194.00
2025-06-12 19:21:28.030684,599618378801209897,189.00
2025-06-12 19:21:28.030684,599618378801209897,174.00
2025-06-12 19:21:28.030684,599618378801209897,148.00
2025-06-12 19:21:28.030684,599618378801209897,104.00
2025-06-12 19:21:28.030684,599618378801209897,53.00
2025-06-12 19:21:28.030684,599618378801209897,-2.00
2025-06-12 19:21:28.030684,599618378801209897,-72.00
2025-06-12 19:21:28.030684,599618378801209897,-136.00
2025-06-12 19:21:28.030684,599618378801209897,-179.00
2025-06-12 19:21:28.030684,599618378801209897,-206.00
2025-06-12 19:21:28.030684,599618378801209897,-223.00
2025-06-12 19:21:28.030684,599618378801209897,-223.00
2025-06-12 19:21:28.030684,599618378801209897,-221.00
2025-06-12 19:21:28.030684,599618378801209897,-223.00
2025-06-12 19:21:28.030684,599618378801209897,-216.00
2025-06-12 19:21:28.030684,599618378801209897,-206.00
2025-06-12 19:21:28.030684,599618378801209897,-199.00
2025-06-12 19:21:28.030684,599618378801209897,-189.00
2025-06-12 19:21:28.030684,599618378801209897,-177.00
2025-06-12 19:21:28.030684,599618378801209897,-165.00
2025-06-12 19:21:28.030684,599618378801209897,-160.00
2025-06-12 19:21:28.030684,599618378801209897,-157.00
2025-06-12 19:21:28.030684,599618378801209897,-143.00
2025-06-12 19:21:28.030684,599618378801209897,-133.00
2025-06-12 19:21:28.030684,599618378801209897,-140.00
2025-06-12 19:21:28.030684,599618378801209897,-138.00
2025-06-12 19:21:28.030684,599618378801209897,-123.00
2025-06-12 19:21:28.030684,599618378801209897,-123.00
2025-06-12 19:21:28.030684,599618378801209897,-128.00
2025-06-12 19:21:28.030684,599618378801209897,-128.00
2025-06-12 19:21:28.030684,599618378801209897,-131.00
2025-06-12 19:21:28.030684,599618378801209897,-131.00
2025-06-12 19:21:28.030684,599618378801209897,-128.00
2025-06-12 19:21:28.030684,599618378801209897,-128.00
2025-06-12 19:21:28.030684,599618378801209897,-128.00
2025-06-12 19:21:28.601156,599618379362013752,-121.00
2025-06-12 19:21:28.601156,599618379362013752,-121.00
2025-06-12 19:21:28.601156,599618379362013752,-119.00
2025-06-12 19:21:28.601156,599618379362013752,-116.00
2025-06-12 19:21:28.601156,599618379362013752,-116.00
2025-06-12 19:21:28.601156,599618379362013752,-116.00
2025-06-12 19:21:28.601156,599618379362013752,-109.00
2025-06-12 19:21:28.601156,599618379362013752,-102.00
2025-06-12 19:21:28.601156,599618379362013752,-102.00
2025-06-12 19:21:28.601156,599618379362013752,-111.00
2025-06-12 19:21:28.601156,599618379362013752,-114.00
2025-06-12 19:21:28.601156,599618379362013752,-106.00
